200.090469251518	1615
202.974751419362	1639
205.858021632263	1624
208.740280737522	1636
211.621529580443	1604
214.501769004371	1600
217.380999850626	1646
220.25922295859	1602
223.136439165646	1602
226.012649307235	1589
228.88785421682	1660
231.762054725918	1600
234.635251664113	1649
237.507445859021	1608
240.378638136346	1622
243.248829319855	1655
246.11802023137	1605
248.986211690826	1622
251.853404516227	1622
254.719599523654	1664
257.584797527335	1673
260.44899933954	1657
263.312205770682	1654
266.174417629303	1675
269.035635722015	1622
271.895860853609	1627
274.755093826978	1678
277.613335443144	1669
280.470586501309	1695
283.326847798766	1654
286.182120131019	1646
289.036404291684	1647
291.889701072574	1644
294.742011263643	1612
297.593335653048	1616
300.443675027094	1619
303.293030170295	1602
306.141401865367	1621
308.988790893174	1631
311.835198032837	1610
314.680624061635	1587
317.525069755113	1602
320.36853588697	1606
323.211023229178	1623
326.052532551923	1597
328.893064623604	1619
331.732620210885	1611
334.57120007867	1601
337.408804990093	1592
340.245435706565	1589
343.081092987733	1607
345.915777591523	1644
348.749490274145	1579
351.582231790049	1623
354.414002891997	1642
357.244804331021	1634
360.074636856443	1603
362.903501215886	1629
365.731398155265	1623
368.558328418814	1597
371.384292749062	1620
374.209291886869	1622
377.033326571407	1614
379.85639754017	1617
382.678505529009	1624
385.499651272065	1634
388.319835501872	1612
391.139058949258	1600
393.957322343453	1592
396.774626412011	1622
399.590971880847	1611
402.406359474258	1588
405.220789914893	1620
408.034263923801	1597
410.8467822204	1613
413.658345522483	1611
416.468954546242	1656
419.278610006277	1636
422.087312615557	1612
424.895063085503	1606
427.701862125901	1624
430.507710444981	1632
433.312608749366	1622
436.116557744146	1631
438.919558132791	1626
441.721610617238	1638
444.522715897856	1635
447.322874673457	1659
450.122087641299	1616
452.920355497092	1634
455.717678935009	1608
458.514058647681	1597
461.309495326219	1622
464.103989660191	1613
466.89754233765	1566
469.690154045114	1614
472.481825467625	1614
475.272557288674	1636
478.062350190281	1615
480.851204852952	1609
483.639121955683	1648
486.426102176007	1617
489.212146189955	1615
491.997254672093	1593
494.781428295471	1606
497.564667731716	1640
500.346973650958	1628
503.128346721878	1627
505.90878761169	1579
508.688296986151	1666
511.46687550957	1653
514.244523844831	1616
517.021242653354	1619
519.797032595132	1633
522.571894328732	1605
525.345828511279	1641
528.11883579849	1617
530.890916844655	1639
533.662072302668	1645
536.432302823985	1597
539.201609058684	1613
541.96999165542	1629
544.737451261473	1617
547.503988522723	1618
550.26960408366	1583
553.034298587394	1623
555.798072675669	1627
558.560926988819	1648
561.322862165849	1611
564.083878844369	1618
566.843977660654	1648
569.603159249604	1661
572.361424244769	1646
575.118773278369	1640
577.87520698124	1627
580.630725982905	1636
583.385330911566	1677
586.139022394076	1592
588.891801055954	1651
591.643667521406	1652
594.394622413318	1624
597.144666353273	1633
599.893799961512	1642
602.64202385701	1593
605.389338657413	1642
608.135744979089	1656
610.881243437092	1579
613.625834645191	1574
616.369519215881	1601
619.112297760374	1656
621.854170888604	1632
624.595139209225	1664
627.335203329614	1709
630.074363855914	1762
632.81262139299	1798
635.549976544436	1672
638.286429912612	1631
641.021982098635	1644
643.756633702364	1618
646.49038532241	1556
649.223237556176	1634
651.955190999808	1608
654.686246248224	1607
657.416403895135	1592
660.145664533011	1588
662.874028753133	1628
665.601497145537	1631
668.328070299071	1615
671.05374880138	1633
673.778533238885	1619
676.502424196839	1628
679.225422259297	1655
681.947528009099	1635
684.668742027927	1616
687.389064896281	1627
690.108497193465	1630
692.827039497621	1649
695.544692385724	1690
698.261456433585	1622
700.977332215847	1719
703.692320305981	1673
706.406421276337	1638
709.11963569808	1650
711.831964141256	1655
714.54340717474	1636
717.253965366304	1627
719.963639282552	1628
722.672429488961	1601
725.380336549904	1610
728.087361028596	1625
730.793503487166	1604
733.498764486594	1655
736.203144586758	1636
738.906644346447	1629
741.60926432331	1643
744.311005073912	1625
747.011867153727	1656
749.711851117121	1641
752.410957517375	1657
755.109186906677	1706
757.806539836132	1672
760.503016855779	1680
763.198618514551	1618
765.893345360346	1635
768.587197939964	1648
771.28017679914	1613
773.972282482566	1657
776.663515533859	1650
779.353876495581	1680
782.043365909241	1638
784.731984315327	1629
787.419732253235	1683
790.106610261366	1655
792.792618877058	1689
795.477758636618	1713
798.162030075313	1687
800.845433727423	1652
803.52797012615	1674
806.209639803714	1719
808.890443291304	1702
811.570381119098	1675
814.249453816265	1709
816.927661910959	1727
819.60500593036	1689
822.281486400603	1726
824.957103846864	1704
827.631858793316	1684
830.305751763135	1736
832.978783278519	1690
835.650953860677	1705
838.322264029848	1760
840.992714305292	1738
843.662305205289	1780
846.331037247157	1781
848.998910947241	1798
851.665926820933	1854
854.332085382674	1929
856.997387145915	1936
859.661832623191	1933
862.325422326066	1906
864.988156765172	1855
867.650036450181	1818
870.311061889846	1704
872.971233591961	1765
875.630552063409	1741
878.28901781013	1702
880.946631337138	1752
883.603393148533	1737
886.259303747484	1736
888.914363636246	1710
891.568573316155	1727
894.22193328767	1750
896.874444050281	1707
899.526106102625	1751
902.176919942416	1706
904.826886066483	1722
907.476004970747	1748
910.124277150255	1727
912.77170309913	1754
915.418283310642	1735
918.064018277175	1751
920.708908490222	1736
923.352954440405	1718
925.996156617486	1754
928.638515510334	1705
931.280031606966	1757
933.920705394521	1752
936.560537359303	1706
939.199527986737	1719
941.837677761392	1739
944.474987167006	1754
947.111456686438	1721
949.747086801734	1810
952.38187799407	1723
955.015830743792	1742
957.648945530418	1744
960.281222832633	1798
962.91266312826	1782
965.543266894336	1762
968.173034607058	1747
970.801966741779	1755
973.43006377307	1810
976.057326174661	1778
978.683754419471	1784
981.309348979623	1758
983.93411032642	1776
986.558038930361	1796
989.181135261144	1792
991.803399787692	1788
994.424832978086	1832
997.045435299653	1790
999.665207218906	1826
1002.2841492016	1815
1004.90226171266	1811
1007.51954521628	1802
1010.13600017584	1799
1012.75162705397	1802
1015.3664263125	1797
1017.9803984125	1816
1020.5935438143	1867
1023.20586297741	1801
1025.81735636063	1811
1028.42802442196	1816
1031.03786761869	1831
1033.64688640732	1828
1036.2550812436	1835
1038.86245258255	1882
1041.46900087844	1852
1044.07472658479	1849
1046.67963015438	1862
1049.28371203927	1824
1051.88697269075	1834
1054.48941255943	1879
1057.09103209513	1842
1059.691831747	1805
1062.29181196343	1839
1064.89097319211	1855
1067.48931587999	1884
1070.08684047333	1862
1072.68354741766	1888
1075.27943715779	1903
1077.87451013787	1876
1080.46876680127	1892
1083.06220759071	1904
1085.65483294822	1901
1088.24664331509	1960
1090.83763913194	1992
1093.42782083869	2003
1096.01718887459	1997
1098.60574367818	2029
1101.19348568732	1965
1103.78041533919	1953
1106.3665330703	2000
1108.95183931646	1976
1111.53633451284	2005
1114.12001909391	1942
1116.70289349349	1984
1119.2849581447	1992
1121.86621348005	1941
1124.44665993134	1987
1127.02629792973	2003
1129.60512790574	1929
1132.18315028919	1930
1134.76036550929	1965
1137.3367739946	1985
1139.912376173	1917
1142.48717247176	1925
1145.06116331748	1969
1147.63434913616	1965
1150.20673035312	1954
1152.77830739307	1948
1155.34908068007	1986
1157.91905063757	1942
1160.48821768838	1942
1163.05658225471	1983
1165.6241447581	1914
1168.19090561951	1966
1170.75686525927	2021
1173.32202409708	2041
1175.88638255206	1970
1178.44994104269	1976
1181.01269998684	1992
1183.57465980182	1950
1186.13582090427	1962
1188.69618371026	2009
1191.25574863529	1961
1193.8145160942	1984
1196.37248650129	1961
1198.92966027025	1919
1201.48603781416	1922
1204.04161954556	1933
1206.59640587635	1914
1209.15039721788	1960
1211.70359398092	1904
1214.25599657564	1911
1216.80760541166	1967
1219.35842089801	1904
1221.90844344314	1932
1224.45767345496	1956
1227.00611134077	1965
1229.55375750736	1928
1232.10061236092	1943
1234.64667630707	2002
1237.1919497509	1983
1239.73643309692	1976
1242.28012674912	1962
1244.82303111089	1967
1247.36514658511	2005
1249.9064735741	2018
1252.44701247964	2046
1254.98676370294	2026
1257.52572764469	2036
1260.06390470506	1999
1262.60129528365	2081
1265.13789977954	2061
1267.67371859128	2097
1270.20875211688	2107
1272.74300075384	2147
1275.2764648991	2187
1277.80914494911	2239
1280.34104129978	2219
1282.87215434652	2258
1285.40248448419	2272
1287.93203210715	2349
1290.46079760927	2270
1292.98878138385	2276
1295.51598382375	2194
1298.04240532127	2243
1300.56804626822	2162
1303.09290705593	2124
1305.6169880752	2109
1308.14028971632	2104
1310.66281236913	2121
1313.18455642292	2128
1315.70552226653	2048
1318.22571028829	2051
1320.74512087603	2087
1323.26375441711	2053
1325.7816112984	2039
1328.29869190629	2050
1330.81499662666	2081
1333.33052584497	2099
1335.84527994613	2066
1338.35925931464	2067
1340.87246433446	2069
1343.38489538916	2100
1345.89655286177	2070
1348.40743713487	2054
1350.91754859059	2046
1353.42688761059	2130
1355.93545457606	2113
1358.44324986772	2130
1360.95027386588	2103
1363.45652695032	2098
1365.96200950042	2137
1368.4667218951	2121
1370.97066451281	2151
1373.47383773156	2121
1375.97624192891	2098
1378.47787748199	2147
1380.97874476746	2043
1383.47884416157	2073
1385.97817604009	2052
1388.4767407784	2096
1390.9745387514	2065
1393.47157033358	2086
1395.96783589898	2057
1398.46333582124	2005
1400.95807047354	2071
1403.45204022864	2099
1405.94524545889	2075
1408.4376865362	2104
1410.92936383205	2143
1413.42027771752	2172
1415.91042856328	2115
1418.39981673955	2087
1420.88844261615	2082
1423.37630656249	2076
1425.86340894757	2099
1428.34975013999	2028
1430.83533050792	2039
1433.32015041912	2101
1435.80421024098	2074
1438.28751034045	2130
1440.77005108411	2076
1443.25183283812	2097
1445.73285596824	2170
1448.21312083984	2153
1450.69262781791	2192
1453.17137726702	2181
1455.64936955137	2151
1458.12660503477	2165
1460.60308408063	2186
1463.07880705197	2128
1465.55377431145	2138
1468.02798622133	2125
1470.50144314348	2114
1472.97414543941	2116
1475.44609347024	2143
1477.91728759673	2097
1480.38772817924	2130
1482.85741557777	2089
1485.32635015194	2095
1487.79453226103	2153
1490.26196226391	2090
1492.72864051911	2083
1495.1945673848	2128
1497.65974321874	2118
1500.1241683784	2080
1502.58784322083	2118
1505.05076810274	2107
1507.51294338049	2114
1509.97436941009	2103
1512.43504654717	2115
1514.89497514704	2055
1517.35415556462	2113
1519.81258815451	2137
1522.27027327095	2125
1524.72721126784	2123
1527.18340249874	2080
1529.63884731684	2064
1532.09354607502	2126
1534.5474991258	2106
1537.00070682136	2144
1539.45316951355	2124
1541.90488755388	2150
1544.35586129353	2139
1546.80609108336	2129
1549.25557727385	2104
1551.70432021519	2138
1554.15232025725	2146
1556.59957774953	2103
1559.04609304125	2140
1561.49186648127	2128
1563.93689841815	2148
1566.38118920011	2125
1568.82473917506	2142
1571.2675486906	2159
1573.70961809399	2153
1576.15094773219	2158
1578.59153795184	2118
1581.03138909928	2156
1583.47050152051	2241
1585.90887556123	2165
1588.34651156686	2131
1590.78340988246	2161
1593.21957085283	2230
1595.65499482245	2258
1598.08968213547	2252
1600.52363313578	2366
1602.95684816694	2418
1605.38932757224	2608
1607.82107169462	2832
1610.25208087677	3173
1612.68235546107	3351
1615.1118957896	3274
1617.54070220415	2935
1619.96877504621	2576
1622.39611465701	2359
1624.82272137746	2244
1627.24859554818	2193
1629.67373750953	2195
1632.09814760155	2179
1634.52182616404	2089
1636.94477353647	2132
1639.36699005806	2092
1641.78847606776	2169
1644.20923190418	2096
1646.62925790573	2100
1649.04855441048	2141
1651.46712175628	2098
1653.88496028066	2123
1656.3020703209	2151
1658.71845221401	2124
1661.13410629671	2119
1663.54903290547	2141
1665.96323237649	2151
1668.37670504571	2187
1670.78945124877	2154
1673.20147132109	2198
1675.61276559779	2176
1678.02333441377	2188
1680.43317810362	2215
1682.84229700171	2174
1685.25069144213	2197
1687.65836175872	2172
1690.06530828507	2183
1692.47153135451	2187
1694.87703130009	2178
1697.28180845467	2232
1699.6858631508	2183
1702.08919572081	2261
1704.49180649676	2305
1706.89369581049	2251
1709.29486399355	2336
1711.69531137731	2343
1714.09503829282	2474
1716.49404507095	2545
1718.89233204229	2609
1721.28989953721	2711
1723.68674788581	2813
1726.08287741798	2871
1728.47828846338	2757
1730.87298135139	2698
1733.26695641119	2640
1735.66021397173	2589
1738.05275436169	2504
1740.44457790954	2457
1742.83568494354	2404
1745.22607579168	2277
1747.61575078175	2207
1750.00471024128	2281
1752.39295449761	2199
1754.78048387783	2223
1757.16729870881	2250
1759.5533993172	2216
1761.93878602942	2232
1764.32345917168	2182
1766.70741906995	2256
1769.09066604999	2232
1771.47320043735	2237
1773.85502255735	2196
1776.2361327351	2199
1778.61653129548	2235
1780.99621856318	2228
1783.37519486264	2248
1785.75346051813	2236
1788.13101585368	2257
1790.5078611931	2244
1792.88399686002	2243
1795.25942317785	2214
1797.63414046977	2306
1800.00814905878	2297
1802.38144926766	2235
1804.75404141898	2277
1807.12592583514	2245
1809.49710283829	2280
1811.86757275039	2240
1814.23733589322	2267
1816.60639258834	2262
1818.97474315712	2226
1821.34238792073	2290
1823.70932720012	2242
1826.07556131608	2315
1828.44109058918	2265
1830.8059153398	2280
1833.17003588812	2239
1835.53345255413	2258
1837.89616565765	2238
1840.25817551827	2281
1842.61948245541	2250
1844.9800867883	2260
1847.33998883598	2237
1849.69918891729	2225
1852.05768735091	2289
1854.4154844553	2237
1856.77258054875	2255
1859.12897594938	2281
1861.4846709751	2278
1863.83966594366	2261
1866.19396117261	2253
1868.54755697932	2297
1870.90045368099	2294
1873.25265159463	2310
1875.60415103708	2318
1877.95495232501	2332
1880.30505577486	2323
1882.65446170299	2358
1885.00317042548	2274
1887.35118225832	2323
1889.69849751726	2349
1892.04511651792	2329
1894.39103957574	2313
1896.73626700596	2356
1899.08079912368	2408
1901.42463624384	2391
1903.76777868116	2402
1906.11022675025	2390
1908.4519807655	2402
1910.79304104117	2374
1913.13340789134	2389
1915.47308162992	2383
1917.81206257067	2449
1920.15035102718	2406
1922.48794731286	2420
1924.82485174096	2402
1927.16106462461	2443
1929.49658627672	2461
1931.83141701008	2396
1934.1655571373	2416
1936.49900697085	2414
1938.83176682301	2388
1941.16383700594	2367
1943.49521783161	2395
1945.82590961186	2462
1948.15591265835	2424
1950.48522728262	2431
1952.81385379602	2419
1955.14179250976	2371
1957.46904373489	2427
1959.79560778233	2419
1962.12148496284	2407
1964.44667558701	2435
1966.77117996529	2421
1969.09499840799	2427
1971.41813122527	2455
1973.74057872714	2477
1976.06234122345	2485
1978.38341902391	2444
1980.7038124381	2443
1983.02352177543	2518
1985.34254734518	2439
1987.66088945649	2488
1989.97854841833	2478
1992.29552453956	2443
1994.61181812887	2461
1996.92742949483	2513
1999.24235894586	2471
2001.55660679023	2567
2003.87017333608	2527
2006.18305889143	2503
2008.49526376413	2522
2010.80678826189	2559
2013.1176326923	2556
2015.42779736282	2554
2017.73728258075	2568
2020.04608865326	2565
2022.3542158874	2527
2024.66166459008	2558
2026.96843506807	2567
2029.274527628	2609
2031.57994257637	2549
2033.88468021957	2624
2036.18874086383	2592
2038.49212481526	2592
2040.79483237983	2554
2043.0968638634	2651
2045.39821957169	2614
2047.69889981028	2652
2049.99890488462	2667
2052.29823510006	2662
2054.59689076181	2611
2056.89487217492	2674
2059.19217964437	2635
2061.48881347497	2612
2063.7847739714	2633
2066.08006143826	2649
2068.37467618	2648
2070.66861850093	2661
2072.96188870527	2679
2075.25448709707	2661
2077.54641398031	2687
2079.83766965881	2640
2082.12825443629	2647
2084.41816861634	2678
2086.70741250242	2657
2088.99598639789	2708
2091.28389060597	2686
2093.57112542978	2699
2095.85769117232	2703
2098.14358813644	2698
2100.42881662491	2660
2102.71337694037	2673
2104.99726938532	2740
2107.28049426219	2718
2109.56305187325	2665
2111.84494252069	2718
2114.12616650655	2724
2116.40672413278	2777
2118.68661570121	2706
2120.96584151355	2753
2123.24440187138	2796
2125.52229707622	2801
2127.79952742943	2784
2130.07609323227	2812
2132.35199478588	2791
2134.62723239132	2810
2136.90180634949	2846
2139.17571696123	2788
2141.44896452723	2858
2143.72154934809	2779
2145.99347172429	2868
2148.26473195623	2882
2150.53533034415	2830
2152.80526718821	2894
2155.07454278848	2825
2157.3431574449	2870
2159.61111145728	2913
2161.87840512538	2907
2164.1450387488	2932
2166.41101262707	2945
2168.67632705959	2946
2170.94098234567	2901
2173.20497878451	2909
2175.46831667519	2959
2177.73099631672	2991
2179.99301800797	2959
2182.25438204772	2975
2184.51508873466	3008
2186.77513836735	2996
2189.03453124427	2953
2191.29326766378	2960
2193.55134792416	2955
2195.80877232355	3084
2198.06554116004	2966
2200.32165473157	3028
2202.577113336	3040
2204.83191727111	3028
2207.08606683453	3031
2209.33956232384	3001
2211.59240403648	2977
2213.84459226982	3020
2216.09612732112	3020
2218.34700948753	3087
2220.59723906612	3016
2222.84681635385	3074
2225.09574164758	3051
2227.34401524408	3099
2229.59163744002	3057
2231.83860853197	3068
2234.08492881639	3087
2236.33059858968	3122
2238.5756181481	3140
2240.81998778784	3118
2243.06370780499	3117
2245.30677849555	3113
2247.54920015539	3163
2249.79097308033	3134
2252.03209756607	3170
2254.27257390822	3150
2256.51240240228	3192
2258.75158334369	3142
2260.99011702777	3181
2263.22800374976	3168
2265.46524380477	3208
2267.70183748786	3205
2269.93778509399	3150
2272.17308691801	3204
2274.40774325467	3184
2276.64175439866	3213
2278.87512064454	3231
2281.10784228682	3262
2283.33991961987	3249
2285.571352938	3308
2287.80214253541	3282
2290.03228870623	3315
2292.26179174449	3230
2294.4906519441	3284
2296.71886959892	3353
2298.9464450027	3338
2301.1733784491	3279
2303.39967023169	3387
2305.62532064395	3311
2307.85032997926	3286
2310.07469853093	3373
2312.29842659216	3365
2314.52151445608	3336
2316.7439624157	3380
2318.96577076397	3388
2321.18693979374	3429
2323.40746979777	3468
2325.62736106873	3378
2327.8466138992	3442
2330.06522858166	3454
2332.28320540853	3442
2334.50054467212	3437
2336.71724666465	3451
2338.93331167827	3435
2341.14874000501	3456
2343.36353193685	3431
2345.57768776564	3408
2347.79120778319	3467
2350.00409228117	3523
2352.21634155121	3557
2354.42795588482	3469
2356.63893557342	3505
2358.84928090838	3575
2361.05899218094	3447
2363.26806968228	3507
2365.47651370347	3609
2367.68432453552	3520
2369.89150246933	3551
2372.09804779571	3528
2374.30396080541	3652
2376.50924178907	3515
2378.71389103725	3542
2380.91790884042	3596
2383.12129548897	3562
2385.3240512732	3562
2387.52617648332	3533
2389.72767140946	3591
2391.92853634165	3638
2394.12877156985	3612
2396.32837738392	3614
2398.52735407365	3656
2400.72570192873	3673
2402.92342123875	3693
2405.12051229325	3670
2407.31697538167	3681
2409.51281079333	3675
2411.70801881751	3663
2413.90259974339	3716
2416.09655386004	3678
2418.28988145648	3690
2420.48258282162	3684
2422.6746582443	3728
2424.86610801325	3740
2427.05693241713	3677
2429.24713174452	3821
2431.43670628389	3759
2433.62565632365	3810
2435.81398215212	3768
2438.00168405752	3678
2440.18876232799	3800
2442.37521725158	3813
2444.56104911628	3814
2446.74625820994	3821
2448.93084482038	3853
2451.1148092353	3817
2453.29815174233	3818
2455.480872629	3905
2457.66297218275	3868
2459.84445069097	3831
2462.02530844092	3838
2464.2055457198	3875
2466.38516281471	3800
2468.56416001267	3864
2470.74253760061	3893
2472.92029586537	3950
2475.09743509372	3860
2477.27395557232	3867
2479.44985758777	3914
2481.62514142655	3876
2483.79980737508	3975
2485.97385571969	3903
2488.14728674661	3897
2490.32010074198	3883
2492.49229799188	3953
2494.66387878228	3990
2496.83484339905	3995
2499.00519212802	3968
2501.17492525488	4005
2503.34404306528	4021
2505.51254584473	4101
2507.6804338787	4050
2509.84770745254	4130
2512.01436685153	4082
2514.18041236085	4085
2516.34584426561	4129
2518.51066285081	4137
2520.67486840138	4131
2522.83846120214	4240
2525.00144153784	4163
2527.16380969314	4106
2529.32556595261	4250
2531.48671060072	4233
2533.64724392186	4224
2535.80716620033	4237
2537.96647772034	4170
2540.12517876602	4234
2542.2832696214	4227
2544.44075057041	4274
2546.59762189691	4258
2548.75388388466	4301
2550.90953681735	4163
2553.06458097853	4252
2555.21901665172	4285
2557.37284412031	4376
2559.5260636676	4289
2561.67867557684	4340
2563.83068013113	4372
2565.98207761351	4331
2568.13286830695	4305
2570.28305249429	4309
2572.43263045829	4404
2574.58160248163	4328
2576.72996884689	4346
2578.87772983655	4377
2581.02488573303	4460
2583.1714368186	4373
2585.31738337549	4374
2587.46272568582	4330
2589.60746403161	4447
2591.75159869479	4538
2593.89512995722	4430
2596.03805810061	4427
2598.18038340665	4451
2600.32210615686	4479
2602.46322663274	4529
2604.60374511563	4470
2606.74366188683	4552
2608.88297722751	4512
2611.02169141875	4531
2613.15980474156	4658
2615.29731747681	4568
2617.43422990532	4587
2619.57054230779	4552
2621.70625496483	4570
2623.84136815694	4603
2625.97588216456	4646
2628.10979726799	4616
2630.24311374746	4687
2632.3758318831	4636
2634.50795195493	4675
2636.6394742429	4709
2638.77039902682	4659
2640.90072658645	4624
2643.0304572014	4693
2645.15959115123	4718
2647.28812871538	4695
2649.41607017319	4731
2651.5434158039	4714
2653.67016588665	4831
2655.79632070049	4761
2657.92188052436	4695
2660.04684563711	4878
2662.17121631749	4806
2664.29499284413	4778
2666.41817549558	4843
2668.54076455027	4827
2670.66276028656	4933
2672.78416298267	4813
2674.90497291675	4872
2677.02519036682	4936
2679.14481561082	4956
2681.26384892658	4895
2683.38229059182	5006
2685.50014088417	4906
2687.61740008114	5005
2689.73406846017	4922
2691.85014629854	5016
2693.96563387347	5012
2696.08053146206	4990
2698.1948393413	4925
2700.3085577881	4981
2702.42168707924	5047
2704.53422749139	5054
2706.64617930112	5048
2708.75754278492	5157
2710.86831821913	5095
2712.97850588002	5088
2715.08810604372	5071
2717.19711898628	5108
2719.30554498363	5140
2721.41338431158	5095
2723.52063724586	5133
2725.62730406206	5137
2727.73338503569	5197
2729.83888044213	5110
2731.94379055664	5283
2734.04811565441	5208
2736.15185601048	5239
2738.25501189979	5200
2740.35758359718	5271
2742.45957137738	5232
2744.56097551499	5249
2746.6617962845	5247
2748.7620339603	5236
2750.86168881666	5296
2752.96076112774	5372
2755.05925116758	5335
2757.15715921012	5360
2759.25448552917	5373
2761.35123039843	5345
2763.44739409148	5403
2765.5429768818	5388
2767.63797904275	5377
2769.73240084756	5396
2771.82624256934	5409
2773.91950448113	5544
2776.01218685579	5468
2778.10428996609	5481
2780.19581408469	5460
2782.28675948414	5444
2784.37712643683	5495
2786.46691521507	5505
2788.55612609104	5473
2790.64475933678	5481
2792.73281522425	5500
2794.82029402525	5485
2796.90719601149	5545
2798.99352145453	5564
2801.07927062583	5518
2803.16444379672	5505
2805.24904123841	5523
2807.33306322197	5606
2809.41651001838	5531
2811.49938189847	5622
2813.58167913296	5581
2815.66340199243	5637
2817.74455074734	5576
2819.82512566805	5580
2821.90512702475	5550
2823.98455508754	5580
2826.06341012637	5626
2828.14169241109	5618
2830.2194022114	5712
2832.29653979686	5697
2834.37310543694	5697
2836.44909940096	5735
2838.5245219581	5636
2840.59937337744	5719
2842.67365392791	5715
2844.74736387829	5698
2846.82050349727	5804
2848.8930730534	5787
2850.96507281506	5774
2853.03650305056	5797
2855.10736402802	5880
2857.17765601545	5813
2859.24737928074	5854
2861.31653409164	5813
2863.38512071574	5830
2865.45313942054	5927
2867.52059047335	5836
2869.58747414139	5886
2871.65379069173	5887
2873.7195403913	5846
2875.78472350688	5942
2877.84934030515	5941
2879.91339105262	5888
2881.97687601567	5932
2884.03979546053	5963
2886.10214965332	5984
2888.16393886	5971
2890.22516334639	6023
2892.28582337816	5965
2894.34591922087	6054
2896.40545113992	6059
2898.46441940054	6052
2900.52282426787	5981
2902.58066600687	6176
2904.63794488237	6064
2906.69466115906	6140
2908.75081510147	6091
2910.806406974	6103
2912.8614370409	6154
2914.91590556626	6042
2916.96981281404	6137
2919.02315904807	6102
2921.07594453199	6145
2923.12816952932	6098
2925.17983430343	6111
2927.23093911753	6158
2929.28148423469	6095
2931.33146991782	6064
2933.3808964297	6079
2935.42976403294	6095
2937.47807299	6153
2939.5258235632	6109
2941.57301601469	6098
2943.61965060648	6132
2945.66572760042	6173
2947.71124725823	6099
2949.75620984143	6247
2951.80061561143	6334
2953.84446482945	6221
2955.88775775656	6356
2957.9304946537	6282
2959.97267578162	6300
2962.01430140095	6245
2964.05537177211	6281
2966.09588715541	6301
2968.13584781097	6385
2970.17525399875	6345
2972.21410597859	6348
2974.25240401011	6249
2976.29014835283	6265
2978.32733926604	6396
2980.36397700892	6341
2982.40006184049	6275
2984.43559401955	6288
2986.4705738048	6309
2988.50500145473	6238
2990.53887722771	6362
2992.57220138189	6318
2994.6049741753	6211
2996.63719586576	6404
2998.66886671097	6255
3000.69998696843	6411
3002.73055689549	6337
3004.7605767493	6422
3006.79004678688	6403
3008.81896726505	6414
3010.84733844048	6339
3012.87516056966	6411
3014.9024339089	6380
3016.92915871433	6454
3018.95533524196	6423
3020.98096374756	6403
3023.00604448675	6512
3025.030577715	6395
3027.05456368757	6502
3029.07800265956	6357
3031.10089488589	6334
3033.12324062131	6448
3035.14504012038	6481
3037.16629363749	6487
3039.18700142685	6539
3041.20716374249	6463
3043.22678083826	6349
3045.24585296782	6432
3047.26438038468	6529
3049.28236334212	6483
3051.29980209329	6468
3053.31669689111	6502
3055.33304798835	6442
3057.34885563757	6510
3059.36412009117	6490
3061.37884160134	6477
3063.39302042011	6566
3065.40665679931	6699
3067.41975099058	6606
3069.43230324538	6606
3071.44431381495	6584
3073.45578295041	6691
3075.46671090261	6722
3077.47709792227	6773
3079.48694425989	6824
3081.49625016578	6920
3083.50501589008	6672
3085.5132416827	6817
3087.5209277934	6619
3089.52807447169	6501
3091.53468196695	6551
3093.54075052832	6505
3095.54628040476	6515
3097.55127184503	6496
3099.55572509769	6489
3101.55964041111	6592
3103.56301803346	6446
3105.5658582127	6474
3107.56816119661	6578
3109.56992723275	6434
3111.57115656849	6356
3113.571849451	6403
3115.57200612724	6418
3117.57162684397	6394
3119.57071184775	6463
3121.56926138493	6417
3123.56727570166	6458
3125.56475504389	6397
3127.56169965735	6492
3129.55810978757	6394
3131.55398567987	6510
3133.54932757937	6483
3135.54413573099	6550
3137.53841037939	6496
3139.53215176909	6517
3141.52536014435	6499
3143.51803574924	6524
3145.51017882762	6556
3147.50178962311	6625
3149.49286837916	6498
3151.48341533897	6439
3153.47343074553	6562
3155.46291484164	6457
3157.45186786985	6431
3159.44029007252	6485
3161.42818169179	6380
3163.41554296955	6539
3165.40237414753	6463
3167.38867546718	6501
3169.37444716975	6448
3171.35968949631	6458
3173.34440268764	6542
3175.32858698436	6568
3177.31224262682	6495
3179.29536985517	6453
3181.27796890934	6510
3183.26004002902	6432
3185.24158345368	6422
3187.22259942256	6429
3189.2030881747	6423
3191.18304994886	6475
3193.16248498363	6507
3195.14139351733	6516
3197.11977578807	6411
3199.09763203371	6497
3201.07496249191	6506
3203.05176740007	6484
3205.02804699537	6471
3207.00380151475	6486
3208.97903119493	6491
3210.95373627238	6487
3212.92791698335	6516
3214.90157356383	6465
3216.8747062496	6446
3218.84731527619	6500
3220.81940087889	6546
3222.79096329275	6590
3224.76200275259	6483
3226.73251949298	6614
3228.70251374825	6623
3230.67198575251	6483
3232.64093573959	6582
3234.6093639431	6631
3236.57727059641	6611
3238.54465593261	6647
3240.51152018461	6675
3242.47786358502	6633
3244.44368636621	6648
3246.40898876031	6577
3248.37377099923	6605
3250.33803331458	6635
3252.30177593775	6554
3254.26499909987	6632
3256.22770303184	6616
3258.18988796427	6635
3260.15155412755	6673
3262.1127017518	6629
3264.0733310669	6566
3266.03344230246	6690
3267.99303568784	6500
3269.95211145215	6519
3271.91066982422	6701
3273.86871103267	6538
3275.82623530581	6553
3277.7832428717	6575
3279.73973395818	6497
3281.69570879278	6604
3283.6511676028	6677
3285.60611061527	6616
3287.56053805694	6513
3289.51445015432	6561
3291.46784713364	6598
3293.42072922088	6584
3295.37309664173	6607
3297.32494962163	6545
3299.27628838575	6492
3301.227113159	6517
3303.17742416601	6543
3305.12722163114	6532
3307.07650577848	6540
3309.02527683185	6558
3310.9735350148	6642
3312.9212805506	6646
3314.86851366225	6582
3316.81523457249	6444
3318.76144350377	6606
3320.70714067825	6549
3322.65232631783	6522
3324.59700064415	6489
3326.54116387854	6465
3328.48481624207	6370
3330.42795795551	6420
3332.37058923938	6400
3334.31271031389	6558
3336.25432139898	6474
3338.19542271432	6420
3340.13601447927	6475
3342.07609691292	6405
3344.01567023407	6481
3345.95473466124	6336
3347.89329041266	6367
3349.83133770627	6446
3351.76887675973	6390
3353.70590779039	6334
3355.64243101534	6443
3357.57844665135	6490
3359.51395491492	6425
3361.44895602224	6358
3363.38345018922	6423
3365.31743763148	6519
3367.25091856432	6420
3369.18389320278	6465
3371.11636176156	6444
3373.0483244551	6424
3374.97978149754	6343
3376.91073310269	6437
3378.84117948409	6338
3380.77112085498	6489
3382.70055742826	6388
3384.62948941659	6447
3386.55791703227	6382
3388.48584048733	6324
3390.41325999348	6393
3392.34017576214	6424
3394.2665880044	6345
3396.19249693107	6390
3398.11790275263	6385
3400.04280567926	6453
3401.96720592084	6514
3403.89110368692	6502
3405.81449918675	6517
3407.73739262928	6491
3409.65978422311	6484
3411.58167417658	6393
3413.50306269768	6386
3415.42394999408	6421
3417.34433627316	6465
3419.26422174195	6472
3421.18360660721	6421
3423.10249107532	6287
3425.02087535239	6447
3426.93875964421	6470
3428.8561441562	6347
3430.77302909353	6322
3432.68941466097	6394
3434.60530106301	6407
3436.52068850383	6421
3438.43557718726	6455
3440.34996731681	6327
3442.26385909565	6327
3444.17725272664	6272
3446.09014841231	6275
3448.00254635486	6320
3449.91444675614	6377
3451.82584981771	6366
3453.73675574076	6317
3455.64716472616	6253
3457.55707697445	6294
3459.46649268584	6231
3461.37541206018	6303
3463.28383529703	6328
3465.19176259555	6220
3467.09919415464	6224
3469.00613017278	6208
3470.91257084817	6358
3472.81851637863	6135
3474.72396696168	6286
3476.62892279446	6230
3478.53338407379	6269
3480.43735099614	6116
3482.34082375764	6251
3484.24380255404	6242
3486.1462875808	6215
3488.048279033	6261
3489.94977710537	6281
3491.85078199231	6186
3493.75129388783	6259
3495.65131298566	6200
3497.5508394791	6080
3499.44987356115	6177
