
201.866871357051	585.75
204.754250281454	587
207.640596790938	586
210.525911876299	581.5
213.410196525689	586
216.293451724508	583.25
219.175678455485	580.25
222.056877698662	578.25
224.937050431388	586.25
227.816197628363	582.75
230.694320261602	580
233.571419300504	579.5
236.447495711764	578.25
239.322550459507	577.75
242.196584505182	576.75
245.069598807626	571.75
247.941594323078	572.25
250.812572005154	567.75
253.682532804884	569.5
256.551477670699	568.5
259.419407548456	566.75
262.286323381439	567
265.152226110364	563
268.017116673389	567.25
270.880996006115	565.5
273.743865041622	566.75
276.605724710436	562.75
279.466575940562	563.25
282.326419657496	561.5
285.1852567842	564.5
288.043088241157	561.25
290.899914946349	561.5
293.75573781526	558.25
296.610557760898	560.5
299.464375693817	561.25
302.317192522078	561.75
305.169009151297	564
308.019826484655	559
310.86964542287	562.25
313.718466864233	559.5
316.566291704614	562.75
319.413120837457	561.5
322.258955153804	559
325.103795542291	559.5
327.947642889128	560.25
330.79049807819	561.25
333.632361990927	556.5
336.473235506444	558
339.31311950145	557.5
342.152014850322	555.75
344.989922425062	558.25
347.826843095354	556.75
350.662777728528	559.75
353.497727189577	556.75
356.331692341195	559
359.164674043732	557.5
361.996673155267	559.5
364.827690531536	560
367.65772702602	561.5
370.486783489887	557.75
373.314860772047	559.75
376.14195971912	559.75
378.968081175466	555.25
381.793225983212	558.75
384.617394982201	559.75
387.44058901005	562.25
390.262808902131	563
393.08405549161	562.25
395.904329609395	560.75
398.723632084213	563
401.541963742569	561.5
404.359325408779	561.5
407.175717904938	562.25
409.991142050982	560.75
412.805598664665	567.25
415.619088561551	559.75
418.43161255505	564
421.243171456415	559.5
424.053766074758	562
426.863397217017	562
429.672065688024	557.75
432.479772290455	562.75
435.286517824879	559.25
438.092303089736	557.25
440.897128881359	560.75
443.70099599399	561.25
446.503905219761	561
449.305857348711	560.75
452.106853168796	557.75
454.906893465919	557.25
457.705979023885	557.25
460.504110624439	556.5
463.3012890473	560
466.097515070087	556
468.892789468424	555.5
471.687113015869	555.25
474.48048648395	552.75
477.272910642198	556.25
480.064386258109	555.25
482.854914097159	558
485.644494922839	559.5
488.433129496636	556.5
491.220818578047	561.5
494.007562924584	557.5
496.793363291785	555.5
499.578220433217	559
502.362135100473	553.5
505.145108043209	557.5
507.927140009098	559.75
510.708231743909	559.25
513.488383991433	556.25
516.267597493556	560.5
519.04587299022	557.25
521.82321121946	556.5
524.599612917398	559.5
527.375078818233	555.75
530.149609654287	556.5
532.923206155967	561
535.695869051804	559.75
538.467599068448	557.75
541.238396930665	563.75
544.008263361364	558.75
546.777199081578	561.5
549.545204810493	561.75
552.312281265436	559.75
555.078429161898	566.75
557.843649213533	566.25
560.607942132156	563
563.371308627753	566
566.133749408495	565.75
568.895265180756	561.5
571.655856649064	564.25
574.415524516189	560.75
577.174269483075	563
579.932092248884	562.5
582.688993510994	564
585.444973965023	562.5
588.200034304795	567.25
590.95417522237	562.75
593.70739740807	558.75
596.459701550433	563
599.21108833628	561.75
601.961558450668	558.75
604.711112576933	559.75
607.459751396673	561.75
610.207475589748	560.5
612.954285834338	566.5
615.700182806879	561.25
618.445167182101	564.75
621.189239633055	566.5
623.932400831087	564.25
626.674651445839	563.5
629.415992145303	567
632.156423595745	564.5
634.895946461813	563.75
637.634561406449	564.5
640.37226909096	561
643.109070174978	563.5
645.844965316508	560.5
648.579955171888	564.5
651.314040395846	560
654.047221641456	557.25
656.779499560176	561.5
659.510874801828	561.5
662.241348014642	560.75
664.97091984524	560.25
667.699590938606	559.5
670.427361938164	558.25
673.15423348573	557.25
675.880206221526	559
678.605280784206	562
681.329457810829	558.5
684.05273793692	559.75
686.775121796389	564.25
689.49661002163	559.75
692.217203243454	564.25
694.936902091144	560.75
697.655707192425	563.5
700.373619173493	563.25
703.09063865901	560.75
705.806766272093	561.25
708.522002634378	559
711.236348365946	559.75
713.94980408538	557.75
716.662370409762	559.25
719.374047954676	561.5
722.08483733419	558.25
724.794739160909	554
727.503754045949	557.75
730.21188259892	555.75
732.919125427998	553.5
735.625483139855	556.25
738.330956339723	554.25
741.035545631374	555
743.739251617106	554.75
746.44207489779	555.25
749.144016072852	557.25
751.845075740272	553.5
754.545254496603	557.5
757.244552936976	552
759.94297165508	557
762.640511243222	552.75
765.337172292249	558
768.032955391649	556.75
770.727861129482	553.25
773.421890092413	553
776.11504286572	552.5
778.807320033298	553.75
781.49872217765	550.5
784.18924987991	557.25
786.87890371984	553.25
789.567684275826	553.5
792.255592124908	557.5
794.94262784276	553.25
797.628792003703	551.75
800.314085180715	553.5
802.998507945427	557.75
805.682060868145	557.5
808.364744517821	554
811.046559462105	556
813.727506267311	559.75
816.407585498422	558.25
819.08679771913	565
821.765143491822	562.25
824.442623377563	565.25
827.119237936127	566.75
829.794987726003	570.25
832.469873304377	572.25
835.143895227167	573
837.817054048985	579.75
840.489350323205	580
843.160784601892	580.5
845.831357435894	590.25
848.501069374739	595.75
851.169920966753	589.75
853.837912758987	591
856.505045297232	591.25
859.171319126071	584
861.836734788823	586.5
864.501292827579	583.25
867.164993783208	585.5
869.827838195361	573.25
872.489826602454	579.75
875.150959541701	568.5
877.811237549104	572.5
880.470661159456	568.5
883.129230906357	568.75
885.786947322205	565.25
888.443810938206	562
891.099822284385	563.75
893.754981889586	563.75
896.409290281452	563
899.062747986485	565.25
901.715355529999	563.25
904.367113436154	562.75
907.01802222793	567.25
909.668082427172	564.25
912.317294554574	565.75
914.965659129659	565.5
917.613176670835	564.25
920.259847695364	560.5
922.90567271936	560.5
925.550652257825	562
928.194786824621	558.75
930.838076932512	561.75
933.480523093109	557.75
936.122125816953	557
938.762885613447	556.25
941.402802990899	556.25
944.041878456523	559.25
946.680112516428	558.5
949.31750567563	556.25
951.954058438081	557.5
954.589771306633	556.25
957.224644783048	557.5
959.858679368044	552.5
962.491875561238	558.5
965.12423386121	557.5
967.75575476545	559
970.386438770423	561
973.016286371501	556
975.645298063046	557
978.273474338355	558
980.900815689674	562.5
983.527322608243	558.25
986.152995584245	560.75
988.777835106834	560.25
991.401841664148	557.25
994.025015743307	557.75
996.647357830407	558.5
999.268868410534	561.75
1001.88954796777	559
1004.50939698518	559.5
1007.12841594484	560.75
1009.74660532783	562.5
1012.36396561423	560
1014.98049728314	560.5
1017.59620081267	558
1020.21107667995	562.5
1022.82512536112	562
1025.43834733138	561.5
1028.05074306493	562.75
1030.66231303501	561.5
1033.27305771392	563
1035.88297757299	562.25
1038.49207308257	563.75
1041.10034471211	561.25
1043.70779293008	565
1046.31441820402	560.75
1048.92022100052	562.75
1051.52520178525	560
1054.12936102295	563.75
1056.73269917742	565.75
1059.33521671154	565.75
1061.93691408729	565.5
1064.53779176571	568
1067.13785020694	567.5
1069.73708987022	565.25
1072.33551121386	566.75
1074.93311469528	564
1077.52990077103	567
1080.12586989674	566.25
1082.72102252714	565.5
1085.31535911611	566
1087.90888011663	571.5
1090.50158598078	567.75
1093.09347715979	565.25
1095.68455410403	568.75
1098.27481726296	565
1100.86426708523	567.5
1103.45290401857	567.25
1106.04072850991	571.5
1108.6277410053	565
1111.21394194993	568.75
1113.79933178816	572
1116.3839109635	571
1118.96767991862	574.25
1121.55063909539	570.5
1124.13278893477	569.25
1126.71412987696	568.5
1129.29466236132	569.75
1131.87438682637	568.25
1134.45330370982	573.75
1137.03141344858	569.5
1139.60871647872	572
1142.18521323554	568.5
1144.7609041535	571.5
1147.33578966629	570.75
1149.90987020676	566.5
1152.48314620702	573.5
1155.05561809835	569
1157.62728631125	568
1160.19815127545	568
1162.76821341988	566
1165.33747317271	562.5
1167.90593096133	563
1170.47358721235	564
1173.04044235163	563.75
1175.60649680425	560
1178.17175099454	556.5
1180.73620534607	559.5
1183.29986028165	556
1185.86271622336	556
1188.42477359249	558
1190.98603280964	557
1193.54649429462	558.5
1196.10615846653	555.5
1198.66502574372	555.75
1201.22309654385	555.75
1203.78037128378	556.75
1206.33685037971	557.75
1208.89253424709	555.75
1211.44742330063	557.5
1214.00151795438	558
1216.55481862163	559.75
1219.10732571497	553
1221.65903964631	557.5
1224.20996082683	558.75
1226.760089667	558
1229.30942657664	555.75
1231.85797196483	558.25
1234.40572623998	554.5
1236.95268980981	559
1239.49886308136	561.25
1242.04424646098	559.25
1244.58884035435	560
1247.13264516647	560.5
1249.67566130166	561.5
1252.21788916358	564.75
1254.75932915524	563.5
1257.29998167896	563.5
1259.83984713639	564.25
1262.37892592857	563.5
1264.91721845586	571
1267.45472511795	570.25
1269.9914463139	578.5
1272.52738244213	581.5
1275.0625339004	593.5
1277.59690108587	602.75
1280.130484395	607
1282.66328422367	609.75
1285.19530096712	609.25
1287.72653501993	605
1290.25698677608	601.25
1292.78665662894	587.75
1295.31554497125	587.5
1297.8436521951	577.75
1300.37097869203	571
1302.89752485292	570.25
1305.42329106805	563.75
1307.94827772713	561.5
1310.47248521921	565
1312.99591393279	562.75
1315.51856425575	566
1318.04043657536	563.5
1320.56153127836	565
1323.08184875083	564
1325.6013893783	565.25
1328.12015354572	567.5
1330.63814163744	566.25
1333.15535403727	566.5
1335.67179112839	564.5
1338.18745329347	563
1340.70234091454	564.5
1343.21645437314	565.75
1345.72979405019	570.5
1348.24236032607	570.5
1350.75415358059	569.75
1353.26517419303	564.75
1355.7754225421	569
1358.28489900594	571.25
1360.79360396218	573.25
1363.30153778787	578.25
1365.80870085955	576
1368.31509355319	578.75
1370.82071624424	575.5
1373.32556930762	581.25
1375.8296531177	576
1378.33296804832	577
1380.83551447282	575.25
1383.33729276399	571
1385.83830329408	577.25
1388.33854643489	569.25
1390.83802255762	571
1393.33673203301	565.25
1395.83467523128	562.5
1398.33185252211	564.25
1400.82826427471	561.25
1403.32391085777	563.5
1405.81879263947	561.5
1408.31290998752	564.5
1410.80626326908	559.75
1413.29885285087	563.75
1415.79067909909	562
1418.28174237944	565.5
1420.77204305717	565.25
1423.26158149702	563.75
1425.75035806323	565.5
1428.2383731196	566.5
1430.72562702942	569.25
1433.21212015554	562.5
1435.69785286028	567
1438.18282550555	566.75
1440.66703845275	563
1443.15049206284	562.25
1445.6331866963	565.25
1448.11512271316	563.5
1450.59630047298	564.75
1453.07672033486	563.75
1455.55638265748	564.75
1458.03528779902	566.5
1460.51343611725	564.25
1462.99082796946	563.5
1465.46746371252	559.5
1467.94334370285	561.25
1470.41846829642	561.75
1472.89283784878	559.75
1475.36645271503	560.75
1477.83931324983	561.75
1480.31141980743	559.25
1482.78277274164	563.5
1485.25337240583	560.5
1487.72321915297	557.25
1490.19231333557	556.5
1492.66065530578	556.5
1495.12824541525	559
1497.5950840153	557.75
1500.06117145678	560.75
1502.52650809014	559.5
1504.99109426543	560
1507.45493033227	562.5
1509.91801663992	558.75
1512.38035353717	559.5
1514.84194137248	557.75
1517.30278049386	557.5
1519.76287124894	557.25
1522.22221398497	555.5
1524.68080904876	559.5
1527.13865678681	559
1529.59575754514	556
1532.05211166945	557.75
1534.50771950503	561.25
1536.96258139678	561
1539.41669768924	558.5
1541.87006872656	554.5
1544.32269485252	558.75
1546.77457641051	560.25
1549.22571374357	558.75
1551.67610719434	555.5
1554.12575710513	560.25
1556.57466381785	553.75
1559.02282767408	562.25
1561.47024901499	558
1563.91692818144	557.75
1566.3628655139	558
1568.80806135249	557.5
1571.252516037	560
1573.6962299068	557
1576.13920330099	562.25
1578.58143655828	556
1581.02293001704	556.75
1583.46368401528	556.75
1585.90369889071	557.5
1588.34297498065	557.75
1590.7815126221	559.5
1593.21931215173	558.5
1595.65637390588	556.75
1598.09269822053	561
1600.52828543135	558.25
1602.96313587367	559.5
1605.3972498825	561.5
1607.83062779252	560
1610.26326993808	558.5
1612.69517665322	555.25
1615.12634827165	561.75
1617.55678512676	559
1619.98648755163	558.5
1622.41545587902	562.75
1624.84369044138	557.75
1627.27119157085	561.25
1629.69795959924	563.75
1632.12399485808	564.5
1634.54929767859	565.25
1636.97386839165	562.75
1639.39770732789	566.5
1641.8208148176	565
1644.24319119078	566.5
1646.66483677715	568.75
1649.0857519061	566.75
1651.50593690677	569.75
1653.92539210795	564.25
1656.3441178382	567.75
1658.76211442575	568.25
1661.17938219855	568.25
1663.59592148428	570.5
1666.01173261032	563.5
1668.42681590377	570.75
1670.84117169145	570.5
1673.25480029991	567.5
1675.66770205541	567.5
1678.07987728393	562.75
1680.49132631119	562.75
1682.90204946263	561.75
1685.31204706342	561.75
1687.72131943846	562.25
1690.1298669124	560.75
1692.53768980957	563.25
1694.94478845411	561.5
1697.35116316982	558.75
1699.75681428031	557.5
1702.16174210887	559.75
1704.56594697858	558.5
1706.96942921222	559.75
1709.37218913235	562.5
1711.77422706125	560
1714.17554332098	562.75
1716.5761382333	558.25
1718.97601211977	557
1721.37516530169	561.75
1723.77359810006	560
1726.17131083572	558.5
1728.56830382922	561.5
1730.96457740087	559.25
1733.36013187075	559.5
1735.75496755868	559.25
1738.14908478428	564.5
1740.54248386689	561.25
1742.93516512565	564
1745.32712887946	559.75
1747.71837544697	565.25
1750.10890514662	563
1752.49871829661	557
1754.88781521492	562
1757.27619621929	561.5
1759.66386162726	558.5
1762.05081175612	560.25
1764.43704692297	561.5
1766.82256744465	560.5
1769.20737363782	560.25
1771.59146581887	560.75
1773.97484430405	560.25
1776.35750940932	560.25
1778.73946145048	556.75
1781.12070074309	560.75
1783.50122760249	559.25
1785.88104234385	564.5
1788.26014528209	560.25
1790.63853673196	559.25
1793.01621700796	561.25
1795.39318642443	558
1797.76944529549	559.25
1800.14499393503	559.25
1802.51983265681	558.25
1804.8939617743	558.5
1807.26738160085	560.75
1809.64009244957	560.25
1812.01209463339	555.25
1814.38338846504	561.5
1816.75397425706	558.75
1819.12385232181	559.25
1821.49302297142	559.75
1823.86148651789	561.5
1826.22924327299	560
1828.59629354831	559
1830.96263765526	557.25
1833.32827590507	562.25
1835.69320860877	562.5
1838.05743607724	561.5
1840.42095862113	559.5
1842.78377655097	565.5
1845.14589017707	558.5
1847.50729980956	565.75
1849.86800575843	560
1852.22800833346	561
1854.58730784427	557.75
1856.94590460032	560
1859.30379891087	560.75
1861.66099108503	561.75
1864.01748143175	558
1866.37327025978	558.5
1868.72835787773	558.5
1871.08274459403	561.25
1873.43643071697	560.75
1875.78941655464	563.5
1878.14170241498	559
1880.4932886058	559.75
1882.84417543469	557
1885.19436320915	563.25
1887.54385223646	561
1889.89264282378	559.5
1892.24073527809	560
1894.58812990625	560.75
1896.93482701493	563.75
1899.28082691067	561.75
1901.62612989984	559.5
1903.97073628868	563.75
1906.31464638326	561.5
1908.6578604895	559.25
1911.00037891321	562.75
1913.34220196	560.75
1915.68332993537	560.25
1918.02376314468	563.25
1920.36350189311	561.5
1922.70254648573	561.25
1925.04089722744	559.5
1927.37855442303	558.25
1929.71551837715	559.5
1932.05178939426	562
1934.38736777876	560.25
1936.72225383484	562.75
1939.0564478666	559.5
1941.38995017799	563.5
1943.72276107283	562.25
1946.05488085479	564
1948.38630982744	567.25
1950.71704829419	562.25
1953.04709655832	561.5
1955.376454923	563
1957.70512369126	561.5
1960.03310316599	564.25
1962.36039364999	559.75
1964.68699544589	559.5
1967.01290885622	564.25
1969.33813418338	564
1971.66267172965	559.5
1973.98652179718	560.25
1976.309684688	561.5
1978.63216070402	562.5
1980.95395014705	563.25
1983.27505331873	563.5
1985.59547052063	559.5
1987.9152020542	560.75
1990.23424822074	562.5
1992.55260932146	562.5
1994.87028565746	564
1997.18727752968	563
1999.503585239	561
2001.81920908618	562.5
2004.13414937184	565.25
2006.44840639651	564.25
2008.7619804606	562
2011.07487186442	565.75
2013.38708090815	565.25
2015.6986078919	566.5
2018.00945311564	563
2020.31961687923	560.25
2022.62909948246	564.5
2024.93790122498	564
2027.24602240636	562.5
2029.55346332604	564.25
2031.86022428337	562.5
2034.16630557761	565
2036.47170750791	563
2038.77643037331	563
2041.08047447275	560.75
2043.38384010509	564.5
2045.68652756907	569.25
2047.98853716335	562.75
2050.28986918648	565.25
2052.59052393692	563
2054.89050171302	562.25
2057.18980281306	565.25
2059.4884275352	565.25
2061.78637617753	560.5
2064.08364903802	567.5
2066.38024641457	565.25
2068.67616860497	563.25
2070.97141590694	563.75
2073.26598861809	562.5
2075.55988703595	564.75
2077.85311145796	564
2080.14566218145	565
2082.43753950371	564.75
2084.72874372188	562.75
2087.01927513307	565
2089.30913403428	561
2091.59832072241	561.5
2093.88683549429	564.25
2096.17467864666	566.75
2098.46185047619	567.5
2100.74835127944	563.5
2103.03418135292	566
2105.31934099303	561
2107.6038304961	562.25
2109.88765015838	564
2112.17080027602	562.75
2114.45328114513	562.75
2116.7350930617	566.5
2119.01623632165	563.25
2121.29671122085	566
2123.57651805505	566.25
2125.85565711996	565.25
2128.13412871117	568.5
2130.41193312424	564.75
2132.68907065462	568.5
2134.96554159771	566.75
2137.24134624881	567
2139.51648490317	568.25
2141.79095785593	571.25
2144.0647654022	565
2146.33790783698	565.5
2148.61038545524	564
2150.88219855182	566.5
2153.15334742154	570.75
2155.42383235911	569
2157.6936536592	566.75
2159.9628116164	569.25
2162.23130652522	566
2164.49913868011	563.5
2166.76630837544	569.5
2169.03281590552	567.5
2171.2986615646	565.5
2173.56384564685	565.5
2175.82836844637	568
2178.0922302572	570.5
2180.35543137332	565.75
2182.61797208862	565
2184.87985269695	566.5
2187.14107349208	562.75
2189.40163476773	565.5
2191.66153681753	567
2193.92077993507	564.25
2196.17936441386	566.75
2198.43729054735	566.5
2200.69455862894	566.75
2202.95116895194	565
2205.20712180962	564
2207.46241749519	565.25
2209.71705630179	567.25
2211.97103852248	565.25
2214.2243644503	569.5
2216.47703437819	570
2218.72904859905	565.25
2220.98040740571	571.5
2223.23111109095	565
2225.4811599475	570.25
2227.73055426799	571.5
2229.97929434504	570
2232.22738047118	571
2234.47481293889	568.5
2236.72159204058	568
2238.96771806864	571.5
2241.21319131536	571.75
2243.458012073	568.5
2245.70218063374	566.25
2247.94569728973	569.25
2250.18856233304	569.5
2252.4307760557	570.5
2254.67233874967	569.5
2256.91325070687	569.75
2259.15351221915	568.25
2261.39312357831	567
2263.63208507611	564.5
2265.87039700422	567.75
2268.1080596543	568.5
2270.34507331792	569
2272.5814382866	567.5
2274.81715485183	567.75
2277.05222330502	570.25
2279.28664393755	567.5
2281.52041704072	569.75
2283.75354290581	567.75
2285.98602182401	570.5
2288.21785408648	570.25
2290.44903998434	567.75
2292.67957980862	568
2294.90947385033	565.75
2297.1387224004	573.5
2299.36732574975	570
2301.59528418921	568.75
2303.82259800958	569.75
2306.04926750158	567.75
2308.27529295593	568.25
2310.50067466325	567.25
2312.72541291412	573
2314.9495079991	565.75
2317.17296020866	573
2319.39576983323	568.25
2321.61793716322	568.5
2323.83946248894	568
2326.06034610069	571.5
2328.28058828871	573
2330.50018934317	574.5
2332.7191495542	570.5
2334.93746921192	571.5
2337.15514860633	568.25
2339.37218802743	572.5
2341.58858776516	568.75
2343.80434810941	568.25
2346.01946935001	568.25
2348.23395177675	566.5
2350.44779567939	566.5
2352.66100134759	570
2354.87356907101	568.5
2357.08549913925	570.75
2359.29679184185	570.75
2361.50744746829	570.25
2363.71746630804	570.5
2365.92684865048	567.25
2368.13559478499	570.5
2370.34370500083	565.5
2372.55117958727	570.75
2374.75801883352	571.5
2376.96422302874	567.25
2379.16979246202	575.25
2381.37472742243	568.75
2383.57902819898	569.5
2385.78269508063	571.25
2387.98572835629	567
2390.18812831482	571.75
2392.38989524505	572.75
2394.59102943573	569
2396.79153117559	570.25
2398.9914007533	569.5
2401.19063845748	569.25
2403.38924457672	567.75
2405.58721939951	571.75
2407.78456321435	566.75
2409.98127630966	568
2412.17735897382	573
2414.37281149517	569.5
2416.56763416198	566
2418.76182726249	568
2420.95539108487	565.75
2423.14832591726	567
2425.34063204776	567.25
2427.53230976439	568.75
2429.72335935513	571
2431.91378110795	570.25
2434.10357531071	564.25
2436.29274225125	570
2438.48128221739	569
2440.66919549683	572
2442.8564823773	572.5
2445.04314314641	568
2447.22917809176	570.75
2449.4145875009	568.25
2451.59937166131	569
2453.78353086044	569.25
2455.96706538568	570
2458.14997552436	569.75
2460.33226156379	568.5
2462.51392379119	570
2464.69496249376	570.75
2466.87537795862	568
2469.05517047288	568.25
2471.23434032357	565
2473.41288779767	567.75
2475.59081318211	568.75
2477.76811676378	571.75
2479.9447988295	568.75
2482.12085966605	569.25
2484.29629956016	570.25
2486.4711187985	569.75
2488.64531766769	570.25
2490.8188964543	568.25
2492.99185544484	565.5
2495.16419492579	569.75
2497.33591518353	567.25
2499.50701650444	571.75
2501.67749917482	568.75
2503.84736348091	570.5
2506.01660970891	573
2508.18523814496	570.25
2510.35324907514	571.75
2512.52064278551	571.25
2514.68741956201	576.25
2516.85357969058	572
2519.01912345709	570.5
2521.18405114735	567.5
2523.34836304711	570.25
2525.51205944208	571.75
2527.6751406179	567
2529.83760686016	571
2531.99945845439	567.5
2534.16069568606	570.75
2536.3213188406	571
2538.48132820336	570.75
2540.64072405965	567.5
2542.79950669471	570
2544.95767639373	569.25
2547.11523344184	569.5
2549.27217812411	566.75
2551.42851072555	572
2553.58423153111	570.75
2555.73934082569	568.25
2557.89383889412	568.5
2560.04772602118	566.75
2562.20100249158	570.75
2564.35366858996	568.75
2566.50572460093	572
2568.65717080901	573
2570.80800749867	574
2572.95823495433	569.25
2575.10785346031	568.75
2577.25686330093	572.75
2579.40526476038	567.25
2581.55305812282	570.75
2583.70024367237	568.25
2585.84682169303	570
2587.99279246879	571.5
2590.13815628354	572.25
2592.28291342112	566.5
2594.42706416531	568.5
2596.5706087998	567.75
2598.71354760826	575
2600.85588087425	568.75
2602.99760888127	566.5
2605.13873191278	569.25
2607.27925025214	568.25
2609.41916418269	568.75
2611.55847398764	571.5
2613.69717995017	568
2615.83528235339	570.25
2617.97278148034	570.75
2620.10967761398	569.25
2622.2459710372	571
2624.38166203284	572.5
2626.51675088365	569.25
2628.65123787231	576
2630.78512328145	573.75
2632.9184073936	569.25
2635.05109049124	568.75
2637.18317285676	573.75
2639.31465477248	571.5
2641.44553652067	569.5
2643.5758183835	573.75
2645.70550064309	575.75
2647.83458358144	569
2649.96306748053	570.25
2652.09095262223	572.25
2654.21823928836	569.75
2656.34492776063	570
2658.47101832071	571.25
2660.59651125015	570
2662.72140683047	568.25
2664.84570534309	569.5
2666.96940706934	569.75
2669.0925122905	571.75
2671.21502128773	573.75
2673.33693434215	570.5
2675.45825173479	575
2677.57897374658	569.75
2679.69910065839	569.75
2681.818632751	573.75
2683.93757030511	572.25
2686.05591360133	571
2688.17366292021	570.75
2690.29081854218	569
2692.40738074762	571
2694.52334981681	580.5
2696.63872602995	573.5
2698.75350966713	573
2700.86770100841	574.25
2702.98130033371	574.5
2705.09430792289	569.25
2707.20672405571	575.5
2709.31854901185	576
2711.42978307091	571.5
2713.54042651238	572.75
2715.65047961567	577
2717.7599426601	572.75
2719.86881592491	573
2721.97709968924	572.25
2724.08479423213	573
2726.19189983255	576.25
2728.29841676934	575.5
2730.4043453213	572
2732.5096857671	575
2734.61443838532	578.25
2736.71860345444	574
2738.82218125286	577.5
2740.92517205889	572.75
2743.02757615072	574
2745.12939380646	574
2747.23062530411	575.5
2749.33127092159	572.5
2751.4313309367	574.5
2753.53080562716	578
2755.62969527058	577
2757.72800014448	574.25
2759.82572052625	576
2761.92285669323	571
2764.0194089226	574.5
2766.11537749147	576.25
2768.21076267686	570.25
2770.30556475566	576.5
2772.39978400465	575.75
2774.49342070054	574.25
2776.58647511991	570.75
2778.67894753923	576.5
2780.77083823487	574
2782.8621474831	573.75
2784.95287556007	573.75
2787.04302274184	574.5
2789.13258930433	580.25
2791.22157552338	577.75
2793.30998167471	579
2795.39780803392	573.5
2797.4850548765	576.75
2799.57172247786	579.75
2801.65781111324	577.5
2803.74332105781	576
2805.82825258661	577.5
2807.91260597457	575
2809.9963814965	577.25
2812.07957942711	579
2814.16220004096	576.75
2816.24424361252	574.5
2818.32571041614	578.25
2820.40660072604	581.75
2822.48691481631	576.75
2824.56665296098	582.75
2826.64581543388	580.25
2828.72440250876	579.5
2830.80241445925	580.75
2832.87985155885	580.5
2834.95671408093	580.25
2837.03300229875	579.25
2839.10871648544	581.5
2841.18385691399	583.75
2843.25842385729	588.5
2845.33241758808	579.25
2847.40583837898	577.25
2849.4786865025	582
2851.550962231	589.75
2853.6226658367	585
2855.69379759173	586.5
2857.76435776806	582.75
2859.83434663753	589.5
2861.90376447184	586
2863.97261154259	587.5
2866.0408881212	592.25
2868.10859447901	595.5
2870.17573088717	598
2872.24229761673	600
2874.30829493859	600
2876.37372312352	605
2878.43858244215	606
2880.50287316496	609.5
2882.56659556231	611.5
2884.62974990439	607.75
2886.69233646129	617.5
2888.75435550293	617
2890.81580729909	612.25
2892.87669211941	628.25
2894.93701023339	626
2896.99676191039	620.75
2899.05594741961	629.75
2901.1145670301	627.5
2903.1726210108	629
2905.23010963045	618.75
2907.28703315768	629
2909.34339186096	624
2911.39918600861	628.25
2913.45441586879	627.75
2915.50908170952	630.25
2917.56318379867	623.75
2919.61672240395	617.25
2921.66969779291	625
2923.72211023295	624
2925.77395999134	629
2927.82524733515	617
2929.87597253132	622
2931.92613584663	623.75
2933.97573754769	630
2936.02477790097	642.75
2938.07325717276	639.5
2940.1211756292	641.5
2942.16853353626	637.5
2944.21533115976	637.75
2946.26156876536	639.25
2948.30724661853	634.5
2950.3523649846	627.75
2952.39692412872	628.25
2954.44092431587	633.5
2956.48436581089	628.25
2958.52724887843	628
2960.56957378296	638.75
2962.6113407888	634
2964.65255016011	634.5
2966.69320216083	633.25
2968.73329705479	638.75
2970.77283510559	633.25
2972.81181657671	646.5
2974.8502417314	635.75
2976.88811083279	631.75
2978.92542414378	629.5
2980.96218192713	623.75
2982.99838444541	620.5
2985.034031961	615.5
2987.06912473612	608.5
2989.1036630328	609.25
2991.13764711288	605.25
2993.17107723804	607.25
2995.20395366974	600
2997.23627666931	596.75
2999.26804649782	600.75
3001.29926341624	593
3003.32992768528	593.25
3005.3600395655	596
3007.38959931726	588
3009.41860720076	590.5
3011.44706347595	597
3013.47496840263	593.5
3015.50232224041	591.75
3017.5291252487	593.25
3019.5553776867	593.5
3021.58107981344	589.25
3023.60623188773	593.25
3025.63083416822	591.25
3027.65488691331	589.5
3029.67839038125	587.75
3031.70134483007	588.75
3033.72375051759	583.25
3035.74560770144	582.75
3037.76691663907	581.25
3039.78767758768	581
3041.80789080431	579
3043.82755654577	581.75
3045.84667506867	576
3047.8652466294	581.5
3049.88327148418	579.5
3051.90074988899	576.75
3053.91768209961	577.5
3055.9340683716	579
3057.94990896033	573.5
3059.96520412095	574.75
3061.97995410838	579
3063.99415917734	573.75
3066.00781958234	572.5
3068.02093557766	573
3070.03350741738	576.5
3072.04553535535	576.75
3074.05701964521	574
3076.06796054036	572.75
3078.078358294	576
3080.08821315912	570.75
3082.09752538846	571.5
3084.10629523454	573.25
3086.11452294967	572.5
3088.12220878592	575.75
3090.12935299515	577
3092.13595582898	573
3094.1420175388	571.25
3096.14753837579	574.75
3098.15251859088	579.25
3100.15695843477	572.25
3102.16085815793	571.75
3104.16421801061	572.5
3106.16703824282	572.5
3108.16931910432	573.25
3110.17106084464	570.25
3112.17226371308	574.25
3114.17292795872	576.5
3116.17305383034	574.5
3118.17264157657	574.75
3120.17169144571	572.75
3122.17020368587	570.5
3124.16817854492	574.5
3126.16561627044	574.25
3128.16251710982	577
3130.15888131017	573
3132.15470911837	573.5
3134.15000078104	579
3136.14475654455	574.75
3138.13897665502	575.75
3140.13266135835	574
3142.12581090014	576.5
3144.11842552577	575.75
3146.11050548036	573.75
3148.10205100875	570.25
3150.09306235557	579.75
3152.08353976515	575.25
3154.07348348158	577.75
3156.06289374869	580.25
3158.05177081006	573.75
3160.04011490899	575.75
3162.02792628852	576
3164.01520519145	573.75
3166.00195186029	574.75
3167.98816653728	575.75
3169.97384946442	573
3171.95900088344	574.75
3173.94362103577	574.5
3175.92771016259	578.75
3177.91126850484	572.75
3179.89429630312	570
3181.87679379782	578
3183.85876122903	570.75
3185.84019883657	578
3187.82110685997	577
3189.80148553851	574
3191.78133511116	573.25
3193.76065581664	573.25
3195.73944789337	570
3197.7177115795	575.75
3199.6954471129	576
3201.67265473114	575
3203.64933467153	574.5
3205.62548717107	575.5
3207.60111246648	577.75
3209.57621079421	574.25
3211.55078239041	577.25
3213.52482749093	576.25
3215.49834633133	571.25
3217.4713391469	575
3219.44380617262	579
3221.41574764317	576.5
3223.38716379296	574
3225.35805485607	572.5
3227.32842106631	576
3229.29826265718	576.25
3231.26757986187	580.25
3233.2363729133	575
3235.20464204405	576.5
3237.17238748643	575
3239.13960947243	581
3241.10630823374	573
3243.07248400174	578
3245.03813700748	574.75
3247.00326748177	575.75
3248.96787565503	575.5
3250.93196175742	574.75
3252.89552601877	576
3254.8585686686	579.75
3256.82108993612	577.25
3258.78309005022	575.5
3260.74456923948	575.75
3262.70552773215	578.25
3264.66596575617	575
3266.62588353916	576.75
3268.58528130843	576
3270.54415929094	580
3272.50251771336	574.25
3274.46035680201	578.25
3276.4176767829	576
3278.37447788171	577.75
3280.33076032379	574.25
3282.28652433416	577.75
3284.24177013751	579.5
3286.1964979582	579.25
3288.15070802027	582.5
3290.10440054741	582
3292.05757576298	575.75
3294.01023389001	577.25
3295.96237515119	578.5
3297.91399976887	575.5
3299.86510796506	578.75
3301.81569996142	576
3303.76577597932	577.75
3305.7153362397	581.25
3307.66438096324	577.75
3309.61291037024	579
3311.56092468064	577
3313.50842411404	581.75
3315.45540888971	576.75
3317.40187922656	580
3319.34783534315	578.25
3321.29327745768	579
3323.23820578801	574.75
3325.18262055164	575.5
3327.1265219657	576.25
3329.06991024699	581.5
3331.01278561194	580.25
3332.95514827662	577.5
3334.89699845674	580.75
3336.83833636766	579.25
3338.77916222434	577.75
3340.71947624143	578.75
3342.65927863317	575.25
3344.59856961346	578.5
3346.53734939584	578.75
3348.47561819344	577.75
3350.41337621906	574.25
3352.35062368513	582.25
3354.28736080368	576.75
3356.22358778637	580
3358.15930484452	577
3360.09451218904	574.75
3362.02921003047	578.5
3363.96339857898	577.5
3365.89707804436	578.75
3367.83024863602	577
3369.76291056299	579
3371.69506403389	576.75
3373.62670925699	583.25
3375.55784644016	579.5
3377.4884757909	575.25
3379.41859751629	576.25
3381.34821182305	578.5
3383.27731891749	578.5
3385.20591900555	578
3387.13401229276	580.75
3389.06159898426	580.75
3390.9886792848	575.75
3392.91525339872	578.5
3394.84132152998	578.75
3396.76688388213	576.75
3398.69194065833	579.25
3400.61649206133	583.75
3402.54053829348	582
3404.46407955672	581.25
3406.3871160526	581.75
3408.30964798225	580.75
3410.23167554639	582.25
3412.15319894535	578
3414.07421837904	578
3415.99473404695	576
3417.91474614817	580.75
3419.83425488136	583.75
3421.75326044479	581
3423.67176303631	579.25
3425.58976285332	578.75
3427.50726009282	580.5
3429.42425495143	576.25
3431.34074762528	578.75
3433.25673831012	579
3435.17222720127	581
3437.08721449362	579.75
3439.00170038164	583.5
3440.91568505936	579.5
3442.82916872039	582
3444.74215155791	576
3446.65463376468	579.25
3448.566615533	579
3450.47809705476	581.75
3452.3890785214	578.75
3454.29956012393	582.25
3456.20954205293	575.75
3458.11902449853	578.75
3460.02800765041	582.75
3461.93649169784	579.5
3463.84447682962	579.75
3465.75196323412	584.5
3467.65895109925	579.5
3469.56544061249	581
3471.47143196086	575.25
3473.37692533093	577.75
3475.28192090884	580.5
3477.18641888026	580.75
3479.09041943039	578.75
3480.99392274402	581
3482.89692900545	578.25
3484.79943839853	578.5
3486.70145110666	580.5
3488.60296731277	576.25
3490.50398719933	582
3492.40451094836	580.25
3494.30453874141	580.5
3496.20407075956	581.25
3498.10310718342	579.5
