201.866871357051	622
204.754250281454	628.75
207.640596790938	629.75
210.525911876299	629.25
213.410196525689	629
216.293451724508	624.75
219.175678455485	624.5
222.056877698662	621.25
224.937050431388	626.25
227.816197628363	626.5
230.694320261602	621
233.571419300504	627.5
236.447495711764	625
239.322550459507	624.25
242.196584505182	624.5
245.069598807626	631.25
247.941594323078	629
250.812572005154	629
253.682532804884	631.75
256.551477670699	631.25
259.419407548456	630.5
262.286323381439	636
265.152226110364	639.25
268.017116673389	641.75
270.880996006115	651.25
273.743865041622	645.75
276.605724710436	657
279.466575940562	658.5
282.326419657496	662.25
285.1852567842	648.75
288.043088241157	641.75
290.899914946349	633.5
293.75573781526	632.5
296.610557760898	637.75
299.464375693817	631.5
302.317192522078	629
305.169009151297	627.25
308.019826484655	634.25
310.86964542287	628.75
313.718466864233	627.5
316.566291704614	622.5
319.413120837457	624.25
322.258955153804	623.75
325.103795542291	627.5
327.947642889128	619
330.79049807819	626.25
333.632361990927	622
336.473235506444	620.75
339.31311950145	621
342.152014850322	619.5
344.989922425062	627.75
347.826843095354	623.25
350.662777728528	625.5
353.497727189577	622.75
356.331692341195	629.75
359.164674043732	622.75
361.996673155267	633.5
364.827690531536	628
367.65772702602	634.25
370.486783489887	627.5
373.314860772047	623.75
376.14195971912	633.5
378.968081175466	625
381.793225983212	630
384.617394982201	631.25
387.44058901005	630.5
390.262808902131	628.75
393.08405549161	631.5
395.904329609395	627
398.723632084213	633.25
401.541963742569	631
404.359325408779	630.75
407.175717904938	632.75
409.991142050982	631.75
412.805598664665	625.25
415.619088561551	628
418.43161255505	640.5
421.243171456415	627.25
424.053766074758	630.5
426.863397217017	629
429.672065688024	629.5
432.479772290455	630.5
435.286517824879	631
438.092303089736	630.75
440.897128881359	629.75
443.70099599399	633
446.503905219761	633
449.305857348711	631.5
452.106853168796	632.5
454.906893465919	628.25
457.705979023885	628.25
460.504110624439	630.5
463.3012890473	623.75
466.097515070087	631
468.892789468424	629.25
471.687113015869	627
474.48048648395	624.75
477.272910642198	637.25
480.064386258109	632.25
482.854914097159	638.25
485.644494922839	632.5
488.433129496636	631.75
491.220818578047	628
494.007562924584	622.5
496.793363291785	631
499.578220433217	632
502.362135100473	627.5
505.145108043209	625.75
507.927140009098	633.75
510.708231743909	632.25
513.488383991433	635.25
516.267597493556	632.75
519.04587299022	634.25
521.82321121946	628
524.599612917398	637
527.375078818233	636.5
530.149609654287	632
532.923206155967	627.5
535.695869051804	634.5
538.467599068448	632.25
541.238396930665	627.75
544.008263361364	630.75
546.777199081578	629.5
549.545204810493	633.75
552.312281265436	633
555.078429161898	630.5
557.843649213533	632.25
560.607942132156	637
563.371308627753	627
566.133749408495	637.5
568.895265180756	639
571.655856649064	640
574.415524516189	633
577.174269483075	640.5
579.932092248884	640.25
582.688993510994	642.75
585.444973965023	632
588.200034304795	635.5
590.95417522237	632
593.70739740807	623
596.459701550433	635.25
599.21108833628	627.25
601.961558450668	636.25
604.711112576933	637.25
607.459751396673	631.5
610.207475589748	633.75
612.954285834338	634
615.700182806879	642.25
618.445167182101	637.75
621.189239633055	639.5
623.932400831087	648.5
626.674651445839	672
629.415992145303	700.75
632.156423595745	712.5
634.895946461813	690.75
637.634561406449	665
640.37226909096	649.5
643.109070174978	633.5
645.844965316508	637
648.579955171888	635.5
651.314040395846	633.5
654.047221641456	636.25
656.779499560176	630.25
659.510874801828	636
662.241348014642	631.25
664.97091984524	635.25
667.699590938606	633.5
670.427361938164	632
673.15423348573	631.75
675.880206221526	634.5
678.605280784206	636.5
681.329457810829	634.25
684.05273793692	633.75
686.775121796389	631.5
689.49661002163	635.25
692.217203243454	629.75
694.936902091144	647.75
697.655707192425	648
700.373619173493	661.25
703.09063865901	655.25
705.806766272093	653.25
708.522002634378	644.25
711.236348365946	643.25
713.94980408538	632
716.662370409762	635.5
719.374047954676	635.25
722.08483733419	632.5
724.794739160909	639.25
727.503754045949	630.75
730.21188259892	632.5
732.919125427998	634
735.625483139855	642.5
738.330956339723	633.75
741.035545631374	637
743.739251617106	625.5
746.44207489779	632.25
749.144016072852	637.5
751.845075740272	635
754.545254496603	635
757.244552936976	641
759.94297165508	635.25
762.640511243222	638.5
765.337172292249	636.5
768.032955391649	637
770.727861129482	629.25
773.421890092413	633.5
776.11504286572	635.25
778.807320033298	632.75
781.49872217765	642.75
784.18924987991	640
786.87890371984	649.75
789.567684275826	647
792.255592124908	655.25
794.94262784276	654
797.628792003703	652.75
800.314085180715	644.5
802.998507945427	650.5
805.682060868145	638.25
808.364744517821	639.75
811.046559462105	641.25
813.727506267311	649.25
816.407585498422	648.75
819.08679771913	647
821.765143491822	651
824.442623377563	651.25
827.119237936127	646.5
829.794987726003	654.75
832.469873304377	650
835.143895227167	649
837.817054048985	654.25
840.489350323205	662.25
843.160784601892	664.75
845.831357435894	666.75
848.501069374739	691.75
851.169920966753	712.25
853.837912758987	753.75
856.505045297232	774.75
859.171319126071	792
861.836734788823	758
864.501292827579	722.5
867.164993783208	681
869.827838195361	663.75
872.489826602454	660.5
875.150959541701	652.25
877.811237549104	650.25
880.470661159456	649.25
883.129230906357	647.25
885.786947322205	651.75
888.443810938206	650.75
891.099822284385	640
893.754981889586	642
896.409290281452	640.25
899.062747986485	642
901.715355529999	642.5
904.367113436154	640.25
907.01802222793	642.75
909.668082427172	640.5
912.317294554574	632
914.965659129659	643.5
917.613176670835	640.5
920.259847695364	633.75
922.90567271936	644.5
925.550652257825	635.25
928.194786824621	636.5
930.838076932512	636.5
933.480523093109	634
936.122125816953	633
938.762885613447	644.5
941.402802990899	635.75
944.041878456523	633.75
946.680112516428	636.25
949.31750567563	635
951.954058438081	637.75
954.589771306633	641.75
957.224644783048	639
959.858679368044	639.75
962.491875561238	637.5
965.12423386121	639.25
967.75575476545	639.5
970.386438770423	643.5
973.016286371501	648.5
975.645298063046	645
978.273474338355	642.5
980.900815689674	642
983.527322608243	648
986.152995584245	648
988.777835106834	656
991.401841664148	657.5
994.025015743307	658.75
996.647357830407	673.75
999.268868410534	675.75
1001.88954796777	674.5
1004.50939698518	659.25
1007.12841594484	646.25
1009.74660532783	659.25
1012.36396561423	643.75
1014.98049728314	649.75
1017.59620081267	642.25
1020.21107667995	640.75
1022.82512536112	641.75
1025.43834733138	638.5
1028.05074306493	643.25
1030.66231303501	640.25
1033.27305771392	634.75
1035.88297757299	643
1038.49207308257	639.5
1041.10034471211	638.5
1043.70779293008	642.75
1046.31441820402	643.25
1048.92022100052	643.25
1051.52520178525	642.5
1054.12936102295	639.75
1056.73269917742	647
1059.33521671154	635.5
1061.93691408729	638.25
1064.53779176571	645.25
1067.13785020694	641.5
1069.73708987022	639.25
1072.33551121386	646.25
1074.93311469528	650.25
1077.52990077103	648.5
1080.12586989674	651.25
1082.72102252714	664.75
1085.31535911611	674.75
1087.90888011663	686
1090.50158598078	717.25
1093.09347715979	723.75
1095.68455410403	730.75
1098.27481726296	705.5
1100.86426708523	696.5
1103.45290401857	676.5
1106.04072850991	679.5
1108.6277410053	681.25
1111.21394194993	687
1113.79933178816	685.5
1116.3839109635	688.75
1118.96767991862	684
1121.55063909539	674.5
1124.13278893477	671.5
1126.71412987696	668.75
1129.29466236132	661
1131.87438682637	659.25
1134.45330370982	650.5
1137.03141344858	656.5
1139.60871647872	652.75
1142.18521323554	646
1144.7609041535	650.5
1147.33578966629	644.5
1149.90987020676	644.25
1152.48314620702	645
1155.05561809835	645
1157.62728631125	635
1160.19815127545	635.75
1162.76821341988	642.25
1165.33747317271	645.25
1167.90593096133	649.5
1170.47358721235	649
1173.04044235163	650.5
1175.60649680425	656.75
1178.17175099454	653.5
1180.73620534607	660.5
1183.29986028165	657.25
1185.86271622336	663.75
1188.42477359249	659.5
1190.98603280964	653.5
1193.54649429462	656.5
1196.10615846653	647
1198.66502574372	643.25
1201.22309654385	644.5
1203.78037128378	642.75
1206.33685037971	641.25
1208.89253424709	640
1211.44742330063	639.25
1214.00151795438	639.5
1216.55481862163	638
1219.10732571497	640.25
1221.65903964631	638.25
1224.20996082683	640
1226.760089667	635.75
1229.30942657664	640
1231.85797196483	638.5
1234.40572623998	642
1236.95268980981	642.25
1239.49886308136	644.25
1242.04424646098	640
1244.58884035435	648.75
1247.13264516647	643.75
1249.67566130166	650
1252.21788916358	647.75
1254.75932915524	649.75
1257.29998167896	661
1259.83984713639	652.75
1262.37892592857	661
1264.91721845586	680.75
1267.45472511795	681.25
1269.9914463139	694
1272.52738244213	709.25
1275.0625339004	732.75
1277.59690108587	760.5
1280.130484395	786.25
1282.66328422367	793.25
1285.19530096712	799.25
1287.72653501993	815
1290.25698677608	819.25
1292.78665662894	808.75
1295.31554497125	783
1297.8436521951	764.75
1300.37097869203	725.5
1302.89752485292	705.25
1305.42329106805	696
1307.94827772713	678.75
1310.47248521921	689.5
1312.99591393279	690.25
1315.51856425575	678.5
1318.04043657536	669
1320.56153127836	663.25
1323.08184875083	670.25
1325.6013893783	649
1328.12015354572	660.5
1330.63814163744	650.5
1333.15535403727	645.75
1335.67179112839	655.75
1338.18745329347	648.5
1340.70234091454	647.5
1343.21645437314	644
1345.72979405019	645.25
1348.24236032607	648.25
1350.75415358059	651.25
1353.26517419303	656.5
1355.7754225421	642
1358.28489900594	646.25
1360.79360396218	647
1363.30153778787	646.25
1365.80870085955	650.25
1368.31509355319	642.25
1370.82071624424	650.75
1373.32556930762	654.5
1375.8296531177	649.75
1378.33296804832	647.25
1380.83551447282	641
1383.33729276399	648.5
1385.83830329408	642
1388.33854643489	650
1390.83802255762	647.5
1393.33673203301	642.25
1395.83467523128	646.75
1398.33185252211	647
1400.82826427471	647.75
1403.32391085777	650.25
1405.81879263947	651
1408.31290998752	666.5
1410.80626326908	670
1413.29885285087	674
1415.79067909909	680.25
1418.28174237944	686.75
1420.77204305717	676.75
1423.26158149702	657.25
1425.75035806323	652.5
1428.2383731196	649.75
1430.72562702942	651.75
1433.21212015554	653
1435.69785286028	658.5
1438.18282550555	662
1440.66703845275	651.25
1443.15049206284	660
1445.6331866963	655
1448.11512271316	657.75
1450.59630047298	657
1453.07672033486	655.75
1455.55638265748	663
1458.03528779902	667
1460.51343611725	666.25
1462.99082796946	660.75
1465.46746371252	666.5
1467.94334370285	660.25
1470.41846829642	650.25
1472.89283784878	654
1475.36645271503	654
1477.83931324983	648
1480.31141980743	647
1482.78277274164	650.25
1485.25337240583	651
1487.72321915297	650.5
1490.19231333557	647.5
1492.66065530578	646.5
1495.12824541525	646.25
1497.5950840153	647.25
1500.06117145678	644.25
1502.52650809014	647
1504.99109426543	653.25
1507.45493033227	642.75
1509.91801663992	650.25
1512.38035353717	647.5
1514.84194137248	645
1517.30278049386	645.5
1519.76287124894	643.25
1522.22221398497	642.75
1524.68080904876	639
1527.13865678681	650
1529.59575754514	652
1532.05211166945	648.75
1534.50771950503	647.5
1536.96258139678	648.25
1539.41669768924	644.5
1541.87006872656	636.5
1544.32269485252	645.5
1546.77457641051	647
1549.22571374357	654
1551.67610719434	649.75
1554.12575710513	652.5
1556.57466381785	648.75
1559.02282767408	653.25
1561.47024901499	643.5
1563.91692818144	646.5
1566.3628655139	651.5
1568.80806135249	652.5
1571.252516037	650.25
1573.6962299068	663.25
1576.13920330099	662
1578.58143655828	660.75
1581.02293001704	672
1583.46368401528	668
1585.90369889071	668.5
1588.34297498065	672
1590.7815126221	679.75
1593.21931215173	687.25
1595.65637390588	693.5
1598.09269822053	703
1600.52828543135	748.25
1602.96313587367	803.5
1605.3972498825	879.75
1607.83062779252	1002.5
1610.26326993808	1183.75
1612.69517665322	1330.75
1615.12634827165	1366.25
1617.55678512676	1177
1619.98648755163	983.75
1622.41545587902	832.25
1624.84369044138	740.5
1627.27119157085	716.25
1629.69795959924	688.25
1632.12399485808	682
1634.54929767859	673.75
1636.97386839165	663.25
1639.39770732789	659
1641.8208148176	657.75
1644.24319119078	659.5
1646.66483677715	658.5
1649.0857519061	649.25
1651.50593690677	654.5
1653.92539210795	664
1656.3441178382	665
1658.76211442575	657.25
1661.17938219855	652.75
1663.59592148428	654.75
1666.01173261032	653.25
1668.42681590377	658
1670.84117169145	656
1673.25480029991	664
1675.66770205541	654.5
1678.07987728393	660.25
1680.49132631119	661
1682.90204946263	657.5
1685.31204706342	665.75
1687.72131943846	665.25
1690.1298669124	667
1692.53768980957	673.25
1694.94478845411	672.75
1697.35116316982	661
1699.75681428031	671.75
1702.16174210887	682
1704.56594697858	681.25
1706.96942921222	686.25
1709.37218913235	708
1711.77422706125	725
1714.17554332098	765.25
1716.5761382333	794.25
1718.97601211977	851
1721.37516530169	914
1723.77359810006	999
1726.17131083572	1048.75
1728.56830382922	1007.5
1730.96457740087	937.75
1733.36013187075	885
1735.75496755868	822.5
1738.14908478428	794.75
1740.54248386689	766.5
1742.93516512565	743
1745.32712887946	722.25
1747.71837544697	699.5
1750.10890514662	689.75
1752.49871829661	683
1754.88781521492	674.5
1757.27619621929	672.5
1759.66386162726	665.75
1762.05081175612	668.75
1764.43704692297	665
1766.82256744465	662.75
1769.20737363782	665.5
1771.59146581887	664.75
1773.97484430405	658.5
1776.35750940932	659.25
1778.73946145048	664.5
1781.12070074309	658
1783.50122760249	660.75
1785.88104234385	660.75
1788.26014528209	660
1790.63853673196	666
1793.01621700796	663.25
1795.39318642443	657.5
1797.76944529549	663
1800.14499393503	662
1802.51983265681	662.75
1804.8939617743	661.25
1807.26738160085	659.5
1809.64009244957	662.5
1812.01209463339	659.5
1814.38338846504	664.25
1816.75397425706	661.25
1819.12385232181	665
1821.49302297142	660
1823.86148651789	662.75
1826.22924327299	662.75
1828.59629354831	656
1830.96263765526	661.25
1833.32827590507	658.75
1835.69320860877	664
1838.05743607724	658.5
1840.42095862113	658.25
1842.78377655097	658.25
1845.14589017707	658.75
1847.50729980956	654.5
1849.86800575843	654.5
1852.22800833346	659.75
1854.58730784427	661.25
1856.94590460032	660.5
1859.30379891087	667.25
1861.66099108503	660.75
1864.01748143175	664.25
1866.37327025978	658.25
1868.72835787773	661.75
1871.08274459403	658.25
1873.43643071697	659.5
1875.78941655464	659.25
1878.14170241498	660.25
1880.4932886058	665.5
1882.84417543469	659.75
1885.19436320915	663.75
1887.54385223646	661
1889.89264282378	663.5
1892.24073527809	662.5
1894.58812990625	668.75
1896.93482701493	664.75
1899.28082691067	665.75
1901.62612989984	666
1903.97073628868	656.25
1906.31464638326	660.25
1908.6578604895	661
1911.00037891321	666.5
1913.34220196	667.25
1915.68332993537	665.25
1918.02376314468	671.75
1920.36350189311	661
1922.70254648573	667.5
1925.04089722744	662
1927.37855442303	666.25
1929.71551837715	659.5
1932.05178939426	666.25
1934.38736777876	663.25
1936.72225383484	658.25
1939.0564478666	665
1941.38995017799	664.25
1943.72276107283	669
1946.05488085479	660
1948.38630982744	667.25
1950.71704829419	675
1953.04709655832	663
1955.376454923	664.5
1957.70512369126	665.75
1960.03310316599	663
1962.36039364999	664.75
1964.68699544589	664.25
1967.01290885622	655
1969.33813418338	662.75
1971.66267172965	663.5
1973.98652179718	662
1976.309684688	672.25
1978.63216070402	656.25
1980.95395014705	659.5
1983.27505331873	665
1985.59547052063	672.5
1987.9152020542	662.5
1990.23424822074	665.75
1992.55260932146	662.75
1994.87028565746	664.75
1997.18727752968	661.25
1999.503585239	666.75
2001.81920908618	670.75
2004.13414937184	666.25
2006.44840639651	668.75
2008.7619804606	670.5
2011.07487186442	672.5
2013.38708090815	679.75
2015.6986078919	665.25
2018.00945311564	665
2020.31961687923	670.25
2022.62909948246	665
2024.93790122498	669.5
2027.24602240636	664.75
2029.55346332604	668.5
2031.86022428337	676.5
2034.16630557761	676.25
2036.47170750791	675.5
2038.77643037331	670.75
2041.08047447275	667.25
2043.38384010509	668
2045.68652756907	666.25
2047.98853716335	667
2050.28986918648	672.75
2052.59052393692	669.25
2054.89050171302	673.25
2057.18980281306	671.5
2059.4884275352	674
2061.78637617753	666.5
2064.08364903802	677.25
2066.38024641457	673.5
2068.67616860497	672.25
2070.97141590694	676
2073.26598861809	678.5
2075.55988703595	667.5
2077.85311145796	672
2080.14566218145	674.75
2082.43753950371	677
2084.72874372188	674.25
2087.01927513307	676.5
2089.30913403428	668.5
2091.59832072241	672
2093.88683549429	667
2096.17467864666	676.5
2098.46185047619	673.75
2100.74835127944	665
2103.03418135292	674.5
2105.31934099303	672
2107.6038304961	678.25
2109.88765015838	677
2112.17080027602	671.25
2114.45328114513	672.5
2116.7350930617	676
2119.01623632165	681.25
2121.29671122085	675.5
2123.57651805505	680
2125.85565711996	671.25
2128.13412871117	674.75
2130.41193312424	677.25
2132.68907065462	674.25
2134.96554159771	686
2137.24134624881	675.25
2139.51648490317	681.25
2141.79095785593	677.75
2144.0647654022	680.75
2146.33790783698	681
2148.61038545524	678.5
2150.88219855182	675.5
2153.15334742154	686.75
2155.42383235911	683.5
2157.6936536592	686
2159.9628116164	672.5
2162.23130652522	674.5
2164.49913868011	672.75
2166.76630837544	685.25
2169.03281590552	683.5
2171.2986615646	683.5
2173.56384564685	683.25
2175.82836844637	677
2178.0922302572	682.25
2180.35543137332	680.75
2182.61797208862	683.75
2184.87985269695	673.75
2187.14107349208	676.25
2189.40163476773	679
2191.66153681753	679.5
2193.92077993507	686.5
2196.17936441386	680.5
2198.43729054735	682.75
2200.69455862894	685
2202.95116895194	673.5
2205.20712180962	681.25
2207.46241749519	678.5
2209.71705630179	686.75
2211.97103852248	677.5
2214.2243644503	678.5
2216.47703437819	677.5
2218.72904859905	684.5
2220.98040740571	678.75
2223.23111109095	682.5
2225.4811599475	686.75
2227.73055426799	683.5
2229.97929434504	684
2232.22738047118	680
2234.47481293889	687.5
2236.72159204058	683.75
2238.96771806864	677.25
2241.21319131536	680
2243.458012073	679.75
2245.70218063374	689.5
2247.94569728973	681.25
2250.18856233304	681.75
2252.4307760557	689
2254.67233874967	681.75
2256.91325070687	681.5
2259.15351221915	678
2261.39312357831	683.5
2263.63208507611	687.5
2265.87039700422	680
2268.1080596543	686.5
2270.34507331792	684.75
2272.5814382866	684.5
2274.81715485183	683.5
2277.05222330502	680
2279.28664393755	687.5
2281.52041704072	686
2283.75354290581	676.5
2285.98602182401	675.5
2288.21785408648	683.5
2290.44903998434	679
2292.67957980862	683.25
2294.90947385033	684.25
2297.1387224004	683.75
2299.36732574975	686
2301.59528418921	685.5
2303.82259800958	684
2306.04926750158	687.75
2308.27529295593	680.75
2310.50067466325	683.5
2312.72541291412	689.25
2314.9495079991	687.5
2317.17296020866	691.25
2319.39576983323	689
2321.61793716322	687.5
2323.83946248894	686.5
2326.06034610069	686.25
2328.28058828871	676.25
2330.50018934317	684
2332.7191495542	681.75
2334.93746921192	686
2337.15514860633	689.25
2339.37218802743	684.75
2341.58858776516	685.25
2343.80434810941	684.5
2346.01946935001	693.5
2348.23395177675	684.5
2350.44779567939	687
2352.66100134759	684.75
2354.87356907101	682.5
2357.08549913925	689.5
2359.29679184185	686
2361.50744746829	679.75
2363.71746630804	683.5
2365.92684865048	680
2368.13559478499	678.5
2370.34370500083	688.75
2372.55117958727	684.25
2374.75801883352	676.5
2376.96422302874	674.5
2379.16979246202	686.75
2381.37472742243	686
2383.57902819898	686.5
2385.78269508063	676.75
2387.98572835629	687
2390.18812831482	682.25
2392.38989524505	676.75
2394.59102943573	673.75
2396.79153117559	675.75
2398.9914007533	686.25
2401.19063845748	678.5
2403.38924457672	688
2405.58721939951	685.5
2407.78456321435	678.75
2409.98127630966	679
2412.17735897382	680
2414.37281149517	675.5
2416.56763416198	680
2418.76182726249	686
2420.95539108487	677.75
2423.14832591726	678
2425.34063204776	684.75
2427.53230976439	681
2429.72335935513	682.25
2431.91378110795	682.25
2434.10357531071	670.75
2436.29274225125	681.75
2438.48128221739	683.25
2440.66919549683	674.25
2442.8564823773	680.75
2445.04314314641	679
2447.22917809176	683
2449.4145875009	680.25
2451.59937166131	683.5
2453.78353086044	676.25
2455.96706538568	678.75
2458.14997552436	679.75
2460.33226156379	680
2462.51392379119	682.25
2464.69496249376	672
2466.87537795862	678.75
2469.05517047288	685
2471.23434032357	681.75
2473.41288779767	682
2475.59081318211	675.25
2477.76811676378	672.75
2479.9447988295	681.75
2482.12085966605	672.75
2484.29629956016	679.25
2486.4711187985	670.75
2488.64531766769	676
2490.8188964543	683.25
2492.99185544484	673
2495.16419492579	682.25
2497.33591518353	684.75
2499.50701650444	687.25
2501.67749917482	678
2503.84736348091	676.25
2506.01660970891	679
2508.18523814496	678.25
2510.35324907514	676.25
2512.52064278551	683.25
2514.68741956201	676
2516.85357969058	681.75
2519.01912345709	680
2521.18405114735	680.25
2523.34836304711	680
2525.51205944208	677.5
2527.6751406179	684
2529.83760686016	682.25
2531.99945845439	682
2534.16069568606	687
2536.3213188406	683
2538.48132820336	675.25
2540.64072405965	678
2542.79950669471	684.5
2544.95767639373	681.25
2547.11523344184	682.25
2549.27217812411	676
2551.42851072555	683
2553.58423153111	676.5
2555.73934082569	690.75
2557.89383889412	689
2560.04772602118	675.25
2562.20100249158	684.5
2564.35366858996	677.75
2566.50572460093	676.75
2568.65717080901	679.75
2570.80800749867	683.25
2572.95823495433	681.5
2575.10785346031	675.5
2577.25686330093	680.5
2579.40526476038	672.25
2581.55305812282	672
2583.70024367237	678
2585.84682169303	679.75
2587.99279246879	672
2590.13815628354	679.75
2592.28291342112	683.5
2594.42706416531	677.25
2596.5706087998	678.25
2598.71354760826	684
2600.85588087425	679
2602.99760888127	673.25
2605.13873191278	675.75
2607.27925025214	685
2609.41916418269	686
2611.55847398764	679.75
2613.69717995017	680.25
2615.83528235339	680.75
2617.97278148034	678.5
2620.10967761398	687.25
2622.2459710372	677.25
2624.38166203284	678.5
2626.51675088365	686.75
2628.65123787231	673.75
2630.78512328145	682.5
2632.9184073936	680
2635.05109049124	673.5
2637.18317285676	682.75
2639.31465477248	672.5
2641.44553652067	683.75
2643.5758183835	676.75
2645.70550064309	677
2647.83458358144	678.25
2649.96306748053	676
2652.09095262223	678.5
2654.21823928836	675.5
2656.34492776063	668.75
2658.47101832071	674.75
2660.59651125015	678.25
2662.72140683047	669.75
2664.84570534309	672
2666.96940706934	673.75
2669.0925122905	675
2671.21502128773	671
2673.33693434215	675.75
2675.45825173479	675
2677.57897374658	671.5
2679.69910065839	673.5
2681.818632751	669.5
2683.93757030511	673.5
2686.05591360133	668.25
2688.17366292021	674
2690.29081854218	673
2692.40738074762	673.75
2694.52334981681	676.25
2696.63872602995	675.25
2698.75350966713	667.25
2700.86770100841	669.5
2702.98130033371	678.25
2705.09430792289	666
2707.20672405571	668
2709.31854901185	667
2711.42978307091	669.5
2713.54042651238	669.5
2715.65047961567	672.5
2717.7599426601	663.5
2719.86881592491	670.5
2721.97709968924	669.75
2724.08479423213	676.25
2726.19189983255	671.25
2728.29841676934	670
2730.4043453213	675
2732.5096857671	669.75
2734.61443838532	668.25
2736.71860345444	668
2738.82218125286	670
2740.92517205889	667.5
2743.02757615072	673.5
2745.12939380646	672.5
2747.23062530411	671
2749.33127092159	664.5
2751.4313309367	673
2753.53080562716	674
2755.62969527058	670.5
2757.72800014448	670.25
2759.82572052625	670.5
2761.92285669323	669.5
2764.0194089226	664.25
2766.11537749147	669
2768.21076267686	674
2770.30556475566	672
2772.39978400465	676.5
2774.49342070054	673.25
2776.58647511991	665
2778.67894753923	676.25
2780.77083823487	671.75
2782.8621474831	671
2784.95287556007	666.25
2787.04302274184	671
2789.13258930433	673.75
2791.22157552338	671.25
2793.30998167471	667.75
2795.39780803392	671.75
2797.4850548765	674.5
2799.57172247786	667.25
2801.65781111324	677.25
2803.74332105781	675.25
2805.82825258661	665.75
2807.91260597457	666
2809.9963814965	676.75
2812.07957942711	668.75
2814.16220004096	675.75
2816.24424361252	671.5
2818.32571041614	673
2820.40660072604	671.25
2822.48691481631	668.25
2824.56665296098	674.25
2826.64581543388	672.75
2828.72440250876	666.5
2830.80241445925	669.25
2832.87985155885	676.75
2834.95671408093	662.5
2837.03300229875	670.5
2839.10871648544	671.5
2841.18385691399	668
2843.25842385729	665.25
2845.33241758808	664
2847.40583837898	672.75
2849.4786865025	669.5
2851.550962231	675
2853.6226658367	674.25
2855.69379759173	674.75
2857.76435776806	674
2859.83434663753	678.5
2861.90376447184	671.5
2863.97261154259	679
2866.0408881212	668
2868.10859447901	682
2870.17573088717	671.75
2872.24229761673	676.25
2874.30829493859	683.75
2876.37372312352	680
2878.43858244215	682
2880.50287316496	672.75
2882.56659556231	685.25
2884.62974990439	672.5
2886.69233646129	682
2888.75435550293	686.75
2890.81580729909	683
2892.87669211941	683.5
2894.93701023339	682.5
2896.99676191039	681.25
2899.05594741961	681.75
2901.1145670301	681.75
2903.1726210108	695.5
2905.23010963045	699
2907.28703315768	699.25
2909.34339186096	696
2911.39918600861	697.5
2913.45441586879	692
2915.50908170952	691.75
2917.56318379867	691
2919.61672240395	685
2921.66969779291	691.5
2923.72211023295	686.25
2925.77395999134	679.5
2927.82524733515	684.25
2929.87597253132	688.75
2931.92613584663	691.5
2933.97573754769	687.5
2936.02477790097	689
2938.07325717276	690.75
2940.1211756292	689.75
2942.16853353626	693
2944.21533115976	700.25
2946.26156876536	694.5
2948.30724661853	700
2950.3523649846	703.25
2952.39692412872	708.75
2954.44092431587	714.75
2956.48436581089	721.25
2958.52724887843	728.5
2960.56957378296	734.75
2962.6113407888	738.25
2964.65255016011	741.25
2966.69320216083	746.75
2968.73329705479	731
2970.77283510559	727.75
2972.81181657671	726.75
2974.8502417314	721.75
2976.88811083279	721.25
2978.92542414378	710.25
2980.96218192713	703.75
2982.99838444541	713.25
2985.034031961	708
2987.06912473612	712.5
2989.1036630328	706.25
2991.13764711288	708.25
2993.17107723804	706.5
2995.20395366974	718.5
2997.23627666931	713.5
2999.26804649782	718.5
3001.29926341624	708.5
3003.32992768528	709.25
3005.3600395655	714
3007.38959931726	708.75
3009.41860720076	703.5
3011.44706347595	699.75
3013.47496840263	692.75
3015.50232224041	695.75
3017.5291252487	694.5
3019.5553776867	689.5
3021.58107981344	697.25
3023.60623188773	688.75
3025.63083416822	679.25
3027.65488691331	684.75
3029.67839038125	689.5
3031.70134483007	692.75
3033.72375051759	690
3035.74560770144	678.5
3037.76691663907	683.5
3039.78767758768	687.75
3041.80789080431	680.25
3043.82755654577	683.25
3045.84667506867	673.25
3047.8652466294	685.5
3049.88327148418	678.25
3051.90074988899	688.25
3053.91768209961	687
3055.9340683716	686
3057.94990896033	693.25
3059.96520412095	695.5
3061.97995410838	709.5
3063.99415917734	716.5
3066.00781958234	725.75
3068.02093557766	734.5
3070.03350741738	743.75
3072.04553535535	758
3074.05701964521	765.5
3076.06796054036	772.75
3078.078358294	797
3080.08821315912	825.25
3082.09752538846	813.5
3084.10629523454	796.25
3086.11452294967	763.5
3088.12220878592	748.5
3090.12935299515	724.25
3092.13595582898	711
3094.1420175388	705
3096.14753837579	692.75
3098.15251859088	695.25
3100.15695843477	698.25
3102.16085815793	686.5
3104.16421801061	683.25
3106.16703824282	687.5
3108.16931910432	689.75
3110.17106084464	680
3112.17226371308	678.5
3114.17292795872	678.25
3116.17305383034	689.75
3118.17264157657	674
3120.17169144571	680.25
3122.17020368587	682.5
3124.16817854492	680.75
3126.16561627044	681.25
3128.16251710982	680.25
3130.15888131017	676
3132.15470911837	672.5
3134.15000078104	678.75
3136.14475654455	675.25
3138.13897665502	676.75
3140.13266135835	683.25
3142.12581090014	675.25
3144.11842552577	676.75
3146.11050548036	673.75
3148.10205100875	677.25
3150.09306235557	680.25
3152.08353976515	684.5
3154.07348348158	674.75
3156.06289374869	674
3158.05177081006	676.75
3160.04011490899	674.75
3162.02792628852	682.25
3164.01520519145	676.5
3166.00195186029	680
3167.98816653728	676
3169.97384946442	675.25
3171.95900088344	677.25
3173.94362103577	666.75
3175.92771016259	675
3177.91126850484	679.25
3179.89429630312	673.75
3181.87679379782	674.5
3183.85876122903	675.5
3185.84019883657	679.75
3187.82110685997	678
3189.80148553851	668.5
3191.78133511116	680.75
3193.76065581664	680.75
3195.73944789337	672.75
3197.7177115795	674.25
3199.6954471129	675.5
3201.67265473114	676.75
3203.64933467153	672.5
3205.62548717107	682
3207.60111246648	676.25
3209.57621079421	676
3211.55078239041	677.25
3213.52482749093	678.5
3215.49834633133	684.75
3217.4713391469	683
3219.44380617262	693
3221.41574764317	680.25
3223.38716379296	682.5
3225.35805485607	692.25
3227.32842106631	689
3229.29826265718	688.25
3231.26757986187	686.5
3233.2363729133	678.25
3235.20464204405	678.25
3237.17238748643	681.5
3239.13960947243	669.75
3241.10630823374	683.5
3243.07248400174	671.75
3245.03813700748	680.75
3247.00326748177	685.25
3248.96787565503	680.5
3250.93196175742	676.25
3252.89552601877	672
3254.8585686686	677
3256.82108993612	679.5
3258.78309005022	671.5
3260.74456923948	673.25
3262.70552773215	673
3264.66596575617	678.25
3266.62588353916	677
3268.58528130843	671
3270.54415929094	677.5
3272.50251771336	679.5
3274.46035680201	670.5
3276.4176767829	683.25
3278.37447788171	676.75
3280.33076032379	678
3282.28652433416	679.25
3284.24177013751	673.5
3286.1964979582	678
3288.15070802027	683.75
3290.10440054741	680.5
3292.05757576298	681.25
3294.01023389001	686.5
3295.96237515119	682
3297.91399976887	679.75
3299.86510796506	676
3301.81569996142	677.5
3303.76577597932	674.25
3305.7153362397	676.75
3307.66438096324	681.25
3309.61291037024	674.25
3311.56092468064	678.5
3313.50842411404	676
3315.45540888971	675.5
3317.40187922656	680.5
3319.34783534315	678.75
3321.29327745768	678
3323.23820578801	677.25
3325.18262055164	676
3327.1265219657	683.5
3329.06991024699	670.75
3331.01278561194	678.25
3332.95514827662	680.75
3334.89699845674	684
3336.83833636766	677.5
3338.77916222434	677.75
3340.71947624143	677.25
3342.65927863317	669.25
3344.59856961346	683.75
3346.53734939584	675.25
3348.47561819344	675.5
3350.41337621906	679
3352.35062368513	679.75
3354.28736080368	681
3356.22358778637	674.75
3358.15930484452	675.5
3360.09451218904	683.75
3362.02921003047	673.25
3363.96339857898	682.5
3365.89707804436	676.5
3367.83024863602	674.5
3369.76291056299	667.75
3371.69506403389	678.25
3373.62670925699	672
3375.55784644016	674.5
3377.4884757909	679.25
3379.41859751629	676
3381.34821182305	675
3383.27731891749	679
3385.20591900555	672.5
3387.13401229276	675
3389.06159898426	678.5
3390.9886792848	674.25
3392.91525339872	681.75
3394.84132152998	669.75
3396.76688388213	673.25
3398.69194065833	679.25
3400.61649206133	675
3402.54053829348	684.25
3404.46407955672	673.5
3406.3871160526	682
3408.30964798225	691.75
3410.23167554639	683.5
3412.15319894535	682
3414.07421837904	678.5
3415.99473404695	681.5
3417.91474614817	675.25
3419.83425488136	682.5
3421.75326044479	677.25
3423.67176303631	675.75
3425.58976285332	668.5
3427.50726009282	678.5
3429.42425495143	678.75
3431.34074762528	672.25
3433.25673831012	673.75
3435.17222720127	668
3437.08721449362	681.5
3439.00170038164	677.5
3440.91568505936	674
3442.82916872039	670.75
3444.74215155791	676.75
3446.65463376468	679
3448.566615533	676.5
3450.47809705476	672.25
3452.3890785214	681.25
3454.29956012393	672
3456.20954205293	676.5
3458.11902449853	675
3460.02800765041	673.5
3461.93649169784	670.5
3463.84447682962	674.75
3465.75196323412	668.75
3467.65895109925	676.75
3469.56544061249	678.5
3471.47143196086	670
3473.37692533093	676
3475.28192090884	670.25
3477.18641888026	670
3479.09041943039	681.25
3480.99392274402	680
3482.89692900545	679
3484.79943839853	670.75
3486.70145110666	675.5
3488.60296731277	673.5
3490.50398719933	676
3492.40451094836	669
3494.30453874141	671.5
3496.20407075956	676.75
3498.10310718342	669.25
