
200.090469251521	1624
202.974751419364	1641
205.858021632265	1561
208.740280737522	1615
211.621529580445	1600
214.501769004372	1543
217.380999850628	1560
220.259222958593	1522
223.136439165649	1526
226.012649307235	1499
228.887854216822	1517
231.762054725918	1479
234.635251664113	1479
237.507445859023	1483
240.378638136347	1490
243.248829319856	1524
246.118020231373	1518
248.986211690827	1529
251.853404516227	1558
254.719599523657	1551
257.584797527337	1540
260.448999339541	1555
263.312205770686	1554
266.174417629303	1491
269.035635722017	1534
271.89586085361	1532
274.755093826979	1506
277.613335443147	1494
280.470586501312	1481
283.326847798768	1465
286.18212013102	1474
289.036404291687	1466
291.889701072576	1461
294.742011263643	1431
297.593335653049	1429
300.443675027094	1418
303.293030170298	1430
306.141401865367	1445
308.988790893176	1394
311.835198032838	1390
314.680624061637	1457
317.525069755113	1457
320.36853588697	1459
323.211023229181	1434
326.052532551923	1462
328.893064623606	1437
331.732620210886	1447
334.571200078671	1481
337.408804990093	1409
340.245435706565	1458
343.081092987735	1413
345.915777591524	1432
348.749490274149	1406
351.582231790051	1387
354.414002892	1409
357.244804331024	1389
360.074636856445	1410
362.903501215886	1394
365.731398155266	1428
368.558328418816	1418
371.384292749062	1458
374.209291886871	1492
377.033326571409	1453
379.856397540173	1543
382.678505529011	1570
385.499651272066	1595
388.319835501873	1631
391.139058949262	1667
393.957322343455	1676
396.774626412012	1727
399.590971880849	1733
402.406359474259	1740
405.220789914895	1757
408.034263923803	1716
410.846782220402	1684
413.658345522482	1673
416.468954546245	1609
419.278610006279	1577
422.087312615559	1568
424.895063085505	1510
427.701862125904	1464
430.507710444984	1436
433.312608749369	1397
436.116557744146	1394
438.919558132792	1380
441.72161061724	1372
444.522715897858	1401
447.322874673459	1378
450.122087641299	1339
452.920355497093	1360
455.71767893501	1356
458.514058647682	1368
461.30949532622	1399
464.10398966019	1388
466.897542337651	1397
469.690154045117	1411
472.481825467627	1356
475.272557288677	1362
478.062350190282	1381
480.851204852952	1339
483.639121955686	1399
486.426102176009	1409
489.212146189958	1390
491.997254672092	1414
494.781428295473	1405
497.564667731718	1377
500.346973650961	1380
503.12834672188	1372
505.908787611691	1414
508.688296986151	1428
511.466875509572	1381
514.244523844834	1362
517.021242653355	1390
519.797032595132	1352
522.571894328732	1340
525.34582851128	1374
528.118835798493	1331
530.890916844657	1294
533.66207230267	1310
536.432302823987	1322
539.201609058685	1348
541.969991655422	1325
544.737451261476	1312
547.503988522724	1333
550.269604083663	1366
553.034298587396	1350
555.798072675669	1360
558.560926988819	1373
561.322862165851	1401
564.083878844371	1433
566.843977660657	1456
569.603159249605	1468
572.361424244772	1497
575.118773278369	1565
577.875206981241	1505
580.630725982908	1466
583.385330911566	1428
586.139022394078	1370
588.891801055957	1362
591.643667521408	1343
594.394622413318	1314
597.144666353275	1313
599.893799961513	1365
602.642023857012	1298
605.389338657416	1307
608.13574497909	1304
610.881243437093	1308
613.625834645192	1305
616.369519215883	1308
619.112297760377	1353
621.854170888605	1408
624.595139209227	1494
627.335203329614	1751
630.074363855917	2014
632.81262139299	2282
635.549976544439	2394
638.286429912615	2178
641.021982098637	1858
643.756633702364	1546
646.490385322412	1400
649.223237556177	1334
651.955190999809	1307
654.686246248224	1322
657.416403895136	1302
660.145664533012	1267
662.874028753135	1300
665.601497145537	1289
668.328070299073	1296
671.05374880138	1313
673.778533238886	1303
676.502424196839	1326
679.225422259297	1314
681.947528009102	1344
684.66874202793	1310
687.389064896282	1366
690.108497193467	1378
692.827039497622	1475
695.544692385727	1625
698.261456433588	1886
700.97733221585	2330
703.692320305984	2677
706.406421276339	2624
709.119635698082	2340
711.831964141257	2047
714.543407174743	1741
717.253965366306	1675
719.963639282554	1677
722.672429488964	1699
725.380336549907	1822
728.087361028599	1951
730.793503487167	2091
733.498764486595	2104
736.203144586759	2078
738.906644346449	1829
741.609264323313	1706
744.311005073915	1617
747.01186715373	1565
749.711851117123	1512
752.410957517377	1535
755.109186906677	1533
757.806539836135	1523
760.503016855782	1512
763.198618514553	1530
765.893345360349	1541
768.587197939965	1519
771.280176799143	1453
773.972282482569	1456
776.66351553386	1468
779.353876495577	1438
782.043365909243	1430
784.731984315328	1447
787.419732253236	1414
790.106610261368	1402
792.792618877059	1417
795.477758636619	1386
798.162030075316	1391
800.845433727424	1448
803.527970126152	1502
806.209639803714	1615
808.890443291307	1754
811.5703811191	1784
814.249453816264	1845
816.927661910961	1860
819.605005930361	1844
822.281486400606	1913
824.957103846867	1963
827.631858793319	2004
830.305751763137	1957
832.978783278521	1905
835.650953860679	1812
838.322264029851	1662
840.992714305294	1644
843.662305205292	1587
846.331037247159	1564
848.998910947244	1602
851.665926820937	1544
854.332085382674	1641
856.997387145915	1580
859.661832623193	1561
862.325422326067	1546
864.988156765174	1539
867.650036450184	1571
870.311061889847	1677
872.971233591961	1752
875.630552063409	2047
878.28901781013	2327
880.946631337141	2936
883.603393148535	3449
886.259303747486	3720
888.914363636247	3702
891.568573316158	3347
894.22193328767	2589
896.874444050283	2056
899.526106102627	1714
902.176919942417	1574
904.826886066483	1492
907.47600497075	1490
910.124277150257	1518
912.771703099131	1582
915.418283310643	1672
918.064018277177	1757
920.708908490222	1794
923.352954440405	1683
925.996156617489	1616
928.638515510336	1609
931.280031606966	1516
933.920705394522	1599
936.560537359305	1586
939.19952798674	1547
941.837677761394	1538
944.474987167007	1553
947.111456686439	1474
949.747086801736	1461
952.381877994073	1386
955.015830743793	1420
957.648945530419	1440
960.281222832634	1393
962.912663128263	1376
965.543266894337	1384
968.173034607059	1354
970.80196674178	1366
973.430063773072	1361
976.057326174661	1333
978.683754419475	1347
981.309348979625	1337
983.934110326421	1374
986.558038930362	1353
989.181135261147	1399
991.803399787692	1411
994.424832978086	1435
997.045435299653	1503
999.665207218908	1523
1002.2841492016	1593
1004.90226171266	1603
1007.51954521628	1600
1010.13600017584	1593
1012.75162705397	1487
1015.3664263125	1480
1017.98039841251	1528
1020.5935438143	1486
1023.20586297741	1518
1025.81735636063	1481
1028.42802442196	1432
1031.03786761869	1390
1033.64688640732	1334
1036.2550812436	1376
1038.86245258256	1367
1041.46900087844	1364
1044.07472658479	1360
1046.67963015438	1378
1049.28371203926	1407
1051.88697269076	1386
1054.48941255943	1365
1057.09103209513	1388
1059.691831747	1380
1062.29181196343	1377
1064.89097319211	1394
1067.48931587999	1382
1070.08684047333	1386
1072.68354741766	1431
1075.2794371578	1499
1077.87451013787	1512
1080.46876680127	1511
1083.06220759071	1533
1085.65483294822	1556
1088.24664331509	1550
1090.83763913194	1496
1093.4278208387	1567
1096.01718887459	1649
1098.60574367818	1783
1101.19348568732	2013
1103.78041533919	2362
1106.3665330703	2791
1108.95183931646	3212
1111.53633451284	3178
1114.12001909391	2949
1116.70289349349	2541
1119.28495814471	2096
1121.86621348006	1827
1124.44665993134	1652
1127.02629792974	1607
1129.60512790574	1560
1132.18315028919	1540
1134.76036550929	1509
1137.3367739946	1509
1139.912376173	1612
1142.48717247176	1605
1145.06116331749	1627
1147.63434913616	1665
1150.20673035312	1617
1152.77830739307	1604
1155.34908068007	1598
1157.91905063757	1645
1160.48821768838	1681
1163.05658225471	1721
1165.6241447581	1815
1168.19090561951	1901
1170.75686525927	2051
1173.32202409709	2287
1175.88638255206	2547
1178.44994104269	2781
1181.01269998685	2632
1183.57465980182	2321
1186.13582090427	1978
1188.69618371026	1867
1191.25574863529	1829
1193.8145160942	1796
1196.37248650129	1815
1198.92966027025	1783
1201.48603781417	1779
1204.04161954556	1756
1206.59640587635	1779
1209.15039721788	1846
1211.70359398092	1993
1214.25599657564	2073
1216.80760541166	2276
1219.35842089801	2468
1221.90844344314	2640
1224.45767345496	2705
1227.00611134077	2906
1229.55375750736	2987
1232.10061236092	3052
1234.64667630707	3121
1237.1919497509	3025
1239.73643309692	3021
1242.28012674912	2901
1244.82303111089	2781
1247.36514658511	2667
1249.90647357411	2529
1252.44701247964	2311
1254.98676370294	2137
1257.52572764469	1956
1260.06390470506	1857
1262.60129528365	1767
1265.13789977955	1677
1267.67371859128	1691
1270.20875211688	1665
1272.74300075384	1651
1275.2764648991	1642
1277.80914494911	1640
1280.34104129979	1647
1282.87215434652	1716
1285.40248448419	1733
1287.93203210715	1787
1290.46079760927	1818
1292.98878138385	1772
1295.51598382375	1765
1298.04240532127	1739
1300.56804626823	1711
1303.09290705594	1690
1305.6169880752	1668
1308.14028971632	1713
1310.66281236913	1713
1313.18455642292	1630
1315.70552226653	1532
1318.22571028829	1499
1320.74512087603	1496
1323.26375441711	1492
1325.7816112984	1462
1328.29869190629	1485
1330.81499662667	1497
1333.33052584497	1485
1335.84527994613	1496
1338.35925931464	1460
1340.87246433447	1489
1343.38489538916	1539
1345.89655286177	1492
1348.40743713487	1489
1350.91754859059	1491
1353.42688761059	1487
1355.93545457606	1494
1358.44324986772	1484
1360.95027386588	1520
1363.45652695032	1534
1365.96200950043	1512
1368.4667218951	1502
1370.97066451281	1502
1373.47383773156	1518
1375.97624192891	1542
1378.47787748199	1523
1380.97874476746	1537
1383.47884416157	1553
1385.9781760401	1526
1388.4767407784	1549
1390.9745387514	1505
1393.47157033358	1511
1395.96783589898	1541
1398.46333582124	1522
1400.95807047355	1479
1403.45204022865	1531
1405.94524545889	1516
1408.4376865362	1524
1410.92936383205	1583
1413.42027771753	1561
1415.91042856328	1500
1418.39981673955	1545
1420.88844261615	1501
1423.37630656249	1522
1425.86340894757	1501
1428.34975013999	1520
1430.83533050792	1483
1433.32015041912	1536
1435.80421024098	1612
1438.28751034046	1633
1440.77005108411	1703
1443.25183283812	1731
1445.73285596824	1786
1448.21312083984	1781
1450.69262781791	1756
1453.17137726702	1782
1455.64936955137	1749
1458.12660503477	1735
1460.60308408063	1822
1463.07880705198	1846
1465.55377431145	1906
1468.02798622133	1794
1470.50144314349	1684
1472.97414543941	1682
1475.44609347025	1645
1477.91728759673	1599
1480.38772817924	1555
1482.85741557777	1578
1485.32635015194	1557
1487.79453226103	1524
1490.26196226392	1561
1492.72864051911	1500
1495.1945673848	1554
1497.65974321875	1557
1500.1241683784	1553
1502.58784322083	1602
1505.05076810274	1628
1507.51294338049	1633
1509.97436941009	1616
1512.43504654718	1600
1514.89497514704	1556
1517.35415556462	1578
1519.8125881545	1563
1522.27027327095	1554
1524.72721126785	1486
1527.18340249875	1555
1529.63884731684	1544
1532.09354607502	1520
1534.5474991258	1544
1537.00070682136	1523
1539.45316951355	1565
1541.90488755388	1515
1544.35586129354	1529
1546.80609108336	1555
1549.25557727385	1550
1551.70432021519	1587
1554.15232025725	1594
1556.59957774954	1574
1559.04609304125	1578
1561.49186648127	1535
1563.93689841815	1599
1566.38118920011	1588
1568.82473917506	1622
1571.2675486906	1603
1573.70961809399	1645
1576.15094773219	1727
1578.59153795185	1730
1581.03138909928	1833
1583.47050152051	2012
1585.90887556123	2107
1588.34651156686	2386
1590.78340988246	2591
1593.21957085283	2756
1595.65499482245	2971
1598.08968213547	3291
1600.52363313578	3579
1602.95684816695	3667
1605.38932757224	3472
1607.82107169462	3178
1610.25208087678	2755
1612.68235546107	2352
1615.1118957896	2126
1617.54070220415	2041
1619.96877504622	1882
1622.39611465702	1870
1624.82272137746	1783
1627.24859554818	1791
1629.67373750953	1693
1632.09814760155	1693
1634.52182616404	1729
1636.94477353648	1695
1639.36699005807	1706
1641.78847606776	1615
1644.20923190419	1591
1646.62925790573	1625
1649.04855441048	1584
1651.46712175628	1585
1653.88496028066	1597
1656.3020703209	1607
1658.71845221401	1590
1661.13410629671	1611
1663.54903290548	1608
1665.96323237649	1595
1668.37670504571	1592
1670.78945124877	1572
1673.20147132109	1599
1675.61276559779	1608
1678.02333441377	1608
1680.43317810362	1582
1682.84229700171	1606
1685.25069144213	1582
1687.65836175872	1603
1690.06530828507	1583
1692.47153135451	1634
1694.8770313001	1602
1697.28180845468	1631
1699.6858631508	1637
1702.08919572081	1610
1704.49180649676	1628
1706.89369581049	1645
1709.29486399356	1606
1711.69531137731	1598
1714.09503829282	1608
1716.49404507096	1605
1718.89233204229	1603
1721.28989953721	1583
1723.68674788581	1645
1726.08287741798	1606
1728.47828846338	1602
1730.87298135139	1607
1733.26695641119	1596
1735.66021397173	1611
1738.05275436169	1596
1740.44457790955	1587
1742.83568494355	1613
1745.22607579168	1614
1747.61575078175	1582
1750.00471024128	1586
1752.39295449761	1587
1754.78048387783	1659
1757.16729870881	1625
1759.5533993172	1668
1761.93878602942	1693
1764.32345917168	1762
1766.70741906995	1804
1769.09066604999	1898
1771.47320043736	1899
1773.85502255735	1919
1776.2361327351	1951
1778.61653129548	1919
1780.99621856318	1836
1783.37519486264	1851
1785.75346051813	1793
1788.13101585368	1774
1790.50786119311	1757
1792.88399686002	1764
1795.25942317785	1716
1797.63414046977	1650
1800.00814905878	1671
1802.38144926766	1696
1804.75404141898	1675
1807.12592583514	1636
1809.49710283829	1698
1811.86757275039	1690
1814.23733589322	1665
1816.60639258834	1648
1818.97474315712	1626
1821.34238792073	1667
1823.70932720012	1696
1826.07556131608	1692
1828.44109058918	1626
1830.8059153398	1611
1833.17003588812	1632
1835.53345255413	1662
1837.89616565765	1688
1840.25817551827	1642
1842.61948245541	1723
1844.9800867883	1642
1847.33998883598	1674
1849.6991889173	1641
1852.05768735091	1649
1854.4154844553	1645
1856.77258054875	1665
1859.12897594938	1670
1861.48467097511	1693
1863.83966594367	1680
1866.19396117261	1683
1868.54755697932	1664
1870.90045368099	1717
1873.25265159463	1671
1875.60415103708	1677
1877.95495232501	1692
1880.30505577487	1708
1882.65446170299	1678
1885.00317042549	1731
1887.35118225832	1689
1889.69849751726	1688
1892.04511651792	1731
1894.39103957574	1737
1896.73626700596	1707
1899.08079912369	1717
1901.42463624384	1750
1903.76777868116	1763
1906.11022675025	1715
1908.4519807655	1774
1910.79304104117	1738
1913.13340789134	1772
1915.47308162993	1739
1917.81206257067	1787
1920.15035102718	1763
1922.48794731286	1753
1924.82485174096	1760
1927.16106462461	1753
1929.49658627672	1750
1931.83141701008	1770
1934.1655571373	1763
1936.49900697085	1766
1938.83176682301	1724
1941.16383700594	1748
1943.49521783161	1787
1945.82590961186	1763
1948.15591265835	1764
1950.48522728262	1757
1952.81385379602	1751
1955.14179250976	1762
1957.46904373489	1741
1959.79560778233	1805
1962.12148496284	1750
1964.44667558701	1796
1966.77117996529	1763
1969.094998408	1759
1971.41813122527	1826
1973.74057872714	1789
1976.06234122345	1776
1978.38341902391	1765
1980.7038124381	1756
1983.02352177544	1812
1985.34254734518	1837
1987.66088945649	1839
1989.97854841833	1842
1992.29552453956	1813
1994.61181812887	1815
1996.92742949483	1852
1999.24235894586	1799
2001.55660679023	1829
2003.87017333609	1832
2006.18305889143	1871
2008.49526376413	1849
2010.80678826189	1839
2013.1176326923	1872
2015.42779736282	1867
2017.73728258075	1887
2020.04608865326	1889
2022.35421588741	1898
2024.66166459008	1942
2026.96843506807	1894
2029.274527628	1876
2031.57994257638	1925
2033.88468021957	1884
2036.18874086383	1894
2038.49212481526	1925
2040.79483237983	1905
2043.0968638634	1946
2045.39821957169	1934
2047.69889981028	1918
2049.99890488462	1899
2052.29823510007	1945
2054.59689076181	1937
2056.89487217492	1969
2059.19217964437	1930
2061.48881347497	1974
2063.7847739714	1939
2066.08006143827	1970
2068.37467618	1887
2070.66861850093	1965
2072.96188870527	1922
2075.25448709708	1936
2077.54641398031	1953
2079.83766965881	1923
2082.12825443629	1947
2084.41816861634	1940
2086.70741250242	1963
2088.99598639789	1932
2091.28389060597	1954
2093.57112542978	1967
2095.85769117232	1949
2098.14358813644	1972
2100.42881662491	1948
2102.71337694037	2007
2104.99726938533	1955
2107.28049426219	1992
2109.56305187326	2019
2111.84494252069	1962
2114.12616650655	1944
2116.40672413278	2051
2118.68661570121	2011
2120.96584151355	2039
2123.24440187139	2041
2125.52229707622	2028
2127.79952742943	2030
2130.07609323227	2033
2132.35199478588	2043
2134.62723239132	2020
2136.90180634949	2071
2139.17571696123	2035
2141.44896452723	2136
2143.72154934809	2112
2145.9934717243	2067
2148.26473195623	2077
2150.53533034415	2162
2152.80526718822	2085
2155.07454278848	2061
2157.3431574449	2106
2159.61111145728	2163
2161.87840512538	2161
2164.1450387488	2096
2166.41101262707	2086
2168.67632705959	2172
2170.94098234567	2127
2173.20497878451	2121
2175.4683166752	2194
2177.73099631673	2163
2179.99301800797	2144
2182.25438204773	2125
2184.51508873466	2153
2186.77513836735	2117
2189.03453124427	2135
2191.29326766378	2204
2193.55134792416	2136
2195.80877232355	2177
2198.06554116004	2176
2200.32165473157	2171
2202.577113336	2142
2204.83191727111	2191
2207.08606683453	2221
2209.33956232384	2195
2211.59240403649	2220
2213.84459226982	2168
2216.09612732112	2210
2218.34700948753	2178
2220.59723906612	2168
2222.84681635385	2213
2225.09574164758	2254
2227.34401524408	2223
2229.59163744002	2272
2231.83860853197	2278
2234.08492881639	2221
2236.33059858968	2251
2238.5756181481	2251
2240.81998778785	2271
2243.06370780499	2289
2245.30677849555	2287
2247.54920015539	2288
2249.79097308033	2303
2252.03209756607	2246
2254.27257390822	2323
2256.51240240228	2294
2258.75158334369	2259
2260.99011702777	2310
2263.22800374976	2322
2265.46524380477	2279
2267.70183748787	2232
2269.93778509399	2303
2272.17308691801	2261
2274.40774325467	2371
2276.64175439866	2370
2278.87512064454	2302
2281.10784228682	2326
2283.33991961987	2327
2285.571352938	2326
2287.80214253541	2264
2290.03228870623	2351
2292.26179174449	2310
2294.4906519441	2342
2296.71886959893	2387
2298.94644500271	2379
2301.1733784491	2359
2303.39967023169	2372
2305.62532064395	2370
2307.85032997926	2401
2310.07469853093	2395
2312.29842659216	2348
2314.52151445608	2454
2316.7439624157	2403
2318.96577076398	2476
2321.18693979374	2403
2323.40746979777	2419
2325.62736106873	2421
2327.8466138992	2503
2330.06522858166	2443
2332.28320540853	2475
2334.50054467212	2488
2336.71724666465	2432
2338.93331167827	2425
2341.14874000501	2447
2343.36353193685	2448
2345.57768776564	2477
2347.79120778319	2462
2350.00409228117	2478
2352.21634155121	2516
2354.42795588482	2489
2356.63893557343	2552
2358.84928090839	2522
2361.05899218094	2501
2363.26806968228	2561
2365.47651370347	2510
2367.68432453552	2540
2369.89150246933	2545
2372.09804779571	2515
2374.30396080541	2492
2376.50924178907	2607
2378.71389103725	2553
2380.91790884042	2599
2383.12129548898	2574
2385.32405127321	2540
2387.52617648332	2534
2389.72767140946	2587
2391.92853634165	2564
2394.12877156985	2569
2396.32837738393	2561
2398.52735407365	2549
2400.72570192873	2574
2402.92342123875	2605
2405.12051229325	2584
2407.31697538167	2556
2409.51281079334	2580
2411.70801881751	2552
2413.90259974339	2618
2416.09655386005	2585
2418.28988145648	2635
2420.48258282163	2605
2422.6746582443	2632
2424.86610801325	2693
2427.05693241713	2563
2429.24713174452	2668
2431.43670628389	2616
2433.62565632365	2661
2435.81398215213	2649
2438.00168405752	2629
2440.18876232799	2639
2442.37521725158	2706
2444.56104911628	2659
2446.74625820994	2713
2448.93084482038	2655
2451.1148092353	2693
2453.29815174233	2698
2455.480872629	2639
2457.66297218276	2681
2459.84445069097	2597
2462.02530844092	2662
2464.2055457198	2682
2466.38516281471	2666
2468.56416001267	2696
2470.74253760061	2651
2472.92029586537	2711
2475.09743509372	2650
2477.27395557232	2685
2479.44985758777	2683
2481.62514142655	2681
2483.79980737509	2651
2485.97385571969	2725
2488.1472867466	2638
2490.32010074198	2663
2492.49229799188	2678
2494.66387878228	2677
2496.83484339905	2698
2499.00519212802	2742
2501.17492525489	2735
2503.34404306528	2736
2505.51254584473	2754
2507.6804338787	2746
2509.84770745254	2759
2512.01436685153	2754
2514.18041236085	2767
2516.34584426561	2813
2518.51066285081	2806
2520.67486840138	2850
2522.83846120214	2877
2525.00144153785	2786
2527.16380969314	2864
2529.32556595261	2865
2531.48671060072	2886
2533.64724392186	2837
2535.80716620033	2878
2537.96647772035	2856
2540.12517876602	2866
2542.2832696214	2914
2544.44075057041	2890
2546.59762189692	2897
2548.75388388467	2866
2550.90953681735	2862
2553.06458097853	2919
2555.21901665172	2913
2557.37284412031	2920
2559.5260636676	2925
2561.67867557684	2939
2563.83068013113	2934
2565.98207761352	3004
2568.13286830695	2980
2570.28305249429	2995
2572.43263045829	2997
2574.58160248163	2960
2576.72996884689	3031
2578.87772983656	3086
2581.02488573303	3007
2583.1714368186	3093
2585.3173833755	3005
2587.46272568582	3058
2589.60746403161	3019
2591.75159869479	2953
2593.89512995722	3007
2596.03805810062	3007
2598.18038340665	3030
2600.32210615686	2964
2602.46322663274	3023
2604.60374511563	2952
2606.74366188683	2958
2608.88297722751	2980
2611.02169141875	2959
2613.15980474156	2977
2615.29731747681	2966
2617.43422990532	2957
2619.57054230779	2998
2621.70625496483	2970
2623.84136815695	2977
2625.97588216456	2974
2628.10979726799	2957
2630.24311374746	3018
2632.3758318831	3000
2634.50795195493	2973
2636.6394742429	3052
2638.77039902682	3036
2640.90072658645	3046
2643.0304572014	3051
2645.15959115123	3039
2647.28812871538	3027
2649.41607017319	3089
2651.5434158039	3075
2653.67016588665	3097
2655.79632070049	3138
2657.92188052436	3110
2660.04684563712	3138
2662.17121631749	3091
2664.29499284413	3202
2666.41817549558	3074
2668.54076455028	3153
2670.66276028656	3106
2672.78416298267	3180
2674.90497291675	3158
2677.02519036682	3153
2679.14481561082	3206
2681.26384892658	3224
2683.38229059183	3222
2685.50014088417	3206
2687.61740008115	3246
2689.73406846017	3220
2691.85014629854	3317
2693.96563387347	3326
2696.08053146206	3283
2698.1948393413	3319
2700.3085577881	3266
2702.42168707924	3335
2704.53422749139	3248
2706.64617930112	3315
2708.75754278492	3420
2710.86831821914	3414
2712.97850588002	3493
2715.08810604372	3414
2717.19711898628	3479
2719.30554498363	3453
2721.41338431159	3499
2723.52063724587	3430
2725.62730406207	3412
2727.73338503569	3505
2729.83888044213	3380
2731.94379055665	3431
2734.04811565441	3415
2736.15185601048	3464
2738.25501189979	3400
2740.35758359718	3441
2742.45957137738	3453
2744.56097551499	3471
2746.6617962845	3519
2748.7620339603	3495
2750.86168881666	3555
2752.96076112774	3559
2755.05925116759	3607
2757.15715921013	3617
2759.25448552917	3716
2761.35123039843	3732
2763.44739409148	3730
2765.54297688181	3703
2767.63797904275	3699
2769.73240084756	3679
2771.82624256935	3724
2773.91950448113	3720
2776.01218685579	3673
2778.10428996609	3683
2780.1958140847	3643
2782.28675948414	3717
2784.37712643683	3702
2786.46691521507	3591
2788.55612609103	3684
2790.64475933678	3732
2792.73281522425	3701
2794.82029402525	3702
2796.90719601149	3697
2798.99352145453	3640
2801.07927062583	3740
2803.16444379672	3752
2805.24904123841	3748
2807.33306322197	3796
2809.41651001838	3767
2811.49938189847	3810
2813.58167913296	3824
2815.66340199243	3800
2817.74455074734	3763
2819.82512566805	3796
2821.90512702475	3876
2823.98455508754	3880
2826.06341012637	3865
2828.14169241109	3917
2830.2194022114	3929
2832.29653979686	3911
2834.37310543694	3964
2836.44909940096	3957
2838.52452195811	3943
2840.59937337745	4002
2842.67365392791	3963
2844.7473638783	4099
2846.82050349728	4055
2848.8930730534	4132
2850.96507281507	4179
2853.03650305056	4157
2855.10736402802	4285
2857.17765601545	4368
2859.24737928075	4446
2861.31653409164	4604
2863.38512071574	4757
2865.45313942054	5043
2867.52059047335	5385
2869.58747414139	5500
2871.65379069173	5562
2873.7195403913	5625
2875.78472350688	5471
2877.84934030515	5314
2879.91339105262	5252
2881.97687601567	5248
2884.03979546054	5199
2886.10214965333	5220
2888.16393886001	5315
2890.22516334639	5352
2892.28582337816	5355
2894.34591922087	5447
2896.40545113992	5485
2898.46441940054	5596
2900.52282426787	5645
2902.58066600687	5718
2904.63794488237	5882
2906.69466115906	5961
2908.75081510147	6253
2910.806406974	6375
2912.86143704089	6286
2914.91590556626	6276
2916.96981281405	6104
2919.02315904807	6044
2921.07594453199	6029
2923.12816952932	6122
2925.17983430343	6086
2927.23093911753	6153
2929.28148423469	6213
2931.33146991782	6234
2933.3808964297	6270
2935.42976403294	6423
2937.47807299	6382
2939.5258235632	6354
2941.57301601469	6414
2943.61965060648	6382
2945.66572760042	6197
2947.71124725823	6113
2949.75620984144	6040
2951.80061561143	6045
2953.84446482945	5937
2955.88775775656	6048
2957.9304946537	6017
2959.97267578162	6274
2962.01430140095	6408
2964.05537177211	6596
2966.09588715541	6778
2968.13584781097	6906
2970.17525399875	6972
2972.21410597859	6851
2974.25240401012	6769
2976.29014835283	6797
2978.32733926604	6749
2980.36397700893	6668
2982.40006184049	6513
2984.43559401955	6520
2986.4705738048	6387
2988.50500145474	6257
2990.53887722771	6238
2992.57220138189	6221
2994.6049741753	6092
2996.63719586576	6170
2998.66886671097	6072
3000.69998696843	6042
3002.73055689549	6052
3004.7605767493	6005
3006.79004678688	5908
3008.81896726505	5893
3010.84733844048	5758
3012.87516056966	5846
3014.9024339089	5772
3016.92915871434	5818
3018.95533524196	5761
3020.98096374756	5749
3023.00604448676	5836
3025.030577715	5847
3027.05456368757	5759
3029.07800265956	5946
3031.10089488589	6007
3033.12324062131	6095
3035.14504012038	6210
3037.16629363749	6357
3039.18700142685	6506
3041.20716374249	6521
3043.22678083826	6527
3045.24585296783	6709
3047.26438038468	6983
3049.28236334212	7292
3051.29980209329	7610
3053.31669689111	8022
3055.33304798835	8482
3057.34885563757	8926
3059.36412009117	9212
3061.37884160135	9541
3063.39302042012	9827
3065.40665679932	10227
3067.41975099059	10450
3069.43230324538	10752
3071.44431381495	10880
3073.45578295041	11024
3075.46671090261	10912
3077.47709792227	10471
3079.48694425989	10082
3081.49625016579	9776
3083.50501589008	9182
3085.51324168271	8801
3087.5209277934	8265
3089.52807447169	7888
3091.53468196695	7600
3093.54075052832	7269
3095.54628040476	7116
3097.55127184503	7053
3099.55572509769	7003
3101.55964041111	6752
3103.56301803346	6732
3105.5658582127	6761
3107.56816119661	6763
3109.56992723275	6599
3111.5711565685	6624
3113.57184945101	6594
3115.57200612724	6594
3117.57162684397	6609
3119.57071184775	6607
3121.56926138493	6558
3123.56727570166	6613
3125.56475504389	6547
3127.56169965735	6449
3129.55810978757	6629
3131.55398567988	6590
3133.54932757938	6551
3135.54413573099	6607
3137.53841037939	6528
3139.53215176909	6560
3141.52536014435	6582
3143.51803574925	6578
3145.51017882762	6678
3147.50178962312	6676
3149.49286837916	6705
3151.48341533897	6603
3153.47343074553	6696
3155.46291484164	6689
3157.45186786985	6654
3159.44029007252	6633
3161.42818169179	6799
3163.41554296956	6782
3165.40237414753	6723
3167.38867546717	6880
3169.37444716976	6825
3171.35968949631	6905
3173.34440268765	6861
3175.32858698436	6900
3177.31224262683	6973
3179.29536985518	6919
3181.27796890934	6974
3183.26004002902	6994
3185.24158345368	7013
3187.22259942256	7029
3189.2030881747	7079
3191.18304994886	7028
3193.16248498363	7088
3195.14139351733	7186
3197.11977578807	7276
3199.09763203372	7221
3201.07496249191	7247
3203.05176740007	7203
3205.02804699537	7260
3207.00380151475	7322
3208.97903119493	7279
3210.95373627239	7367
3212.92791698335	7313
3214.90157356383	7302
3216.8747062496	7298
3218.84731527619	7292
3220.81940087889	7460
3222.79096329275	7280
3224.76200275259	7313
3226.73251949298	7371
3228.70251374826	7478
3230.67198575251	7411
3232.64093573959	7382
3234.6093639431	7458
3236.57727059641	7455
3238.54465593262	7528
3240.51152018462	7527
3242.47786358502	7446
3244.44368636621	7392
3246.40898876032	7541
3248.37377099923	7527
3250.33803331458	7579
3252.30177593775	7707
3254.26499909988	7659
3256.22770303184	7740
3258.18988796427	7724
3260.15155412755	7623
3262.1127017518	7613
3264.0733310669	7734
3266.03344230246	7819
3267.99303568784	7808
3269.95211145215	7768
3271.91066982422	7825
3273.86871103267	7762
3275.82623530581	7912
3277.78324287171	7868
3279.73973395818	7781
3281.69570879278	7839
3283.65116760281	7944
3285.60611061527	7967
3287.56053805694	8003
3289.51445015432	7954
3291.46784713364	7972
3293.42072922088	7951
3295.37309664173	7949
3297.32494962163	8102
3299.27628838576	7960
3301.22711315901	8017
3303.17742416601	7997
3305.12722163114	8001
3307.07650577848	8015
3309.02527683185	8145
3310.9735350148	8128
3312.9212805506	8131
3314.86851366225	8190
3316.81523457249	8160
3318.76144350377	8290
3320.70714067825	8172
3322.65232631784	8209
3324.59700064415	8149
3326.54116387854	8208
3328.48481624207	8303
3330.42795795552	8197
3332.37058923938	8063
3334.31271031389	8216
3336.25432139899	8192
3338.19542271433	8310
3340.13601447927	8185
3342.07609691292	8282
3344.01567023407	8224
3345.95473466125	8270
3347.89329041266	8288
3349.83133770628	8373
3351.76887675973	8411
3353.70590779039	8307
3355.64243101534	8398
3357.57844665135	8356
3359.51395491492	8393
3361.44895602224	8430
3363.38345018922	8396
3365.31743763148	8469
3367.25091856432	8495
3369.18389320278	8478
3371.11636176156	8581
3373.0483244551	8500
3374.97978149754	8553
3376.91073310269	8608
3378.84117948409	8632
3380.77112085498	8692
3382.70055742827	8699
3384.62948941659	8634
3386.55791703227	8482
3388.48584048733	8653
3390.41325999348	8759
3392.34017576214	8787
3394.26658800441	8823
3396.19249693107	8760
3398.11790275263	8756
3400.04280567926	8738
3401.96720592084	8835
3403.89110368692	8905
3405.81449918675	8915
3407.73739262928	8904
3409.65978422312	8927
3411.58167417659	9039
3413.50306269768	8912
3415.42394999408	8957
3417.34433627316	8972
3419.26422174196	9033
3421.18360660721	8967
3423.10249107532	8916
3425.0208753524	8876
3426.93875964421	9079
3428.85614415621	8983
3430.77302909353	8995
3432.68941466097	8995
3434.60530106302	9056
3436.52068850384	9070
3438.43557718726	9141
3440.34996731681	9047
3442.26385909565	9028
3444.17725272664	9028
3446.09014841231	9075
3448.00254635485	9089
3449.91444675614	9084
3451.82584981771	9067
3453.73675574076	9059
3455.64716472616	9090
3457.55707697445	9104
3459.46649268584	8984
3461.37541206019	9128
3463.28383529703	9135
3465.19176259556	9103
3467.09919415464	9129
3469.00613017278	9085
3470.91257084817	9237
3472.81851637863	9072
3474.72396696168	9037
3476.62892279446	9187
3478.5333840738	9257
3480.43735099614	9166
3482.34082375764	9172
3484.24380255404	9251
3486.1462875808	9167
3488.048279033	9211
3489.94977710537	9297
3491.85078199231	9242
3493.75129388784	9240
3495.65131298566	9214
3497.5508394791	9294
3499.44987356115	9273
