
200.090469251518	964
202.974751419362	985
205.858021632263	957
208.740280737522	967
211.621529580443	980
214.501769004371	958
217.380999850626	997
220.25922295859	958
223.136439165646	963
226.012649307235	978
228.88785421682	998
231.762054725918	1001
234.635251664113	1037
237.507445859021	998
240.378638136346	989
243.248829319855	991
246.11802023137	993
248.986211690826	996
251.853404516227	1013
254.719599523654	1016
257.584797527335	1035
260.44899933954	1090
263.312205770682	1085
266.174417629303	1078
269.035635722015	1139
271.895860853609	1198
274.755093826978	1244
277.613335443144	1329
280.470586501309	1338
283.326847798766	1311
286.182120131019	1223
289.036404291684	1135
291.889701072574	1100
294.742011263643	1071
297.593335653048	1027
300.443675027094	1018
303.293030170295	996
306.141401865367	985
308.988790893174	1001
311.835198032837	995
314.680624061635	1002
317.525069755113	983
320.36853588697	958
323.211023229178	954
326.052532551923	964
328.893064623604	970
331.732620210885	970
334.57120007867	957
337.408804990093	957
340.245435706565	943
343.081092987733	976
345.915777591523	969
348.749490274145	990
351.582231790049	976
354.414002891997	986
357.244804331021	960
360.074636856443	971
362.903501215886	976
365.731398155265	975
368.558328418814	975
371.384292749062	979
374.209291886869	992
377.033326571407	950
379.85639754017	976
382.678505529009	980
385.499651272065	953
388.319835501872	969
391.139058949258	983
393.957322343453	970
396.774626412011	986
399.590971880847	968
402.406359474258	982
405.220789914893	976
408.034263923801	982
410.8467822204	972
413.658345522483	965
416.468954546242	976
419.278610006277	1002
422.087312615557	999
424.895063085503	977
427.701862125901	990
430.507710444981	1010
433.312608749366	958
436.116557744146	994
438.919558132791	1005
441.721610617238	986
444.522715897856	992
447.322874673457	962
450.122087641299	982
452.920355497092	988
455.717678935009	974
458.514058647681	986
461.309495326219	1020
464.103989660191	979
466.89754233765	980
469.690154045114	975
472.481825467625	979
475.272557288674	966
478.062350190281	977
480.851204852952	986
483.639121955683	963
486.426102176007	995
489.212146189955	983
491.997254672093	986
494.781428295471	989
497.564667731716	1006
500.346973650958	996
503.128346721878	975
505.90878761169	992
508.688296986151	1013
511.46687550957	985
514.244523844831	990
517.021242653354	1020
519.797032595132	996
522.571894328732	998
525.345828511279	1008
528.11883579849	997
530.890916844655	996
533.662072302668	964
536.432302823985	996
539.201609058684	969
541.96999165542	976
544.737451261473	978
547.503988522723	998
550.26960408366	992
553.034298587394	995
555.798072675669	1003
558.560926988819	983
561.322862165849	980
564.083878844369	985
566.843977660654	1003
569.603159249604	1016
572.361424244769	1004
575.118773278369	1011
577.87520698124	1021
580.630725982905	1017
583.385330911566	1054
586.139022394076	1092
588.891801055954	1086
591.643667521406	1100
594.394622413318	1153
597.144666353273	1136
599.893799961512	1063
602.64202385701	1041
605.389338657413	1027
608.135744979089	1009
610.881243437092	1011
613.625834645191	995
616.369519215881	1011
619.112297760374	1009
621.854170888604	1019
624.595139209225	985
627.335203329614	1006
630.074363855914	969
632.81262139299	991
635.549976544436	990
638.286429912612	961
641.021982098635	988
643.756633702364	1020
646.49038532241	997
649.223237556176	988
651.955190999808	966
654.686246248224	979
657.416403895135	987
660.145664533011	980
662.874028753133	979
665.601497145537	992
668.328070299071	1012
671.05374880138	1034
673.778533238885	1101
676.502424196839	1225
679.225422259297	1233
681.947528009099	1269
684.668742027927	1151
687.389064896281	1077
690.108497193465	1047
692.827039497621	1015
695.544692385724	1049
698.261456433585	1035
700.977332215847	1017
703.692320305981	1028
706.406421276337	1045
709.11963569808	1096
711.831964141256	1103
714.54340717474	1065
717.253965366304	1012
719.963639282552	1007
722.672429488961	987
725.380336549904	1000
728.087361028596	991
730.793503487166	992
733.498764486594	990
736.203144586758	992
738.906644346447	1007
741.60926432331	1054
744.311005073912	1072
747.011867153727	1072
749.711851117121	1044
752.410957517375	1037
755.109186906677	1019
757.806539836132	991
760.503016855779	1000
763.198618514551	994
765.893345360346	999
768.587197939964	987
771.28017679914	1011
773.972282482566	987
776.663515533859	1003
779.353876495581	1001
782.043365909241	984
784.731984315327	991
787.419732253235	994
790.106610261366	983
792.792618877058	966
795.477758636618	984
798.162030075313	991
800.845433727423	1001
803.52797012615	973
806.209639803714	1002
808.890443291304	987
811.570381119098	985
814.249453816265	980
816.927661910959	1011
819.60500593036	956
822.281486400603	990
824.957103846864	1019
827.631858793316	1070
830.305751763135	1093
832.978783278519	1054
835.650953860677	1063
838.322264029848	1002
840.992714305292	1025
843.662305205289	1025
846.331037247157	1043
848.998910947241	1074
851.665926820933	1018
854.332085382674	1016
856.997387145915	999
859.661832623191	1013
862.325422326066	1022
864.988156765172	1036
867.650036450181	1025
870.311061889846	999
872.971233591961	1001
875.630552063409	986
878.28901781013	984
880.946631337138	997
883.603393148533	971
886.259303747484	996
888.914363636246	993
891.568573316155	992
894.22193328767	1002
896.874444050281	1003
899.526106102625	982
902.176919942416	971
904.826886066483	1000
907.476004970747	1000
910.124277150255	1005
912.77170309913	1015
915.418283310642	1002
918.064018277175	1023
920.708908490222	1011
923.352954440405	996
925.996156617486	1033
928.638515510334	1017
931.280031606966	1024
933.920705394521	1014
936.560537359303	1006
939.199527986737	984
941.837677761392	1001
944.474987167006	1014
947.111456686438	1014
949.747086801734	1057
952.38187799407	1038
955.015830743792	1034
957.648945530418	1000
960.281222832633	972
962.91266312826	987
965.543266894336	982
968.173034607058	984
970.801966741779	1008
973.43006377307	1024
976.057326174661	1001
978.683754419471	1003
981.309348979623	960
983.93411032642	981
986.558038930361	966
989.181135261144	988
991.803399787692	961
994.424832978086	965
997.045435299653	960
999.665207218906	967
1002.2841492016	990
1004.90226171266	1011
1007.51954521628	1001
1010.13600017584	995
1012.75162705397	989
1015.3664263125	999
1017.9803984125	995
1020.5935438143	984
1023.20586297741	982
1025.81735636063	994
1028.42802442196	1007
1031.03786761869	1008
1033.64688640732	1017
1036.2550812436	1044
1038.86245258255	1044
1041.46900087844	1013
1044.07472658479	1035
1046.67963015438	978
1049.28371203927	1024
1051.88697269075	996
1054.48941255943	1038
1057.09103209513	1038
1059.691831747	1060
1062.29181196343	1026
1064.89097319211	1035
1067.48931587999	1041
1070.08684047333	1026
1072.68354741766	1077
1075.27943715779	1094
1077.87451013787	1185
1080.46876680127	1485
1083.06220759071	1766
1085.65483294822	1912
1088.24664331509	1704
1090.83763913194	1340
1093.42782083869	1116
1096.01718887459	1062
1098.60574367818	1033
1101.19348568732	1022
1103.78041533919	1053
1106.3665330703	1040
1108.95183931646	1032
1111.53633451284	1006
1114.12001909391	1022
1116.70289349349	1042
1119.2849581447	1054
1121.86621348005	1065
1124.44665993134	1073
1127.02629792973	1082
1129.60512790574	1063
1132.18315028919	1049
1134.76036550929	1060
1137.3367739946	1076
1139.912376173	1131
1142.48717247176	1145
1145.06116331748	1106
1147.63434913616	1061
1150.20673035312	1039
1152.77830739307	1028
1155.34908068007	1004
1157.91905063757	1014
1160.48821768838	990
1163.05658225471	1016
1165.6241447581	966
1168.19090561951	991
1170.75686525927	997
1173.32202409708	999
1175.88638255206	982
1178.44994104269	1000
1181.01269998684	1014
1183.57465980182	992
1186.13582090427	1013
1188.69618371026	1014
1191.25574863529	1025
1193.8145160942	1006
1196.37248650129	1017
1198.92966027025	1039
1201.48603781416	1020
1204.04161954556	1021
1206.59640587635	984
1209.15039721788	1024
1211.70359398092	1023
1214.25599657564	1001
1216.80760541166	1035
1219.35842089801	984
1221.90844344314	1018
1224.45767345496	1017
1227.00611134077	1015
1229.55375750736	1012
1232.10061236092	989
1234.64667630707	972
1237.1919497509	990
1239.73643309692	955
1242.28012674912	983
1244.82303111089	970
1247.36514658511	988
1249.9064735741	993
1252.44701247964	980
1254.98676370294	1005
1257.52572764469	984
1260.06390470506	984
1262.60129528365	1018
1265.13789977954	1038
1267.67371859128	1007
1270.20875211688	1021
1272.74300075384	1050
1275.2764648991	1053
1277.80914494911	1056
1280.34104129978	1050
1282.87215434652	1026
1285.40248448419	1035
1287.93203210715	1049
1290.46079760927	1049
1292.98878138385	1038
1295.51598382375	1091
1298.04240532127	1093
1300.56804626822	1129
1303.09290705593	1162
1305.6169880752	1160
1308.14028971632	1151
1310.66281236913	1083
1313.18455642292	1111
1315.70552226653	1062
1318.22571028829	1075
1320.74512087603	1064
1323.26375441711	1067
1325.7816112984	1094
1328.29869190629	1161
1330.81499662666	1230
1333.33052584497	1302
1335.84527994613	1458
1338.35925931464	1472
1340.87246433446	1491
1343.38489538916	1363
1345.89655286177	1157
1348.40743713487	1073
1350.91754859059	1061
1353.42688761059	994
1355.93545457606	1040
1358.44324986772	1023
1360.95027386588	1038
1363.45652695032	1048
1365.96200950042	1050
1368.4667218951	1069
1370.97066451281	1034
1373.47383773156	1045
1375.97624192891	1064
1378.47787748199	1041
1380.97874476746	1022
1383.47884416157	1030
1385.97817604009	1033
1388.4767407784	999
1390.9745387514	989
1393.47157033358	1014
1395.96783589898	1015
1398.46333582124	987
1400.95807047354	1005
1403.45204022864	1022
1405.94524545889	1003
1408.4376865362	1061
1410.92936383205	1062
1413.42027771752	1066
1415.91042856328	1052
1418.39981673955	1060
1420.88844261615	1095
1423.37630656249	1120
1425.86340894757	1101
1428.34975013999	1129
1430.83533050792	1155
1433.32015041912	1144
1435.80421024098	1139
1438.28751034045	1230
1440.77005108411	1277
1443.25183283812	1360
1445.73285596824	1450
1448.21312083984	1551
1450.69262781791	1557
1453.17137726702	1380
1455.64936955137	1246
1458.12660503477	1159
1460.60308408063	1142
1463.07880705197	1138
1465.55377431145	1162
1468.02798622133	1116
1470.50144314348	1126
1472.97414543941	1108
1475.44609347024	1140
1477.91728759673	1127
1480.38772817924	1126
1482.85741557777	1138
1485.32635015194	1093
1487.79453226103	1063
1490.26196226391	1051
1492.72864051911	1025
1495.1945673848	1048
1497.65974321874	995
1500.1241683784	1017
1502.58784322083	1063
1505.05076810274	1063
1507.51294338049	1061
1509.97436941009	1101
1512.43504654717	1133
1514.89497514704	1246
1517.35415556462	1433
1519.81258815451	1687
1522.27027327095	1875
1524.72721126784	2112
1527.18340249874	2079
1529.63884731684	1773
1532.09354607502	1465
1534.5474991258	1308
1537.00070682136	1188
1539.45316951355	1121
1541.90488755388	1099
1544.35586129353	1069
1546.80609108336	1073
1549.25557727385	1051
1551.70432021519	1056
1554.15232025725	1019
1556.59957774953	1035
1559.04609304125	1019
1561.49186648127	989
1563.93689841815	1017
1566.38118920011	994
1568.82473917506	994
1571.2675486906	1015
1573.70961809399	1029
1576.15094773219	988
1578.59153795184	1021
1581.03138909928	1027
1583.47050152051	1060
1585.90887556123	1062
1588.34651156686	1060
1590.78340988246	1051
1593.21957085283	1052
1595.65499482245	1062
1598.08968213547	1020
1600.52363313578	1051
1602.95684816694	1056
1605.38932757224	1023
1607.82107169462	1052
1610.25208087677	1028
1612.68235546107	1025
1615.1118957896	984
1617.54070220415	1017
1619.96877504621	996
1622.39611465701	1015
1624.82272137746	1034
1627.24859554818	1028
1629.67373750953	1083
1632.09814760155	1069
1634.52182616404	1118
1636.94477353647	1133
1639.36699005806	1110
1641.78847606776	1092
1644.20923190418	1065
1646.62925790573	1050
1649.04855441048	1034
1651.46712175628	1006
1653.88496028066	1021
1656.3020703209	1038
1658.71845221401	1004
1661.13410629671	997
1663.54903290547	993
1665.96323237649	1018
1668.37670504571	1011
1670.78945124877	1038
1673.20147132109	997
1675.61276559779	997
1678.02333441377	981
1680.43317810362	996
1682.84229700171	997
1685.25069144213	982
1687.65836175872	997
1690.06530828507	1005
1692.47153135451	1016
1694.87703130009	970
1697.28180845467	990
1699.6858631508	1041
1702.08919572081	991
1704.49180649676	998
1706.89369581049	1030
1709.29486399355	989
1711.69531137731	983
1714.09503829282	979
1716.49404507095	979
1718.89233204229	995
1721.28989953721	974
1723.68674788581	984
1726.08287741798	987
1728.47828846338	955
1730.87298135139	957
1733.26695641119	989
1735.66021397173	998
1738.05275436169	982
1740.44457790954	978
1742.83568494354	1005
1745.22607579168	998
1747.61575078175	986
1750.00471024128	986
1752.39295449761	972
1754.78048387783	978
1757.16729870881	994
1759.5533993172	1013
1761.93878602942	989
1764.32345917168	1015
1766.70741906995	981
1769.09066604999	964
1771.47320043735	1003
1773.85502255735	993
1776.2361327351	986
1778.61653129548	1001
1780.99621856318	994
1783.37519486264	994
1785.75346051813	984
1788.13101585368	994
1790.5078611931	979
1792.88399686002	990
1795.25942317785	986
1797.63414046977	979
1800.00814905878	991
1802.38144926766	965
1804.75404141898	986
1807.12592583514	991
1809.49710283829	987
1811.86757275039	986
1814.23733589322	999
1816.60639258834	1015
1818.97474315712	1007
1821.34238792073	1016
1823.70932720012	976
1826.07556131608	1007
1828.44109058918	997
1830.8059153398	991
1833.17003588812	1003
1835.53345255413	991
1837.89616565765	997
1840.25817551827	1001
1842.61948245541	977
1844.9800867883	975
1847.33998883598	977
1849.69918891729	998
1852.05768735091	1002
1854.4154844553	997
1856.77258054875	1001
1859.12897594938	1003
1861.4846709751	988
1863.83966594366	996
1866.19396117261	980
1868.54755697932	1018
1870.90045368099	1023
1873.25265159463	1003
1875.60415103708	1016
1877.95495232501	1010
1880.30505577486	1028
1882.65446170299	1000
1885.00317042548	1010
1887.35118225832	1018
1889.69849751726	1010
1892.04511651792	989
1894.39103957574	1010
1896.73626700596	1004
1899.08079912368	1013
1901.42463624384	1010
1903.76777868116	1034
1906.11022675025	1022
1908.4519807655	1042
1910.79304104117	990
1913.13340789134	1006
1915.47308162992	1002
1917.81206257067	1029
1920.15035102718	1004
1922.48794731286	1005
1924.82485174096	1010
1927.16106462461	1012
1929.49658627672	1046
1931.83141701008	1026
1934.1655571373	1013
1936.49900697085	1031
1938.83176682301	1011
1941.16383700594	1018
1943.49521783161	1004
1945.82590961186	1034
1948.15591265835	1001
1950.48522728262	1022
1952.81385379602	1003
1955.14179250976	1003
1957.46904373489	1012
1959.79560778233	1032
1962.12148496284	1029
1964.44667558701	1016
1966.77117996529	1006
1969.09499840799	1023
1971.41813122527	1055
1973.74057872714	1000
1976.06234122345	1039
1978.38341902391	1011
1980.7038124381	1015
1983.02352177543	1022
1985.34254734518	1022
1987.66088945649	1021
1989.97854841833	1036
1992.29552453956	1020
1994.61181812887	1036
1996.92742949483	1033
1999.24235894586	1014
2001.55660679023	1018
2003.87017333608	1017
2006.18305889143	1034
2008.49526376413	1068
2010.80678826189	1063
2013.1176326923	1058
2015.42779736282	1058
2017.73728258075	1029
2020.04608865326	1030
2022.3542158874	1066
2024.66166459008	1037
2026.96843506807	1036
2029.274527628	1045
2031.57994257637	1044
2033.88468021957	1041
2036.18874086383	1042
2038.49212481526	1046
2040.79483237983	1062
2043.0968638634	1069
2045.39821957169	1033
2047.69889981028	1057
2049.99890488462	1056
2052.29823510006	1095
2054.59689076181	1075
2056.89487217492	1053
2059.19217964437	1049
2061.48881347497	1087
2063.7847739714	1055
2066.08006143826	1051
2068.37467618	1060
2070.66861850093	1061
2072.96188870527	1060
2075.25448709707	1065
2077.54641398031	1046
2079.83766965881	1062
2082.12825443629	1067
2084.41816861634	1071
2086.70741250242	1075
2088.99598639789	1051
2091.28389060597	1076
2093.57112542978	1063
2095.85769117232	1035
2098.14358813644	1057
2100.42881662491	1039
2102.71337694037	1045
2104.99726938532	1058
2107.28049426219	1061
2109.56305187325	1058
2111.84494252069	1077
2114.12616650655	1077
2116.40672413278	1079
2118.68661570121	1055
2120.96584151355	1102
2123.24440187138	1102
2125.52229707622	1059
2127.79952742943	1093
2130.07609323227	1080
2132.35199478588	1099
2134.62723239132	1088
2136.90180634949	1108
2139.17571696123	1102
2141.44896452723	1085
2143.72154934809	1077
2145.99347172429	1073
2148.26473195623	1074
2150.53533034415	1107
2152.80526718821	1118
2155.07454278848	1092
2157.3431574449	1100
2159.61111145728	1128
2161.87840512538	1100
2164.1450387488	1100
2166.41101262707	1103
2168.67632705959	1095
2170.94098234567	1103
2173.20497878451	1115
2175.46831667519	1125
2177.73099631672	1119
2179.99301800797	1103
2182.25438204772	1112
2184.51508873466	1083
2186.77513836735	1095
2189.03453124427	1104
2191.29326766378	1112
2193.55134792416	1109
2195.80877232355	1098
2198.06554116004	1117
2200.32165473157	1116
2202.577113336	1122
2204.83191727111	1134
2207.08606683453	1167
2209.33956232384	1128
2211.59240403648	1108
2213.84459226982	1125
2216.09612732112	1125
2218.34700948753	1116
2220.59723906612	1096
2222.84681635385	1132
2225.09574164758	1110
2227.34401524408	1127
2229.59163744002	1082
2231.83860853197	1125
2234.08492881639	1126
2236.33059858968	1120
2238.5756181481	1088
2240.81998778784	1087
2243.06370780499	1102
2245.30677849555	1124
2247.54920015539	1140
2249.79097308033	1168
2252.03209756607	1102
2254.27257390822	1146
2256.51240240228	1131
2258.75158334369	1109
2260.99011702777	1154
2263.22800374976	1119
2265.46524380477	1133
2267.70183748786	1149
2269.93778509399	1142
2272.17308691801	1126
2274.40774325467	1143
2276.64175439866	1137
2278.87512064454	1142
2281.10784228682	1134
2283.33991961987	1136
2285.571352938	1111
2287.80214253541	1122
2290.03228870623	1123
2292.26179174449	1156
2294.4906519441	1162
2296.71886959892	1099
2298.9464450027	1134
2301.1733784491	1126
2303.39967023169	1112
2305.62532064395	1098
2307.85032997926	1155
2310.07469853093	1104
2312.29842659216	1131
2314.52151445608	1136
2316.7439624157	1127
2318.96577076397	1105
2321.18693979374	1120
2323.40746979777	1135
2325.62736106873	1155
2327.8466138992	1135
2330.06522858166	1147
2332.28320540853	1135
2334.50054467212	1101
2336.71724666465	1105
2338.93331167827	1127
2341.14874000501	1148
2343.36353193685	1148
2345.57768776564	1117
2347.79120778319	1138
2350.00409228117	1112
2352.21634155121	1110
2354.42795588482	1112
2356.63893557342	1161
2358.84928090838	1138
2361.05899218094	1117
2363.26806968228	1162
2365.47651370347	1122
2367.68432453552	1126
2369.89150246933	1127
2372.09804779571	1140
2374.30396080541	1141
2376.50924178907	1128
2378.71389103725	1123
2380.91790884042	1112
2383.12129548897	1132
2385.3240512732	1106
2387.52617648332	1120
2389.72767140946	1119
2391.92853634165	1125
2394.12877156985	1118
2396.32837738392	1125
2398.52735407365	1097
2400.72570192873	1097
2402.92342123875	1123
2405.12051229325	1117
2407.31697538167	1116
2409.51281079333	1132
2411.70801881751	1149
2413.90259974339	1139
2416.09655386004	1155
2418.28988145648	1113
2420.48258282162	1146
2422.6746582443	1122
2424.86610801325	1107
2427.05693241713	1108
2429.24713174452	1134
2431.43670628389	1113
2433.62565632365	1119
2435.81398215212	1132
2438.00168405752	1126
2440.18876232799	1106
2442.37521725158	1100
2444.56104911628	1112
2446.74625820994	1146
2448.93084482038	1113
2451.1148092353	1117
2453.29815174233	1119
2455.480872629	1129
2457.66297218275	1104
2459.84445069097	1109
2462.02530844092	1102
2464.2055457198	1105
2466.38516281471	1119
2468.56416001267	1113
2470.74253760061	1118
2472.92029586537	1106
2475.09743509372	1103
2477.27395557232	1107
2479.44985758777	1111
2481.62514142655	1099
2483.79980737508	1154
2485.97385571969	1139
2488.14728674661	1110
2490.32010074198	1108
2492.49229799188	1103
2494.66387878228	1097
2496.83484339905	1117
2499.00519212802	1116
2501.17492525488	1112
2503.34404306528	1135
2505.51254584473	1111
2507.6804338787	1126
2509.84770745254	1093
2512.01436685153	1100
2514.18041236085	1133
2516.34584426561	1103
2518.51066285081	1116
2520.67486840138	1105
2522.83846120214	1123
2525.00144153784	1139
2527.16380969314	1117
2529.32556595261	1128
2531.48671060072	1120
2533.64724392186	1125
2535.80716620033	1156
2537.96647772034	1132
2540.12517876602	1116
2542.2832696214	1135
2544.44075057041	1131
2546.59762189691	1130
2548.75388388466	1133
2550.90953681735	1132
2553.06458097853	1123
2555.21901665172	1098
2557.37284412031	1132
2559.5260636676	1114
2561.67867557684	1135
2563.83068013113	1126
2565.98207761351	1092
2568.13286830695	1129
2570.28305249429	1105
2572.43263045829	1126
2574.58160248163	1122
2576.72996884689	1128
2578.87772983655	1102
2581.02488573303	1116
2583.1714368186	1117
2585.31738337549	1125
2587.46272568582	1137
2589.60746403161	1095
2591.75159869479	1148
2593.89512995722	1139
2596.03805810061	1148
2598.18038340665	1137
2600.32210615686	1074
2602.46322663274	1097
2604.60374511563	1142
2606.74366188683	1134
2608.88297722751	1121
2611.02169141875	1120
2613.15980474156	1127
2615.29731747681	1125
2617.43422990532	1136
2619.57054230779	1113
2621.70625496483	1122
2623.84136815694	1130
2625.97588216456	1126
2628.10979726799	1123
2630.24311374746	1110
2632.3758318831	1110
2634.50795195493	1124
2636.6394742429	1091
2638.77039902682	1123
2640.90072658645	1135
2643.0304572014	1156
2645.15959115123	1150
2647.28812871538	1145
2649.41607017319	1131
2651.5434158039	1145
2653.67016588665	1139
2655.79632070049	1149
2657.92188052436	1153
2660.04684563711	1164
2662.17121631749	1141
2664.29499284413	1168
2666.41817549558	1161
2668.54076455027	1183
2670.66276028656	1186
2672.78416298267	1158
2674.90497291675	1148
2677.02519036682	1175
2679.14481561082	1168
2681.26384892658	1158
2683.38229059182	1169
2685.50014088417	1145
2687.61740008114	1163
2689.73406846017	1137
2691.85014629854	1154
2693.96563387347	1151
2696.08053146206	1138
2698.1948393413	1175
2700.3085577881	1152
2702.42168707924	1157
2704.53422749139	1167
2706.64617930112	1148
2708.75754278492	1154
2710.86831821913	1132
2712.97850588002	1178
2715.08810604372	1174
2717.19711898628	1155
2719.30554498363	1141
2721.41338431158	1166
2723.52063724586	1156
2725.62730406206	1155
2727.73338503569	1166
2729.83888044213	1157
2731.94379055664	1155
2734.04811565441	1182
2736.15185601048	1168
2738.25501189979	1133
2740.35758359718	1146
2742.45957137738	1179
2744.56097551499	1159
2746.6617962845	1138
2748.7620339603	1169
2750.86168881666	1147
2752.96076112774	1173
2755.05925116758	1137
2757.15715921012	1176
2759.25448552917	1142
2761.35123039843	1133
2763.44739409148	1140
2765.5429768818	1137
2767.63797904275	1104
2769.73240084756	1155
2771.82624256934	1146
2773.91950448113	1175
2776.01218685579	1137
2778.10428996609	1160
2780.19581408469	1161
2782.28675948414	1132
2784.37712643683	1159
2786.46691521507	1169
2788.55612609104	1179
2790.64475933678	1134
2792.73281522425	1147
2794.82029402525	1123
2796.90719601149	1174
2798.99352145453	1145
2801.07927062583	1155
2803.16444379672	1140
2805.24904123841	1154
2807.33306322197	1163
2809.41651001838	1173
2811.49938189847	1160
2813.58167913296	1157
2815.66340199243	1187
2817.74455074734	1162
2819.82512566805	1184
2821.90512702475	1175
2823.98455508754	1189
2826.06341012637	1224
2828.14169241109	1173
2830.2194022114	1209
2832.29653979686	1195
2834.37310543694	1215
2836.44909940096	1216
2838.5245219581	1271
2840.59937337744	1282
2842.67365392791	1357
2844.74736387829	1413
2846.82050349727	1463
2848.8930730534	1551
2850.96507281506	1596
2853.03650305056	1646
2855.10736402802	1702
2857.17765601545	1689
2859.24737928074	1751
2861.31653409164	1730
2863.38512071574	1802
2865.45313942054	1798
2867.52059047335	1800
2869.58747414139	1839
2871.65379069173	1832
2873.7195403913	1806
2875.78472350688	1811
2877.84934030515	1734
2879.91339105262	1759
2881.97687601567	1742
2884.03979546053	1711
2886.10214965332	1738
2888.16393886	1731
2890.22516334639	1813
2892.28582337816	1825
2894.34591922087	1864
2896.40545113992	1969
2898.46441940054	1973
2900.52282426787	2005
2902.58066600687	1980
2904.63794488237	2027
2906.69466115906	1924
2908.75081510147	1929
2910.806406974	1888
2912.8614370409	1870
2914.91590556626	1873
2916.96981281404	1866
2919.02315904807	1872
2921.07594453199	1917
2923.12816952932	1870
2925.17983430343	1884
2927.23093911753	1920
2929.28148423469	1867
2931.33146991782	1839
2933.3808964297	1833
2935.42976403294	1800
2937.47807299	1699
2939.5258235632	1705
2941.57301601469	1647
2943.61965060648	1603
2945.66572760042	1588
2947.71124725823	1564
2949.75620984143	1532
2951.80061561143	1512
2953.84446482945	1511
2955.88775775656	1447
2957.9304946537	1446
2959.97267578162	1424
2962.01430140095	1430
2964.05537177211	1421
2966.09588715541	1345
2968.13584781097	1373
2970.17525399875	1349
2972.21410597859	1312
2974.25240401011	1308
2976.29014835283	1324
2978.32733926604	1296
2980.36397700892	1263
2982.40006184049	1271
2984.43559401955	1273
2986.4705738048	1247
2988.50500145473	1235
2990.53887722771	1208
2992.57220138189	1209
2994.6049741753	1225
2996.63719586576	1217
2998.66886671097	1209
3000.69998696843	1208
3002.73055689549	1202
3004.7605767493	1234
3006.79004678688	1214
3008.81896726505	1189
3010.84733844048	1178
3012.87516056966	1185
3014.9024339089	1191
3016.92915871433	1168
3018.95533524196	1205
3020.98096374756	1181
3023.00604448675	1178
3025.030577715	1204
3027.05456368757	1166
3029.07800265956	1184
3031.10089488589	1186
3033.12324062131	1214
3035.14504012038	1176
3037.16629363749	1207
3039.18700142685	1224
3041.20716374249	1220
3043.22678083826	1211
3045.24585296782	1248
3047.26438038468	1249
3049.28236334212	1257
3051.29980209329	1300
3053.31669689111	1305
3055.33304798835	1263
3057.34885563757	1285
3059.36412009117	1229
3061.37884160134	1243
3063.39302042011	1212
3065.40665679931	1179
3067.41975099058	1199
3069.43230324538	1191
3071.44431381495	1193
3073.45578295041	1186
3075.46671090261	1176
3077.47709792227	1153
3079.48694425989	1182
3081.49625016578	1181
3083.50501589008	1154
3085.5132416827	1168
3087.5209277934	1187
3089.52807447169	1161
3091.53468196695	1167
3093.54075052832	1164
3095.54628040476	1173
3097.55127184503	1182
3099.55572509769	1181
3101.55964041111	1159
3103.56301803346	1152
3105.5658582127	1147
3107.56816119661	1163
3109.56992723275	1162
3111.57115656849	1140
3113.571849451	1148
3115.57200612724	1159
3117.57162684397	1136
3119.57071184775	1169
3121.56926138493	1139
3123.56727570166	1161
3125.56475504389	1149
3127.56169965735	1162
3129.55810978757	1162
3131.55398567987	1166
3133.54932757937	1146
3135.54413573099	1139
3137.53841037939	1142
3139.53215176909	1174
3141.52536014435	1161
3143.51803574924	1126
3145.51017882762	1142
3147.50178962311	1165
3149.49286837916	1159
3151.48341533897	1161
3153.47343074553	1168
3155.46291484164	1162
3157.45186786985	1129
3159.44029007252	1121
3161.42818169179	1145
3163.41554296955	1166
3165.40237414753	1136
3167.38867546718	1122
3169.37444716975	1162
3171.35968949631	1139
3173.34440268764	1157
3175.32858698436	1131
3177.31224262682	1119
3179.29536985517	1154
3181.27796890934	1176
3183.26004002902	1152
3185.24158345368	1186
3187.22259942256	1164
3189.2030881747	1134
3191.18304994886	1162
3193.16248498363	1155
3195.14139351733	1166
3197.11977578807	1123
3199.09763203371	1126
3201.07496249191	1155
3203.05176740007	1161
3205.02804699537	1170
3207.00380151475	1169
3208.97903119493	1178
3210.95373627238	1129
3212.92791698335	1146
3214.90157356383	1168
3216.8747062496	1183
3218.84731527619	1174
3220.81940087889	1163
3222.79096329275	1176
3224.76200275259	1159
3226.73251949298	1185
3228.70251374825	1210
3230.67198575251	1146
3232.64093573959	1157
3234.6093639431	1164
3236.57727059641	1186
3238.54465593261	1173
3240.51152018461	1167
3242.47786358502	1169
3244.44368636621	1191
3246.40898876031	1171
3248.37377099923	1208
3250.33803331458	1186
3252.30177593775	1177
3254.26499909987	1191
3256.22770303184	1219
3258.18988796427	1180
3260.15155412755	1222
3262.1127017518	1197
3264.0733310669	1215
3266.03344230246	1227
3267.99303568784	1211
3269.95211145215	1177
3271.91066982422	1211
3273.86871103267	1252
3275.82623530581	1225
3277.7832428717	1259
3279.73973395818	1249
3281.69570879278	1272
3283.6511676028	1235
3285.60611061527	1256
3287.56053805694	1215
3289.51445015432	1224
3291.46784713364	1288
3293.42072922088	1320
3295.37309664173	1300
3297.32494962163	1296
3299.27628838575	1347
3301.227113159	1322
3303.17742416601	1341
3305.12722163114	1340
3307.07650577848	1335
3309.02527683185	1297
3310.9735350148	1288
3312.9212805506	1341
3314.86851366225	1314
3316.81523457249	1309
3318.76144350377	1273
3320.70714067825	1324
3322.65232631783	1246
3324.59700064415	1241
3326.54116387854	1269
3328.48481624207	1286
3330.42795795551	1249
3332.37058923938	1227
3334.31271031389	1215
3336.25432139898	1212
3338.19542271432	1237
3340.13601447927	1247
3342.07609691292	1227
3344.01567023407	1236
3345.95473466124	1230
3347.89329041266	1229
3349.83133770627	1199
3351.76887675973	1221
3353.70590779039	1223
3355.64243101534	1202
3357.57844665135	1227
3359.51395491492	1215
3361.44895602224	1213
3363.38345018922	1201
3365.31743763148	1232
3367.25091856432	1211
3369.18389320278	1181
3371.11636176156	1214
3373.0483244551	1191
3374.97978149754	1206
3376.91073310269	1187
3378.84117948409	1203
3380.77112085498	1220
3382.70055742826	1192
3384.62948941659	1185
3386.55791703227	1208
3388.48584048733	1202
3390.41325999348	1184
3392.34017576214	1190
3394.2665880044	1204
3396.19249693107	1205
3398.11790275263	1160
3400.04280567926	1208
3401.96720592084	1212
3403.89110368692	1184
3405.81449918675	1193
3407.73739262928	1186
3409.65978422311	1202
3411.58167417658	1204
3413.50306269768	1199
3415.42394999408	1196
3417.34433627316	1191
3419.26422174195	1188
3421.18360660721	1183
3423.10249107532	1196
3425.02087535239	1211
3426.93875964421	1208
3428.8561441562	1164
3430.77302909353	1203
3432.68941466097	1177
3434.60530106301	1185
3436.52068850383	1179
3438.43557718726	1199
3440.34996731681	1212
3442.26385909565	1183
3444.17725272664	1175
3446.09014841231	1213
3448.00254635486	1190
3449.91444675614	1208
3451.82584981771	1217
3453.73675574076	1200
3455.64716472616	1197
3457.55707697445	1191
3459.46649268584	1186
3461.37541206018	1185
3463.28383529703	1210
3465.19176259555	1160
3467.09919415464	1192
3469.00613017278	1170
3470.91257084817	1170
3472.81851637863	1197
3474.72396696168	1188
3476.62892279446	1179
3478.53338407379	1199
3480.43735099614	1181
3482.34082375764	1185
3484.24380255404	1188
3486.1462875808	1184
3488.048279033	1204
3489.94977710537	1188
3491.85078199231	1159
3493.75129388783	1160
3495.65131298566	1159
3497.5508394791	1188
3499.44987356115	1179
