200.090469251518	2624
202.974751419362	2664
205.858021632263	2617
208.740280737522	2685
211.621529580443	2689
214.501769004371	2648
217.380999850626	2697
220.25922295859	2680
223.136439165646	2692
226.012649307235	2697
228.88785421682	2684
231.762054725918	2645
234.635251664113	2661
237.507445859021	2675
240.378638136346	2682
243.248829319855	2714
246.11802023137	2720
248.986211690826	2783
251.853404516227	2795
254.719599523654	2781
257.584797527335	2855
260.44899933954	2853
263.312205770682	2906
266.174417629303	2890
269.035635722015	2904
271.895860853609	2908
274.755093826978	2893
277.613335443144	2863
280.470586501309	2834
283.326847798766	2759
286.182120131019	2740
289.036404291684	2708
291.889701072574	2711
294.742011263643	2641
297.593335653048	2599
300.443675027094	2637
303.293030170295	2649
306.141401865367	2641
308.988790893174	2589
311.835198032837	2575
314.680624061635	2522
317.525069755113	2532
320.36853588697	2577
323.211023229178	2535
326.052532551923	2554
328.893064623604	2517
331.732620210885	2524
334.57120007867	2597
337.408804990093	2583
340.245435706565	2548
343.081092987733	2588
345.915777591523	2544
348.749490274145	2584
351.582231790049	2636
354.414002891997	2547
357.244804331021	2583
360.074636856443	2616
362.903501215886	2638
365.731398155265	2637
368.558328418814	2630
371.384292749062	2624
374.209291886869	2652
377.033326571407	2587
379.85639754017	2661
382.678505529009	2585
385.499651272065	2641
388.319835501872	2618
391.139058949258	2579
393.957322343453	2605
396.774626412011	2668
399.590971880847	2629
402.406359474258	2624
405.220789914893	2683
408.034263923801	2687
410.8467822204	2680
413.658345522483	2657
416.468954546242	2665
419.278610006277	2643
422.087312615557	2659
424.895063085503	2664
427.701862125901	2708
430.507710444981	2663
433.312608749366	2696
436.116557744146	2715
438.919558132791	2615
441.721610617238	2763
444.522715897856	2720
447.322874673457	2679
450.122087641299	2639
452.920355497092	2716
455.717678935009	2663
458.514058647681	2668
461.309495326219	2652
464.103989660191	2646
466.89754233765	2688
469.690154045114	2644
472.481825467625	2684
475.272557288674	2666
478.062350190281	2692
480.851204852952	2714
483.639121955683	2684
486.426102176007	2747
489.212146189955	2680
491.997254672093	2663
494.781428295471	2692
497.564667731716	2718
500.346973650958	2720
503.128346721878	2772
505.90878761169	2746
508.688296986151	2716
511.46687550957	2782
514.244523844831	2812
517.021242653354	2720
519.797032595132	2702
522.571894328732	2730
525.345828511279	2809
528.11883579849	2798
530.890916844655	2777
533.662072302668	2726
536.432302823985	2717
539.201609058684	2762
541.96999165542	2726
544.737451261473	2731
547.503988522723	2744
550.26960408366	2763
553.034298587394	2738
555.798072675669	2722
558.560926988819	2786
561.322862165849	2739
564.083878844369	2742
566.843977660654	2743
569.603159249604	2758
572.361424244769	2780
575.118773278369	2789
577.87520698124	2789
580.630725982905	2777
583.385330911566	2746
586.139022394076	2768
588.891801055954	2770
591.643667521406	2768
594.394622413318	2765
597.144666353273	2754
599.893799961512	2722
602.64202385701	2761
605.389338657413	2787
608.135744979089	2748
610.881243437092	2779
613.625834645191	2788
616.369519215881	2783
619.112297760374	2766
621.854170888604	2908
624.595139209225	3079
627.335203329614	3408
630.074363855914	3748
632.81262139299	3766
635.549976544436	3409
638.286429912612	3040
641.021982098635	2892
643.756633702364	2809
646.49038532241	2814
649.223237556176	2772
651.955190999808	2763
654.686246248224	2813
657.416403895135	2761
660.145664533011	2811
662.874028753133	2810
665.601497145537	2824
668.328070299071	2772
671.05374880138	2831
673.778533238885	2842
676.502424196839	2876
679.225422259297	2846
681.947528009099	2823
684.668742027927	2834
687.389064896281	2783
690.108497193465	2772
692.827039497621	2848
695.544692385724	2992
698.261456433585	3058
700.977332215847	3225
703.692320305981	3179
706.406421276337	3142
709.11963569808	3037
711.831964141256	2944
714.54340717474	2860
717.253965366304	2822
719.963639282552	2940
722.672429488961	2850
725.380336549904	2869
728.087361028596	2872
730.793503487166	2895
733.498764486594	2896
736.203144586758	2850
738.906644346447	2810
741.60926432331	2940
744.311005073912	2903
747.011867153727	2876
749.711851117121	2813
752.410957517375	2946
755.109186906677	2920
757.806539836132	2902
760.503016855779	2890
763.198618514551	2932
765.893345360346	2932
768.587197939964	2887
771.28017679914	2873
773.972282482566	2951
776.663515533859	2920
779.353876495581	2950
782.043365909241	2937
784.731984315327	2996
787.419732253235	3134
790.106610261366	3240
792.792618877058	3296
795.477758636618	3353
798.162030075313	3274
800.845433727423	3148
803.52797012615	3144
806.209639803714	3194
808.890443291304	3221
811.570381119098	3226
814.249453816265	3269
816.927661910959	3300
819.60500593036	3337
822.281486400603	3329
824.957103846864	3355
827.631858793316	3414
830.305751763135	3347
832.978783278519	3342
835.650953860677	3374
838.322264029848	3390
840.992714305292	3473
843.662305205289	3632
846.331037247157	3870
848.998910947241	4013
851.665926820933	4361
854.332085382674	4444
856.997387145915	4466
859.661832623191	4304
862.325422326066	4065
864.988156765172	3772
867.650036450181	3525
870.311061889846	3425
872.971233591961	3426
875.630552063409	3402
878.28901781013	3415
880.946631337138	3511
883.603393148533	3401
886.259303747484	3428
888.914363636246	3428
891.568573316155	3379
894.22193328767	3263
896.874444050281	3275
899.526106102625	3224
902.176919942416	3202
904.826886066483	3141
907.476004970747	3091
910.124277150255	3113
912.77170309913	3109
915.418283310642	3095
918.064018277175	3064
920.708908490222	3058
923.352954440405	3096
925.996156617486	3037
928.638515510334	3039
931.280031606966	3079
933.920705394521	3042
936.560537359303	3040
939.199527986737	3024
941.837677761392	3039
944.474987167006	3070
947.111456686438	3062
949.747086801734	3072
952.38187799407	3044
955.015830743792	3068
957.648945530418	3103
960.281222832633	3106
962.91266312826	3078
965.543266894336	3050
968.173034607058	3046
970.801966741779	3157
973.43006377307	3093
976.057326174661	3116
978.683754419471	3089
981.309348979623	3140
983.93411032642	3105
986.558038930361	3191
989.181135261144	3194
991.803399787692	3202
994.424832978086	3149
997.045435299653	3186
999.665207218906	3196
1002.2841492016	3221
1004.90226171266	3205
1007.51954521628	3207
1010.13600017584	3203
1012.75162705397	3264
1015.3664263125	3225
1017.9803984125	3278
1020.5935438143	3349
1023.20586297741	3298
1025.81735636063	3367
1028.42802442196	3324
1031.03786761869	3373
1033.64688640732	3320
1036.2550812436	3356
1038.86245258255	3323
1041.46900087844	3282
1044.07472658479	3359
1046.67963015438	3319
1049.28371203927	3331
1051.88697269075	3224
1054.48941255943	3309
1057.09103209513	3236
1059.691831747	3232
1062.29181196343	3284
1064.89097319211	3259
1067.48931587999	3291
1070.08684047333	3301
1072.68354741766	3343
1075.27943715779	3324
1077.87451013787	3343
1080.46876680127	3436
1083.06220759071	3431
1085.65483294822	3490
1088.24664331509	3475
1090.83763913194	3692
1093.42782083869	3680
1096.01718887459	3726
1098.60574367818	3778
1101.19348568732	3856
1103.78041533919	3906
1106.3665330703	3857
1108.95183931646	3993
1111.53633451284	3984
1114.12001909391	4068
1116.70289349349	4093
1119.2849581447	4058
1121.86621348005	4089
1124.44665993134	3987
1127.02629792973	3897
1129.60512790574	3781
1132.18315028919	3718
1134.76036550929	3636
1137.3367739946	3560
1139.912376173	3447
1142.48717247176	3396
1145.06116331748	3371
1147.63434913616	3395
1150.20673035312	3427
1152.77830739307	3434
1155.34908068007	3358
1157.91905063757	3394
1160.48821768838	3395
1163.05658225471	3462
1165.6241447581	3495
1168.19090561951	3656
1170.75686525927	3780
1173.32202409708	3835
1175.88638255206	3884
1178.44994104269	3800
1181.01269998684	3702
1183.57465980182	3537
1186.13582090427	3456
1188.69618371026	3499
1191.25574863529	3352
1193.8145160942	3419
1196.37248650129	3386
1198.92966027025	3341
1201.48603781416	3357
1204.04161954556	3372
1206.59640587635	3345
1209.15039721788	3380
1211.70359398092	3371
1214.25599657564	3361
1216.80760541166	3368
1219.35842089801	3290
1221.90844344314	3408
1224.45767345496	3361
1227.00611134077	3338
1229.55375750736	3457
1232.10061236092	3513
1234.64667630707	3537
1237.1919497509	3514
1239.73643309692	3525
1242.28012674912	3543
1244.82303111089	3568
1247.36514658511	3648
1249.9064735741	3689
1252.44701247964	3654
1254.98676370294	3775
1257.52572764469	3893
1260.06390470506	3950
1262.60129528365	4064
1265.13789977954	4212
1267.67371859128	4422
1270.20875211688	4402
1272.74300075384	4515
1275.2764648991	4684
1277.80914494911	4871
1280.34104129978	5018
1282.87215434652	5185
1285.40248448419	5306
1287.93203210715	5350
1290.46079760927	5312
1292.98878138385	5044
1295.51598382375	4859
1298.04240532127	4684
1300.56804626822	4540
1303.09290705593	4551
1305.6169880752	4399
1308.14028971632	4319
1310.66281236913	4214
1313.18455642292	4135
1315.70552226653	3978
1318.22571028829	3941
1320.74512087603	3909
1323.26375441711	3695
1325.7816112984	3744
1328.29869190629	3768
1330.81499662666	3659
1333.33052584497	3726
1335.84527994613	3700
1338.35925931464	3718
1340.87246433446	3753
1343.38489538916	3748
1345.89655286177	3714
1348.40743713487	3673
1350.91754859059	3710
1353.42688761059	3849
1355.93545457606	3758
1358.44324986772	3777
1360.95027386588	3792
1363.45652695032	3761
1365.96200950042	3858
1368.4667218951	3855
1370.97066451281	3893
1373.47383773156	3891
1375.97624192891	3829
1378.47787748199	3848
1380.97874476746	3789
1383.47884416157	3791
1385.97817604009	3739
1388.4767407784	3667
1390.9745387514	3649
1393.47157033358	3687
1395.96783589898	3752
1398.46333582124	3758
1400.95807047354	3755
1403.45204022864	3851
1405.94524545889	3930
1408.4376865362	3955
1410.92936383205	3982
1413.42027771752	4050
1415.91042856328	3835
1418.39981673955	3783
1420.88844261615	3780
1423.37630656249	3743
1425.86340894757	3784
1428.34975013999	3790
1430.83533050792	3828
1433.32015041912	3889
1435.80421024098	3993
1438.28751034045	4022
1440.77005108411	4074
1443.25183283812	4049
1445.73285596824	4108
1448.21312083984	4127
1450.69262781791	4120
1453.17137726702	4103
1455.64936955137	4088
1458.12660503477	4094
1460.60308408063	4023
1463.07880705197	4002
1465.55377431145	4065
1468.02798622133	3953
1470.50144314348	3884
1472.97414543941	3844
1475.44609347024	3937
1477.91728759673	3932
1480.38772817924	3863
1482.85741557777	3852
1485.32635015194	3875
1487.79453226103	3922
1490.26196226391	3866
1492.72864051911	3842
1495.1945673848	3891
1497.65974321874	3847
1500.1241683784	3880
1502.58784322083	3860
1505.05076810274	3897
1507.51294338049	3859
1509.97436941009	3907
1512.43504654717	3797
1514.89497514704	3852
1517.35415556462	3912
1519.81258815451	3876
1522.27027327095	3803
1524.72721126784	3855
1527.18340249874	3903
1529.63884731684	3885
1532.09354607502	3894
1534.5474991258	3910
1537.00070682136	3920
1539.45316951355	4005
1541.90488755388	3896
1544.35586129353	3895
1546.80609108336	3933
1549.25557727385	3953
1551.70432021519	4010
1554.15232025725	4030
1556.59957774953	3998
1559.04609304125	4100
1561.49186648127	4039
1563.93689841815	4059
1566.38118920011	4129
1568.82473917506	4005
1571.2675486906	4090
1573.70961809399	4203
1576.15094773219	4165
1578.59153795184	4233
1581.03138909928	4206
1583.47050152051	4228
1585.90887556123	4286
1588.34651156686	4330
1590.78340988246	4302
1593.21957085283	4384
1595.65499482245	4551
1598.08968213547	4894
1600.52363313578	5179
1602.95684816694	5913
1605.38932757224	6951
1607.82107169462	8565
1610.25208087677	10426
1612.68235546107	11478
1615.1118957896	10957
1617.54070220415	8829
1619.96877504621	6672
1622.39611465701	5503
1624.82272137746	4756
1627.24859554818	4422
1629.67373750953	4242
1632.09814760155	4260
1634.52182616404	4224
1636.94477353647	4144
1639.36699005806	4103
1641.78847606776	4145
1644.20923190418	4084
1646.62925790573	4117
1649.04855441048	4094
1651.46712175628	4107
1653.88496028066	4188
1656.3020703209	4142
1658.71845221401	4105
1661.13410629671	4115
1663.54903290547	4101
1665.96323237649	4162
1668.37670504571	4157
1670.78945124877	4137
1673.20147132109	4231
1675.61276559779	4309
1678.02333441377	4240
1680.43317810362	4294
1682.84229700171	4386
1685.25069144213	4320
1687.65836175872	4431
1690.06530828507	4386
1692.47153135451	4386
1694.87703130009	4398
1697.28180845467	4513
1699.6858631508	4539
1702.08919572081	4714
1704.49180649676	4863
1706.89369581049	5053
1709.29486399355	5446
1711.69531137731	6016
1714.09503829282	6645
1716.49404507095	7248
1718.89233204229	7809
1721.28989953721	8167
1723.68674788581	8214
1726.08287741798	8359
1728.47828846338	8086
1730.87298135139	7865
1733.26695641119	7509
1735.66021397173	6972
1738.05275436169	6464
1740.44457790954	6071
1742.83568494354	5646
1745.22607579168	5309
1747.61575078175	4937
1750.00471024128	4761
1752.39295449761	4741
1754.78048387783	4558
1757.16729870881	4474
1759.5533993172	4509
1761.93878602942	4427
1764.32345917168	4331
1766.70741906995	4417
1769.09066604999	4388
1771.47320043735	4424
1773.85502255735	4376
1776.2361327351	4376
1778.61653129548	4329
1780.99621856318	4373
1783.37519486264	4403
1785.75346051813	4383
1788.13101585368	4399
1790.5078611931	4473
1792.88399686002	4334
1795.25942317785	4460
1797.63414046977	4388
1800.00814905878	4494
1802.38144926766	4500
1804.75404141898	4393
1807.12592583514	4437
1809.49710283829	4551
1811.86757275039	4397
1814.23733589322	4432
1816.60639258834	4396
1818.97474315712	4447
1821.34238792073	4515
1823.70932720012	4405
1826.07556131608	4583
1828.44109058918	4416
1830.8059153398	4464
1833.17003588812	4415
1835.53345255413	4489
1837.89616565765	4433
1840.25817551827	4434
1842.61948245541	4482
1844.9800867883	4527
1847.33998883598	4462
1849.69918891729	4489
1852.05768735091	4515
1854.4154844553	4443
1856.77258054875	4473
1859.12897594938	4505
1861.4846709751	4500
1863.83966594366	4474
1866.19396117261	4477
1868.54755697932	4464
1870.90045368099	4514
1873.25265159463	4489
1875.60415103708	4519
1877.95495232501	4506
1880.30505577486	4501
1882.65446170299	4516
1885.00317042548	4593
1887.35118225832	4592
1889.69849751726	4579
1892.04511651792	4576
1894.39103957574	4703
1896.73626700596	4681
1899.08079912368	4609
1901.42463624384	4665
1903.76777868116	4722
1906.11022675025	4716
1908.4519807655	4693
1910.79304104117	4659
1913.13340789134	4806
1915.47308162992	4734
1917.81206257067	4694
1920.15035102718	4810
1922.48794731286	4752
1924.82485174096	4807
1927.16106462461	4808
1929.49658627672	4778
1931.83141701008	4778
1934.1655571373	4751
1936.49900697085	4810
1938.83176682301	4763
1941.16383700594	4817
1943.49521783161	4809
1945.82590961186	4788
1948.15591265835	4778
1950.48522728262	4831
1952.81385379602	4898
1955.14179250976	4714
1957.46904373489	4748
1959.79560778233	4782
1962.12148496284	4783
1964.44667558701	4828
1966.77117996529	4817
1969.09499840799	4903
1971.41813122527	4766
1973.74057872714	4839
1976.06234122345	4893
1978.38341902391	4838
1980.7038124381	4960
1983.02352177543	4874
1985.34254734518	4816
1987.66088945649	4951
1989.97854841833	4932
1992.29552453956	4924
1994.61181812887	4918
1996.92742949483	4953
1999.24235894586	5002
2001.55660679023	4927
2003.87017333608	4999
2006.18305889143	5006
2008.49526376413	5007
2010.80678826189	5075
2013.1176326923	5076
2015.42779736282	5056
2017.73728258075	5085
2020.04608865326	5039
2022.3542158874	5196
2024.66166459008	5140
2026.96843506807	5160
2029.274527628	5148
2031.57994257637	5172
2033.88468021957	5232
2036.18874086383	5174
2038.49212481526	5187
2040.79483237983	5133
2043.0968638634	5214
2045.39821957169	5225
2047.69889981028	5277
2049.99890488462	5309
2052.29823510006	5215
2054.59689076181	5202
2056.89487217492	5267
2059.19217964437	5173
2061.48881347497	5213
2063.7847739714	5271
2066.08006143826	5333
2068.37467618	5194
2070.66861850093	5282
2072.96188870527	5246
2075.25448709707	5208
2077.54641398031	5362
2079.83766965881	5320
2082.12825443629	5316
2084.41816861634	5286
2086.70741250242	5277
2088.99598639789	5298
2091.28389060597	5265
2093.57112542978	5369
2095.85769117232	5342
2098.14358813644	5306
2100.42881662491	5382
2102.71337694037	5445
2104.99726938532	5395
2107.28049426219	5318
2109.56305187325	5434
2111.84494252069	5434
2114.12616650655	5380
2116.40672413278	5404
2118.68661570121	5459
2120.96584151355	5512
2123.24440187138	5467
2125.52229707622	5490
2127.79952742943	5485
2130.07609323227	5505
2132.35199478588	5558
2134.62723239132	5556
2136.90180634949	5558
2139.17571696123	5544
2141.44896452723	5620
2143.72154934809	5590
2145.99347172429	5625
2148.26473195623	5644
2150.53533034415	5597
2152.80526718821	5728
2155.07454278848	5696
2157.3431574449	5743
2159.61111145728	5643
2161.87840512538	5705
2164.1450387488	5676
2166.41101262707	5874
2168.67632705959	5821
2170.94098234567	5687
2173.20497878451	5675
2175.46831667519	5766
2177.73099631672	5858
2179.99301800797	5746
2182.25438204772	5780
2184.51508873466	5797
2186.77513836735	5714
2189.03453124427	5842
2191.29326766378	5831
2193.55134792416	5815
2195.80877232355	5794
2198.06554116004	5832
2200.32165473157	5812
2202.577113336	5796
2204.83191727111	5803
2207.08606683453	5954
2209.33956232384	5886
2211.59240403648	6011
2213.84459226982	5924
2216.09612732112	5971
2218.34700948753	5838
2220.59723906612	5927
2222.84681635385	5916
2225.09574164758	5984
2227.34401524408	5934
2229.59163744002	5984
2231.83860853197	5971
2234.08492881639	6085
2236.33059858968	5917
2238.5756181481	6074
2240.81998778784	5989
2243.06370780499	6020
2245.30677849555	6087
2247.54920015539	6098
2249.79097308033	6114
2252.03209756607	5994
2254.27257390822	6111
2256.51240240228	6025
2258.75158334369	6013
2260.99011702777	6086
2263.22800374976	6134
2265.46524380477	6029
2267.70183748786	6115
2269.93778509399	6108
2272.17308691801	6145
2274.40774325467	6031
2276.64175439866	6275
2278.87512064454	6151
2281.10784228682	6159
2283.33991961987	6136
2285.571352938	6175
2287.80214253541	6096
2290.03228870623	6179
2292.26179174449	6162
2294.4906519441	6267
2296.71886959892	6248
2298.9464450027	6280
2301.1733784491	6271
2303.39967023169	6205
2305.62532064395	6271
2307.85032997926	6247
2310.07469853093	6286
2312.29842659216	6310
2314.52151445608	6308
2316.7439624157	6301
2318.96577076397	6382
2321.18693979374	6277
2323.40746979777	6320
2325.62736106873	6401
2327.8466138992	6445
2330.06522858166	6447
2332.28320540853	6461
2334.50054467212	6374
2336.71724666465	6451
2338.93331167827	6404
2341.14874000501	6453
2343.36353193685	6363
2345.57768776564	6421
2347.79120778319	6361
2350.00409228117	6415
2352.21634155121	6511
2354.42795588482	6392
2356.63893557342	6414
2358.84928090838	6381
2361.05899218094	6489
2363.26806968228	6401
2365.47651370347	6518
2367.68432453552	6513
2369.89150246933	6453
2372.09804779571	6377
2374.30396080541	6471
2376.50924178907	6476
2378.71389103725	6447
2380.91790884042	6384
2383.12129548897	6460
2385.3240512732	6415
2387.52617648332	6429
2389.72767140946	6502
2391.92853634165	6522
2394.12877156985	6527
2396.32837738392	6619
2398.52735407365	6529
2400.72570192873	6415
2402.92342123875	6453
2405.12051229325	6431
2407.31697538167	6475
2409.51281079333	6385
2411.70801881751	6538
2413.90259974339	6575
2416.09655386004	6548
2418.28988145648	6455
2420.48258282162	6513
2422.6746582443	6548
2424.86610801325	6656
2427.05693241713	6526
2429.24713174452	6580
2431.43670628389	6543
2433.62565632365	6642
2435.81398215212	6549
2438.00168405752	6496
2440.18876232799	6504
2442.37521725158	6623
2444.56104911628	6636
2446.74625820994	6568
2448.93084482038	6531
2451.1148092353	6579
2453.29815174233	6650
2455.480872629	6599
2457.66297218275	6534
2459.84445069097	6512
2462.02530844092	6547
2464.2055457198	6483
2466.38516281471	6573
2468.56416001267	6544
2470.74253760061	6528
2472.92029586537	6435
2475.09743509372	6578
2477.27395557232	6489
2479.44985758777	6548
2481.62514142655	6665
2483.79980737508	6676
2485.97385571969	6638
2488.14728674661	6615
2490.32010074198	6682
2492.49229799188	6666
2494.66387878228	6627
2496.83484339905	6642
2499.00519212802	6683
2501.17492525488	6524
2503.34404306528	6616
2505.51254584473	6665
2507.6804338787	6692
2509.84770745254	6708
2512.01436685153	6693
2514.18041236085	6760
2516.34584426561	6769
2518.51066285081	6624
2520.67486840138	6858
2522.83846120214	6830
2525.00144153784	6735
2527.16380969314	6812
2529.32556595261	6781
2531.48671060072	6859
2533.64724392186	6756
2535.80716620033	6797
2537.96647772034	6869
2540.12517876602	6869
2542.2832696214	6820
2544.44075057041	6893
2546.59762189691	6871
2548.75388388466	6813
2550.90953681735	6847
2553.06458097853	6816
2555.21901665172	6879
2557.37284412031	6875
2559.5260636676	6931
2561.67867557684	6860
2563.83068013113	6814
2565.98207761351	6898
2568.13286830695	6965
2570.28305249429	6876
2572.43263045829	6866
2574.58160248163	6890
2576.72996884689	6847
2578.87772983655	7038
2581.02488573303	6919
2583.1714368186	7001
2585.31738337549	6886
2587.46272568582	6969
2589.60746403161	6875
2591.75159869479	7006
2593.89512995722	6863
2596.03805810061	7012
2598.18038340665	6963
2600.32210615686	6985
2602.46322663274	6964
2604.60374511563	7078
2606.74366188683	6942
2608.88297722751	6981
2611.02169141875	6954
2613.15980474156	7106
2615.29731747681	7051
2617.43422990532	7016
2619.57054230779	6983
2621.70625496483	7010
2623.84136815694	7013
2625.97588216456	7029
2628.10979726799	7059
2630.24311374746	7130
2632.3758318831	7097
2634.50795195493	7148
2636.6394742429	7139
2638.77039902682	7177
2640.90072658645	7076
2643.0304572014	7216
2645.15959115123	7082
2647.28812871538	7170
2649.41607017319	7155
2651.5434158039	7175
2653.67016588665	7044
2655.79632070049	7167
2657.92188052436	7170
2660.04684563711	7215
2662.17121631749	7281
2664.29499284413	7261
2666.41817549558	7189
2668.54076455027	7236
2670.66276028656	7236
2672.78416298267	7259
2674.90497291675	7226
2677.02519036682	7199
2679.14481561082	7300
2681.26384892658	7275
2683.38229059182	7160
2685.50014088417	7188
2687.61740008114	7353
2689.73406846017	7351
2691.85014629854	7334
2693.96563387347	7317
2696.08053146206	7397
2698.1948393413	7265
2700.3085577881	7224
2702.42168707924	7247
2704.53422749139	7327
2706.64617930112	7257
2708.75754278492	7192
2710.86831821913	7338
2712.97850588002	7281
2715.08810604372	7400
2717.19711898628	7307
2719.30554498363	7344
2721.41338431158	7268
2723.52063724586	7501
2725.62730406206	7422
2727.73338503569	7393
2729.83888044213	7412
2731.94379055664	7537
2734.04811565441	7394
2736.15185601048	7540
2738.25501189979	7546
2740.35758359718	7469
2742.45957137738	7527
2744.56097551499	7415
2746.6617962845	7588
2748.7620339603	7524
2750.86168881666	7525
2752.96076112774	7512
2755.05925116758	7683
2757.15715921012	7522
2759.25448552917	7551
2761.35123039843	7541
2763.44739409148	7707
2765.5429768818	7557
2767.63797904275	7521
2769.73240084756	7618
2771.82624256934	7625
2773.91950448113	7705
2776.01218685579	7794
2778.10428996609	7752
2780.19581408469	7699
2782.28675948414	7741
2784.37712643683	7840
2786.46691521507	7901
2788.55612609104	7717
2790.64475933678	7782
2792.73281522425	7632
2794.82029402525	7870
2796.90719601149	7739
2798.99352145453	7634
2801.07927062583	7743
2803.16444379672	7854
2805.24904123841	7827
2807.33306322197	7768
2809.41651001838	7784
2811.49938189847	7846
2813.58167913296	7882
2815.66340199243	7785
2817.74455074734	7835
2819.82512566805	7801
2821.90512702475	7786
2823.98455508754	7807
2826.06341012637	7751
2828.14169241109	7856
2830.2194022114	7957
2832.29653979686	7927
2834.37310543694	7914
2836.44909940096	7895
2838.5245219581	7986
2840.59937337744	7938
2842.67365392791	7935
2844.74736387829	7924
2846.82050349727	7937
2848.8930730534	8024
2850.96507281506	8108
2853.03650305056	8078
2855.10736402802	8063
2857.17765601545	8135
2859.24737928074	8154
2861.31653409164	8067
2863.38512071574	8068
2865.45313942054	8295
2867.52059047335	8270
2869.58747414139	8348
2871.65379069173	8313
2873.7195403913	8390
2875.78472350688	8429
2877.84934030515	8453
2879.91339105262	8438
2881.97687601567	8470
2884.03979546053	8430
2886.10214965332	8470
2888.16393886	8658
2890.22516334639	8582
2892.28582337816	8672
2894.34591922087	8672
2896.40545113992	8602
2898.46441940054	8736
2900.52282426787	8703
2902.58066600687	8697
2904.63794488237	8772
2906.69466115906	8689
2908.75081510147	8811
2910.806406974	8708
2912.8614370409	8724
2914.91590556626	8712
2916.96981281404	8736
2919.02315904807	8476
2921.07594453199	8607
2923.12816952932	8588
2925.17983430343	8708
2927.23093911753	8664
2929.28148423469	8790
2931.33146991782	8652
2933.3808964297	8705
2935.42976403294	8933
2937.47807299	8876
2939.5258235632	8900
2941.57301601469	9056
2943.61965060648	9337
2945.66572760042	9455
2947.71124725823	9720
2949.75620984143	10000
2951.80061561143	10178
2953.84446482945	10275
2955.88775775656	10640
2957.9304946537	10822
2959.97267578162	10811
2962.01430140095	10834
2964.05537177211	10773
2966.09588715541	10758
2968.13584781097	10608
2970.17525399875	10575
2972.21410597859	10099
2974.25240401011	10236
2976.29014835283	10004
2978.32733926604	9947
2980.36397700892	9907
2982.40006184049	9782
2984.43559401955	9659
2986.4705738048	9736
2988.50500145473	9737
2990.53887722771	9653
2992.57220138189	9763
2994.6049741753	9798
2996.63719586576	9753
2998.66886671097	9811
3000.69998696843	9812
3002.73055689549	9800
3004.7605767493	9805
3006.79004678688	9690
3008.81896726505	9622
3010.84733844048	9405
3012.87516056966	9531
3014.9024339089	9582
3016.92915871433	9767
3018.95533524196	9540
3020.98096374756	9687
3023.00604448675	9609
3025.030577715	9585
3027.05456368757	9543
3029.07800265956	9536
3031.10089488589	9497
3033.12324062131	9632
3035.14504012038	9501
3037.16629363749	9454
3039.18700142685	9578
3041.20716374249	9475
3043.22678083826	9469
3045.24585296782	9548
3047.26438038468	9643
3049.28236334212	9521
3051.29980209329	9833
3053.31669689111	9745
3055.33304798835	10015
3057.34885563757	10182
3059.36412009117	10130
3061.37884160134	10349
3063.39302042011	10494
3065.40665679931	10767
3067.41975099058	11023
3069.43230324538	10958
3071.44431381495	11324
3073.45578295041	11573
3075.46671090261	11857
3077.47709792227	12219
3079.48694425989	12353
3081.49625016578	12636
3083.50501589008	12342
3085.5132416827	12168
3087.5209277934	11713
3089.52807447169	11227
3091.53468196695	10962
3093.54075052832	10689
3095.54628040476	10479
3097.55127184503	10315
3099.55572509769	10271
3101.55964041111	10103
3103.56301803346	10091
3105.5658582127	10024
3107.56816119661	10198
3109.56992723275	10080
3111.57115656849	9999
3113.571849451	9943
3115.57200612724	9880
3117.57162684397	9908
3119.57071184775	9901
3121.56926138493	9892
3123.56727570166	9928
3125.56475504389	9988
3127.56169965735	9852
3129.55810978757	9919
3131.55398567987	9864
3133.54932757937	9881
3135.54413573099	10063
3137.53841037939	9971
3139.53215176909	10073
3141.52536014435	9971
3143.51803574924	10223
3145.51017882762	10154
3147.50178962311	10192
3149.49286837916	10185
3151.48341533897	10173
3153.47343074553	10189
3155.46291484164	10116
3157.45186786985	10148
3159.44029007252	10073
3161.42818169179	10134
3163.41554296955	10002
3165.40237414753	10190
3167.38867546718	10166
3169.37444716975	10200
3171.35968949631	10198
3173.34440268764	10258
3175.32858698436	10268
3177.31224262682	10238
3179.29536985517	10205
3181.27796890934	10317
3183.26004002902	10149
3185.24158345368	10153
3187.22259942256	10263
3189.2030881747	10242
3191.18304994886	10274
3193.16248498363	10387
3195.14139351733	10422
3197.11977578807	10387
3199.09763203371	10366
3201.07496249191	10494
3203.05176740007	10500
3205.02804699537	10441
3207.00380151475	10413
3208.97903119493	10594
3210.95373627238	10623
3212.92791698335	10621
3214.90157356383	10532
3216.8747062496	10726
3218.84731527619	10751
3220.81940087889	10787
3222.79096329275	10850
3224.76200275259	10754
3226.73251949298	10936
3228.70251374825	10949
3230.67198575251	10706
3232.64093573959	10878
3234.6093639431	10772
3236.57727059641	10905
3238.54465593261	10862
3240.51152018461	10935
3242.47786358502	10860
3244.44368636621	10929
3246.40898876031	10749
3248.37377099923	10900
3250.33803331458	11037
3252.30177593775	10941
3254.26499909987	10960
3256.22770303184	11037
3258.18988796427	11117
3260.15155412755	11122
3262.1127017518	10951
3264.0733310669	10995
3266.03344230246	10930
3267.99303568784	11100
3269.95211145215	11013
3271.91066982422	11096
3273.86871103267	11074
3275.82623530581	11152
3277.7832428717	11002
3279.73973395818	11136
3281.69570879278	11228
3283.6511676028	11244
3285.60611061527	11255
3287.56053805694	11145
3289.51445015432	11182
3291.46784713364	11217
3293.42072922088	11277
3295.37309664173	11303
3297.32494962163	11270
3299.27628838575	11109
3301.227113159	11143
3303.17742416601	11286
3305.12722163114	11296
3307.07650577848	11221
3309.02527683185	11311
3310.9735350148	11449
3312.9212805506	11388
3314.86851366225	11512
3316.81523457249	11387
3318.76144350377	11451
3320.70714067825	11363
3322.65232631783	11353
3324.59700064415	11418
3326.54116387854	11323
3328.48481624207	11332
3330.42795795551	11422
3332.37058923938	11445
3334.31271031389	11392
3336.25432139898	11289
3338.19542271432	11345
3340.13601447927	11379
3342.07609691292	11513
3344.01567023407	11374
3345.95473466124	11368
3347.89329041266	11473
3349.83133770627	11660
3351.76887675973	11544
3353.70590779039	11434
3355.64243101534	11452
3357.57844665135	11432
3359.51395491492	11446
3361.44895602224	11477
3363.38345018922	11487
3365.31743763148	11451
3367.25091856432	11576
3369.18389320278	11292
3371.11636176156	11451
3373.0483244551	11553
3374.97978149754	11660
3376.91073310269	11661
3378.84117948409	11547
3380.77112085498	11674
3382.70055742826	11704
3384.62948941659	11744
3386.55791703227	11746
3388.48584048733	11678
3390.41325999348	11784
3392.34017576214	11671
3394.2665880044	11655
3396.19249693107	11690
3398.11790275263	11626
3400.04280567926	11785
3401.96720592084	11845
3403.89110368692	11621
3405.81449918675	11981
3407.73739262928	11835
3409.65978422311	11933
3411.58167417658	11981
3413.50306269768	12097
3415.42394999408	12013
3417.34433627316	12029
3419.26422174195	11932
3421.18360660721	11929
3423.10249107532	11795
3425.02087535239	11865
3426.93875964421	11927
3428.8561441562	11904
3430.77302909353	11769
3432.68941466097	11765
3434.60530106301	11816
3436.52068850383	11961
3438.43557718726	12014
3440.34996731681	11793
3442.26385909565	11985
3444.17725272664	12074
3446.09014841231	11868
3448.00254635486	12038
3449.91444675614	11834
3451.82584981771	11884
3453.73675574076	11865
3455.64716472616	11873
3457.55707697445	11780
3459.46649268584	11840
3461.37541206018	11933
3463.28383529703	11839
3465.19176259555	11857
3467.09919415464	12017
3469.00613017278	11780
3470.91257084817	11917
3472.81851637863	11921
3474.72396696168	11911
3476.62892279446	11941
3478.53338407379	11973
3480.43735099614	11809
3482.34082375764	11748
3484.24380255404	11848
3486.1462875808	11738
3488.048279033	11793
3489.94977710537	11746
3491.85078199231	11911
3493.75129388783	11822
3495.65131298566	11851
3497.5508394791	11723
3499.44987356115	11800

