
200.090469251518	776
202.974751419362	795
205.858021632263	801
208.740280737522	801
211.621529580443	797
214.501769004371	778
217.380999850626	782
220.25922295859	782
223.136439165646	787
226.012649307235	784
228.88785421682	788
231.762054725918	795
234.635251664113	820
237.507445859021	821
240.378638136346	818
243.248829319855	831
246.11802023137	831
248.986211690826	825
251.853404516227	829
254.719599523654	799
257.584797527335	817
260.44899933954	791
263.312205770682	819
266.174417629303	792
269.035635722015	791
271.895860853609	796
274.755093826978	781
277.613335443144	785
280.470586501309	765
283.326847798766	791
286.182120131019	787
289.036404291684	744
291.889701072574	771
294.742011263643	783
297.593335653048	758
300.443675027094	763
303.293030170295	782
306.141401865367	767
308.988790893174	778
311.835198032837	785
314.680624061635	789
317.525069755113	809
320.36853588697	797
323.211023229178	791
326.052532551923	786
328.893064623604	773
331.732620210885	783
334.57120007867	772
337.408804990093	784
340.245435706565	786
343.081092987733	766
345.915777591523	761
348.749490274145	784
351.582231790049	768
354.414002891997	781
357.244804331021	767
360.074636856443	776
362.903501215886	772
365.731398155265	766
368.558328418814	750
371.384292749062	769
374.209291886869	784
377.033326571407	784
379.85639754017	777
382.678505529009	805
385.499651272065	806
388.319835501872	831
391.139058949258	905
393.957322343453	934
396.774626412011	980
399.590971880847	976
402.406359474258	934
405.220789914893	886
408.034263923801	849
410.8467822204	836
413.658345522483	825
416.468954546242	810
419.278610006277	801
422.087312615557	805
424.895063085503	821
427.701862125901	821
430.507710444981	829
433.312608749366	836
436.116557744146	836
438.919558132791	829
441.721610617238	847
444.522715897856	882
447.322874673457	894
450.122087641299	871
452.920355497092	901
455.717678935009	882
458.514058647681	869
461.309495326219	848
464.103989660191	825
466.89754233765	796
469.690154045114	779
472.481825467625	785
475.272557288674	783
478.062350190281	790
480.851204852952	788
483.639121955683	765
486.426102176007	778
489.212146189955	794
491.997254672093	761
494.781428295471	780
497.564667731716	763
500.346973650958	774
503.128346721878	759
505.90878761169	775
508.688296986151	769
511.46687550957	791
514.244523844831	796
517.021242653354	804
519.797032595132	806
522.571894328732	823
525.345828511279	839
528.11883579849	824
530.890916844655	823
533.662072302668	794
536.432302823985	799
539.201609058684	789
541.96999165542	789
544.737451261473	779
547.503988522723	779
550.26960408366	787
553.034298587394	787
555.798072675669	783
558.560926988819	784
561.322862165849	763
564.083878844369	775
566.843977660654	786
569.603159249604	780
572.361424244769	768
575.118773278369	777
577.87520698124	775
580.630725982905	799
583.385330911566	788
586.139022394076	776
588.891801055954	783
591.643667521406	804
594.394622413318	797
597.144666353273	799
599.893799961512	808
602.64202385701	795
605.389338657413	792
608.135744979089	801
610.881243437092	812
613.625834645191	802
616.369519215881	799
619.112297760374	785
621.854170888604	782
624.595139209225	803
627.335203329614	773
630.074363855914	770
632.81262139299	792
635.549976544436	762
638.286429912612	777
641.021982098635	771
643.756633702364	774
646.49038532241	771
649.223237556176	784
651.955190999808	755
654.686246248224	773
657.416403895135	778
660.145664533011	762
662.874028753133	783
665.601497145537	766
668.328070299071	762
671.05374880138	762
673.778533238885	774
676.502424196839	781
679.225422259297	779
681.947528009099	775
684.668742027927	755
687.389064896281	779
690.108497193465	774
692.827039497621	777
695.544692385724	776
698.261456433585	763
700.977332215847	800
703.692320305981	758
706.406421276337	774
709.11963569808	768
711.831964141256	752
714.54340717474	766
717.253965366304	779
719.963639282552	755
722.672429488961	783
725.380336549904	789
728.087361028596	768
730.793503487166	767
733.498764486594	792
736.203144586758	791
738.906644346447	773
741.60926432331	786
744.311005073912	759
747.011867153727	767
749.711851117121	764
752.410957517375	791
755.109186906677	779
757.806539836132	770
760.503016855779	779
763.198618514551	789
765.893345360346	784
768.587197939964	783
771.28017679914	786
773.972282482566	835
776.663515533859	790
779.353876495581	784
782.043365909241	791
784.731984315327	784
787.419732253235	798
790.106610261366	791
792.792618877058	811
795.477758636618	828
798.162030075313	868
800.845433727423	925
803.52797012615	1018
806.209639803714	1145
808.890443291304	1172
811.570381119098	1066
814.249453816265	969
816.927661910959	899
819.60500593036	891
822.281486400603	843
824.957103846864	852
827.631858793316	878
830.305751763135	908
832.978783278519	928
835.650953860677	959
838.322264029848	1023
840.992714305292	1029
843.662305205289	987
846.331037247157	901
848.998910947241	865
851.665926820933	865
854.332085382674	848
856.997387145915	814
859.661832623191	811
862.325422326066	808
864.988156765172	821
867.650036450181	811
870.311061889846	792
872.971233591961	813
875.630552063409	792
878.28901781013	812
880.946631337138	794
883.603393148533	803
886.259303747484	805
888.914363636246	819
891.568573316155	821
894.22193328767	831
896.874444050281	814
899.526106102625	846
902.176919942416	824
904.826886066483	829
907.476004970747	818
910.124277150255	810
912.77170309913	808
915.418283310642	804
918.064018277175	805
920.708908490222	814
923.352954440405	799
925.996156617486	809
928.638515510334	819
931.280031606966	829
933.920705394521	831
936.560537359303	844
939.199527986737	867
941.837677761392	867
944.474987167006	859
947.111456686438	848
949.747086801734	821
952.38187799407	835
955.015830743792	829
957.648945530418	829
960.281222832633	833
962.91266312826	866
965.543266894336	894
968.173034607058	938
970.801966741779	994
973.43006377307	981
976.057326174661	954
978.683754419471	875
981.309348979623	842
983.93411032642	854
986.558038930361	824
989.181135261144	851
991.803399787692	872
994.424832978086	898
997.045435299653	897
999.665207218906	861
1002.2841492016	857
1004.90226171266	855
1007.51954521628	821
1010.13600017584	828
1012.75162705397	858
1015.3664263125	859
1017.9803984125	848
1020.5935438143	837
1023.20586297741	839
1025.81735636063	855
1028.42802442196	845
1031.03786761869	881
1033.64688640732	865
1036.2550812436	886
1038.86245258255	904
1041.46900087844	884
1044.07472658479	892
1046.67963015438	864
1049.28371203927	853
1051.88697269075	838
1054.48941255943	847
1057.09103209513	852
1059.691831747	857
1062.29181196343	840
1064.89097319211	824
1067.48931587999	827
1070.08684047333	826
1072.68354741766	839
1075.27943715779	826
1077.87451013787	828
1080.46876680127	812
1083.06220759071	816
1085.65483294822	828
1088.24664331509	827
1090.83763913194	831
1093.42782083869	797
1096.01718887459	841
1098.60574367818	824
1101.19348568732	837
1103.78041533919	847
1106.3665330703	860
1108.95183931646	831
1111.53633451284	824
1114.12001909391	824
1116.70289349349	818
1119.2849581447	835
1121.86621348005	818
1124.44665993134	824
1127.02629792973	814
1129.60512790574	848
1132.18315028919	842
1134.76036550929	847
1137.3367739946	847
1139.912376173	863
1142.48717247176	895
1145.06116331748	925
1147.63434913616	982
1150.20673035312	1019
1152.77830739307	1055
1155.34908068007	1014
1157.91905063757	1008
1160.48821768838	1001
1163.05658225471	1049
1165.6241447581	1024
1168.19090561951	1021
1170.75686525927	965
1173.32202409708	930
1175.88638255206	881
1178.44994104269	848
1181.01269998684	845
1183.57465980182	823
1186.13582090427	833
1188.69618371026	838
1191.25574863529	857
1193.8145160942	840
1196.37248650129	818
1198.92966027025	822
1201.48603781416	824
1204.04161954556	825
1206.59640587635	844
1209.15039721788	859
1211.70359398092	885
1214.25599657564	881
1216.80760541166	885
1219.35842089801	902
1221.90844344314	923
1224.45767345496	883
1227.00611134077	842
1229.55375750736	846
1232.10061236092	842
1234.64667630707	822
1237.1919497509	813
1239.73643309692	845
1242.28012674912	817
1244.82303111089	839
1247.36514658511	847
1249.9064735741	850
1252.44701247964	846
1254.98676370294	853
1257.52572764469	832
1260.06390470506	832
1262.60129528365	836
1265.13789977954	823
1267.67371859128	808
1270.20875211688	825
1272.74300075384	808
1275.2764648991	846
1277.80914494911	825
1280.34104129978	836
1282.87215434652	827
1285.40248448419	841
1287.93203210715	861
1290.46079760927	832
1292.98878138385	865
1295.51598382375	851
1298.04240532127	884
1300.56804626822	878
1303.09290705593	877
1305.6169880752	866
1308.14028971632	862
1310.66281236913	852
1313.18455642292	863
1315.70552226653	883
1318.22571028829	888
1320.74512087603	936
1323.26375441711	982
1325.7816112984	1048
1328.29869190629	1105
1330.81499662666	1087
1333.33052584497	1013
1335.84527994613	959
1338.35925931464	913
1340.87246433446	905
1343.38489538916	866
1345.89655286177	889
1348.40743713487	865
1350.91754859059	856
1353.42688761059	921
1355.93545457606	938
1358.44324986772	939
1360.95027386588	958
1363.45652695032	916
1365.96200950042	886
1368.4667218951	859
1370.97066451281	877
1373.47383773156	857
1375.97624192891	867
1378.47787748199	845
1380.97874476746	870
1383.47884416157	844
1385.97817604009	815
1388.4767407784	818
1390.9745387514	828
1393.47157033358	814
1395.96783589898	804
1398.46333582124	817
1400.95807047354	799
1403.45204022864	801
1405.94524545889	824
1408.4376865362	822
1410.92936383205	804
1413.42027771752	812
1415.91042856328	813
1418.39981673955	802
1420.88844261615	831
1423.37630656249	828
1425.86340894757	838
1428.34975013999	876
1430.83533050792	922
1433.32015041912	925
1435.80421024098	965
1438.28751034045	960
1440.77005108411	944
1443.25183283812	950
1445.73285596824	967
1448.21312083984	1005
1450.69262781791	1058
1453.17137726702	1132
1455.64936955137	1187
1458.12660503477	1242
1460.60308408063	1193
1463.07880705197	1090
1465.55377431145	1011
1468.02798622133	940
1470.50144314348	904
1472.97414543941	858
1475.44609347024	865
1477.91728759673	860
1480.38772817924	834
1482.85741557777	822
1485.32635015194	835
1487.79453226103	822
1490.26196226391	828
1492.72864051911	806
1495.1945673848	823
1497.65974321874	825
1500.1241683784	811
1502.58784322083	814
1505.05076810274	814
1507.51294338049	811
1509.97436941009	794
1512.43504654717	809
1514.89497514704	793
1517.35415556462	802
1519.81258815451	814
1522.27027327095	820
1524.72721126784	816
1527.18340249874	800
1529.63884731684	816
1532.09354607502	819
1534.5474991258	808
1537.00070682136	823
1539.45316951355	805
1541.90488755388	810
1544.35586129353	829
1546.80609108336	801
1549.25557727385	811
1551.70432021519	800
1554.15232025725	812
1556.59957774953	805
1559.04609304125	812
1561.49186648127	819
1563.93689841815	815
1566.38118920011	811
1568.82473917506	797
1571.2675486906	811
1573.70961809399	805
1576.15094773219	835
1578.59153795184	825
1581.03138909928	813
1583.47050152051	824
1585.90887556123	819
1588.34651156686	818
1590.78340988246	816
1593.21957085283	796
1595.65499482245	820
1598.08968213547	809
1600.52363313578	806
1602.95684816694	813
1605.38932757224	795
1607.82107169462	797
1610.25208087677	804
1612.68235546107	791
1615.1118957896	810
1617.54070220415	815
1619.96877504621	810
1622.39611465701	805
1624.82272137746	814
1627.24859554818	805
1629.67373750953	818
1632.09814760155	812
1634.52182616404	814
1636.94477353647	817
1639.36699005806	808
1641.78847606776	821
1644.20923190418	804
1646.62925790573	819
1649.04855441048	792
1651.46712175628	820
1653.88496028066	810
1656.3020703209	829
1658.71845221401	814
1661.13410629671	810
1663.54903290547	825
1665.96323237649	807
1668.37670504571	820
1670.78945124877	827
1673.20147132109	821
1675.61276559779	825
1678.02333441377	832
1680.43317810362	829
1682.84229700171	829
1685.25069144213	850
1687.65836175872	836
1690.06530828507	814
1692.47153135451	840
1694.87703130009	813
1697.28180845467	830
1699.6858631508	829
1702.08919572081	848
1704.49180649676	827
1706.89369581049	843
1709.29486399355	816
1711.69531137731	848
1714.09503829282	815
1716.49404507095	838
1718.89233204229	838
1721.28989953721	824
1723.68674788581	842
1726.08287741798	825
1728.47828846338	832
1730.87298135139	827
1733.26695641119	839
1735.66021397173	827
1738.05275436169	825
1740.44457790954	850
1742.83568494354	838
1745.22607579168	838
1747.61575078175	834
1750.00471024128	849
1752.39295449761	849
1754.78048387783	834
1757.16729870881	832
1759.5533993172	855
1761.93878602942	826
1764.32345917168	808
1766.70741906995	842
1769.09066604999	844
1771.47320043735	845
1773.85502255735	855
1776.2361327351	839
1778.61653129548	844
1780.99621856318	809
1783.37519486264	859
1785.75346051813	862
1788.13101585368	849
1790.5078611931	854
1792.88399686002	859
1795.25942317785	816
1797.63414046977	864
1800.00814905878	842
1802.38144926766	843
1804.75404141898	891
1807.12592583514	857
1809.49710283829	869
1811.86757275039	825
1814.23733589322	870
1816.60639258834	826
1818.97474315712	836
1821.34238792073	866
1823.70932720012	867
1826.07556131608	840
1828.44109058918	859
1830.8059153398	853
1833.17003588812	843
1835.53345255413	850
1837.89616565765	841
1840.25817551827	871
1842.61948245541	862
1844.9800867883	866
1847.33998883598	854
1849.69918891729	861
1852.05768735091	879
1854.4154844553	848
1856.77258054875	874
1859.12897594938	886
1861.4846709751	841
1863.83966594366	851
1866.19396117261	878
1868.54755697932	874
1870.90045368099	884
1873.25265159463	867
1875.60415103708	892
1877.95495232501	874
1880.30505577486	874
1882.65446170299	864
1885.00317042548	891
1887.35118225832	873
1889.69849751726	882
1892.04511651792	897
1894.39103957574	878
1896.73626700596	885
1899.08079912368	897
1901.42463624384	868
1903.76777868116	875
1906.11022675025	875
1908.4519807655	876
1910.79304104117	883
1913.13340789134	884
1915.47308162992	891
1917.81206257067	885
1920.15035102718	897
1922.48794731286	887
1924.82485174096	891
1927.16106462461	900
1929.49658627672	910
1931.83141701008	885
1934.1655571373	897
1936.49900697085	873
1938.83176682301	893
1941.16383700594	875
1943.49521783161	862
1945.82590961186	888
1948.15591265835	896
1950.48522728262	913
1952.81385379602	885
1955.14179250976	917
1957.46904373489	905
1959.79560778233	885
1962.12148496284	900
1964.44667558701	888
1966.77117996529	877
1969.09499840799	897
1971.41813122527	881
1973.74057872714	890
1976.06234122345	889
1978.38341902391	904
1980.7038124381	912
1983.02352177543	896
1985.34254734518	903
1987.66088945649	905
1989.97854841833	889
1992.29552453956	916
1994.61181812887	916
1996.92742949483	923
1999.24235894586	904
2001.55660679023	892
2003.87017333608	907
2006.18305889143	893
2008.49526376413	907
2010.80678826189	915
2013.1176326923	915
2015.42779736282	918
2017.73728258075	925
2020.04608865326	924
2022.3542158874	911
2024.66166459008	913
2026.96843506807	926
2029.274527628	917
2031.57994257637	936
2033.88468021957	911
2036.18874086383	919
2038.49212481526	903
2040.79483237983	901
2043.0968638634	924
2045.39821957169	918
2047.69889981028	937
2049.99890488462	937
2052.29823510006	925
2054.59689076181	942
2056.89487217492	950
2059.19217964437	913
2061.48881347497	922
2063.7847739714	949
2066.08006143826	914
2068.37467618	923
2070.66861850093	899
2072.96188870527	941
2075.25448709707	910
2077.54641398031	920
2079.83766965881	914
2082.12825443629	910
2084.41816861634	936
2086.70741250242	920
2088.99598639789	893
2091.28389060597	926
2093.57112542978	922
2095.85769117232	905
2098.14358813644	920
2100.42881662491	900
2102.71337694037	940
2104.99726938532	946
2107.28049426219	946
2109.56305187325	914
2111.84494252069	922
2114.12616650655	926
2116.40672413278	908
2118.68661570121	905
2120.96584151355	913
2123.24440187138	928
2125.52229707622	927
2127.79952742943	930
2130.07609323227	941
2132.35199478588	925
2134.62723239132	916
2136.90180634949	943
2139.17571696123	940
2141.44896452723	935
2143.72154934809	902
2145.99347172429	918
2148.26473195623	936
2150.53533034415	965
2152.80526718821	952
2155.07454278848	925
2157.3431574449	925
2159.61111145728	932
2161.87840512538	963
2164.1450387488	919
2166.41101262707	948
2168.67632705959	929
2170.94098234567	961
2173.20497878451	923
2175.46831667519	928
2177.73099631672	956
2179.99301800797	939
2182.25438204772	941
2184.51508873466	948
2186.77513836735	937
2189.03453124427	933
2191.29326766378	927
2193.55134792416	943
2195.80877232355	948
2198.06554116004	919
2200.32165473157	915
2202.577113336	965
2204.83191727111	920
2207.08606683453	969
2209.33956232384	935
2211.59240403648	927
2213.84459226982	928
2216.09612732112	943
2218.34700948753	938
2220.59723906612	954
2222.84681635385	922
2225.09574164758	936
2227.34401524408	939
2229.59163744002	955
2231.83860853197	927
2234.08492881639	929
2236.33059858968	943
2238.5756181481	935
2240.81998778784	932
2243.06370780499	926
2245.30677849555	917
2247.54920015539	932
2249.79097308033	927
2252.03209756607	932
2254.27257390822	934
2256.51240240228	934
2258.75158334369	952
2260.99011702777	919
2263.22800374976	927
2265.46524380477	933
2267.70183748786	930
2269.93778509399	945
2272.17308691801	937
2274.40774325467	950
2276.64175439866	925
2278.87512064454	930
2281.10784228682	942
2283.33991961987	933
2285.571352938	946
2287.80214253541	966
2290.03228870623	941
2292.26179174449	925
2294.4906519441	956
2296.71886959892	934
2298.9464450027	951
2301.1733784491	954
2303.39967023169	930
2305.62532064395	927
2307.85032997926	920
2310.07469853093	933
2312.29842659216	944
2314.52151445608	917
2316.7439624157	933
2318.96577076397	954
2321.18693979374	933
2323.40746979777	930
2325.62736106873	948
2327.8466138992	913
2330.06522858166	924
2332.28320540853	950
2334.50054467212	920
2336.71724666465	937
2338.93331167827	934
2341.14874000501	929
2343.36353193685	937
2345.57768776564	921
2347.79120778319	928
2350.00409228117	944
2352.21634155121	953
2354.42795588482	940
2356.63893557342	932
2358.84928090838	930
2361.05899218094	910
2363.26806968228	944
2365.47651370347	938
2367.68432453552	927
2369.89150246933	925
2372.09804779571	915
2374.30396080541	928
2376.50924178907	953
2378.71389103725	917
2380.91790884042	912
2383.12129548897	933
2385.3240512732	913
2387.52617648332	898
2389.72767140946	928
2391.92853634165	904
2394.12877156985	917
2396.32837738392	919
2398.52735407365	926
2400.72570192873	922
2402.92342123875	910
2405.12051229325	921
2407.31697538167	930
2409.51281079333	947
2411.70801881751	928
2413.90259974339	899
2416.09655386004	901
2418.28988145648	921
2420.48258282162	920
2422.6746582443	905
2424.86610801325	941
2427.05693241713	916
2429.24713174452	919
2431.43670628389	889
2433.62565632365	907
2435.81398215212	935
2438.00168405752	918
2440.18876232799	914
2442.37521725158	921
2444.56104911628	903
2446.74625820994	933
2448.93084482038	922
2451.1148092353	902
2453.29815174233	900
2455.480872629	905
2457.66297218275	901
2459.84445069097	904
2462.02530844092	891
2464.2055457198	891
2466.38516281471	912
2468.56416001267	896
2470.74253760061	893
2472.92029586537	912
2475.09743509372	922
2477.27395557232	890
2479.44985758777	901
2481.62514142655	912
2483.79980737508	913
2485.97385571969	911
2488.14728674661	881
2490.32010074198	908
2492.49229799188	899
2494.66387878228	894
2496.83484339905	909
2499.00519212802	902
2501.17492525488	920
2503.34404306528	901
2505.51254584473	895
2507.6804338787	891
2509.84770745254	918
2512.01436685153	898
2514.18041236085	888
2516.34584426561	886
2518.51066285081	896
2520.67486840138	900
2522.83846120214	883
2525.00144153784	901
2527.16380969314	909
2529.32556595261	892
2531.48671060072	908
2533.64724392186	905
2535.80716620033	903
2537.96647772034	889
2540.12517876602	899
2542.2832696214	918
2544.44075057041	904
2546.59762189691	891
2548.75388388466	873
2550.90953681735	892
2553.06458097853	908
2555.21901665172	909
2557.37284412031	881
2559.5260636676	884
2561.67867557684	882
2563.83068013113	879
2565.98207761351	904
2568.13286830695	880
2570.28305249429	871
2572.43263045829	880
2574.58160248163	893
2576.72996884689	875
2578.87772983655	894
2581.02488573303	883
2583.1714368186	897
2585.31738337549	914
2587.46272568582	886
2589.60746403161	893
2591.75159869479	891
2593.89512995722	905
2596.03805810061	873
2598.18038340665	898
2600.32210615686	907
2602.46322663274	894
2604.60374511563	897
2606.74366188683	892
2608.88297722751	907
2611.02169141875	894
2613.15980474156	898
2615.29731747681	903
2617.43422990532	903
2619.57054230779	896
2621.70625496483	912
2623.84136815694	905
2625.97588216456	890
2628.10979726799	901
2630.24311374746	878
2632.3758318831	915
2634.50795195493	901
2636.6394742429	904
2638.77039902682	925
2640.90072658645	911
2643.0304572014	924
2645.15959115123	906
2647.28812871538	922
2649.41607017319	964
2651.5434158039	927
2653.67016588665	897
2655.79632070049	940
2657.92188052436	927
2660.04684563711	924
2662.17121631749	929
2664.29499284413	935
2666.41817549558	922
2668.54076455027	892
2670.66276028656	947
2672.78416298267	911
2674.90497291675	942
2677.02519036682	915
2679.14481561082	934
2681.26384892658	913
2683.38229059182	900
2685.50014088417	914
2687.61740008114	898
2689.73406846017	911
2691.85014629854	926
2693.96563387347	932
2696.08053146206	938
2698.1948393413	944
2700.3085577881	976
2702.42168707924	963
2704.53422749139	960
2706.64617930112	996
2708.75754278492	969
2710.86831821913	990
2712.97850588002	1013
2715.08810604372	1004
2717.19711898628	1053
2719.30554498363	1082
2721.41338431158	1101
2723.52063724586	1081
2725.62730406206	1074
2727.73338503569	1004
2729.83888044213	1033
2731.94379055664	1002
2734.04811565441	992
2736.15185601048	971
2738.25501189979	985
2740.35758359718	965
2742.45957137738	944
2744.56097551499	970
2746.6617962845	954
2748.7620339603	946
2750.86168881666	968
2752.96076112774	939
2755.05925116758	937
2757.15715921012	933
2759.25448552917	918
2761.35123039843	927
2763.44739409148	913
2765.5429768818	905
2767.63797904275	906
2769.73240084756	900
2771.82624256934	879
2773.91950448113	906
2776.01218685579	907
2778.10428996609	910
2780.19581408469	897
2782.28675948414	889
2784.37712643683	917
2786.46691521507	916
2788.55612609104	919
2790.64475933678	909
2792.73281522425	913
2794.82029402525	947
2796.90719601149	924
2798.99352145453	921
2801.07927062583	912
2803.16444379672	941
2805.24904123841	928
2807.33306322197	937
2809.41651001838	925
2811.49938189847	952
2813.58167913296	963
2815.66340199243	985
2817.74455074734	1010
2819.82512566805	996
2821.90512702475	1018
2823.98455508754	1031
2826.06341012637	1104
2828.14169241109	1200
2830.2194022114	1365
2832.29653979686	1585
2834.37310543694	1811
2836.44909940096	2002
2838.5245219581	2094
2840.59937337744	2092
2842.67365392791	1898
2844.74736387829	1774
2846.82050349727	1625
2848.8930730534	1517
2850.96507281506	1401
2853.03650305056	1394
2855.10736402802	1396
2857.17765601545	1498
2859.24737928074	1712
2861.31653409164	2001
2863.38512071574	2394
2865.45313942054	2671
2867.52059047335	2816
2869.58747414139	2742
2871.65379069173	2763
2873.7195403913	2837
2875.78472350688	3017
2877.84934030515	3304
2879.91339105262	3424
2881.97687601567	3558
2884.03979546053	3425
2886.10214965332	3405
2888.16393886	3183
2890.22516334639	2996
2892.28582337816	2866
2894.34591922087	2725
2896.40545113992	2701
2898.46441940054	2823
2900.52282426787	2805
2902.58066600687	2930
2904.63794488237	2911
2906.69466115906	2841
2908.75081510147	2625
2910.806406974	2442
2912.8614370409	2320
2914.91590556626	2329
2916.96981281404	2264
2919.02315904807	2309
2921.07594453199	2347
2923.12816952932	2347
2925.17983430343	2333
2927.23093911753	2281
2929.28148423469	2103
2931.33146991782	1975
2933.3808964297	1748
2935.42976403294	1675
2937.47807299	1585
2939.5258235632	1507
2941.57301601469	1605
2943.61965060648	1691
2945.66572760042	1849
2947.71124725823	2058
2949.75620984143	2269
2951.80061561143	2439
2953.84446482945	2433
2955.88775775656	2417
2957.9304946537	2468
2959.97267578162	2508
2962.01430140095	2410
2964.05537177211	2219
2966.09588715541	2124
2968.13584781097	1974
2970.17525399875	1764
2972.21410597859	1543
2974.25240401011	1438
2976.29014835283	1293
2978.32733926604	1226
2980.36397700892	1165
2982.40006184049	1111
2984.43559401955	1061
2986.4705738048	1084
2988.50500145473	1050
2990.53887722771	1003
2992.57220138189	1002
2994.6049741753	993
2996.63719586576	979
2998.66886671097	968
3000.69998696843	943
3002.73055689549	969
3004.7605767493	961
3006.79004678688	963
3008.81896726505	959
3010.84733844048	929
3012.87516056966	941
3014.9024339089	934
3016.92915871433	941
3018.95533524196	949
3020.98096374756	920
3023.00604448675	933
3025.030577715	929
3027.05456368757	931
3029.07800265956	940
3031.10089488589	915
3033.12324062131	910
3035.14504012038	888
3037.16629363749	927
3039.18700142685	903
3041.20716374249	911
3043.22678083826	933
3045.24585296782	906
3047.26438038468	903
3049.28236334212	904
3051.29980209329	885
3053.31669689111	892
3055.33304798835	911
3057.34885563757	912
3059.36412009117	914
3061.37884160134	891
3063.39302042011	905
3065.40665679931	892
3067.41975099058	921
3069.43230324538	909
3071.44431381495	885
3073.45578295041	912
3075.46671090261	924
3077.47709792227	910
3079.48694425989	885
3081.49625016578	919
3083.50501589008	916
3085.5132416827	911
3087.5209277934	888
3089.52807447169	904
3091.53468196695	925
3093.54075052832	920
3095.54628040476	901
3097.55127184503	914
3099.55572509769	886
3101.55964041111	911
3103.56301803346	888
3105.5658582127	878
3107.56816119661	897
3109.56992723275	925
3111.57115656849	895
3113.571849451	914
3115.57200612724	906
3117.57162684397	906
3119.57071184775	894
3121.56926138493	901
3123.56727570166	884
3125.56475504389	907
3127.56169965735	920
3129.55810978757	901
3131.55398567987	915
3133.54932757937	909
3135.54413573099	908
3137.53841037939	900
3139.53215176909	925
3141.52536014435	916
3143.51803574924	926
3145.51017882762	902
3147.50178962311	904
3149.49286837916	921
3151.48341533897	940
3153.47343074553	912
3155.46291484164	916
3157.45186786985	903
3159.44029007252	898
3161.42818169179	920
3163.41554296955	925
3165.40237414753	908
3167.38867546718	910
3169.37444716975	911
3171.35968949631	912
3173.34440268764	925
3175.32858698436	923
3177.31224262682	909
3179.29536985517	927
3181.27796890934	939
3183.26004002902	917
3185.24158345368	907
3187.22259942256	915
3189.2030881747	913
3191.18304994886	929
3193.16248498363	925
3195.14139351733	908
3197.11977578807	923
3199.09763203371	932
3201.07496249191	926
3203.05176740007	902
3205.02804699537	914
3207.00380151475	923
3208.97903119493	938
3210.95373627238	923
3212.92791698335	921
3214.90157356383	897
3216.8747062496	937
3218.84731527619	919
3220.81940087889	948
3222.79096329275	930
3224.76200275259	931
3226.73251949298	942
3228.70251374825	938
3230.67198575251	916
3232.64093573959	912
3234.6093639431	934
3236.57727059641	920
3238.54465593261	925
3240.51152018461	895
3242.47786358502	924
3244.44368636621	917
3246.40898876031	921
3248.37377099923	908
3250.33803331458	922
3252.30177593775	922
3254.26499909987	894
3256.22770303184	919
3258.18988796427	920
3260.15155412755	932
3262.1127017518	935
3264.0733310669	934
3266.03344230246	919
3267.99303568784	906
3269.95211145215	903
3271.91066982422	939
3273.86871103267	924
3275.82623530581	917
3277.7832428717	914
3279.73973395818	898
3281.69570879278	911
3283.6511676028	938
3285.60611061527	916
3287.56053805694	947
3289.51445015432	909
3291.46784713364	929
3293.42072922088	931
3295.37309664173	938
3297.32494962163	932
3299.27628838575	931
3301.227113159	904
3303.17742416601	918
3305.12722163114	930
3307.07650577848	931
3309.02527683185	936
3310.9735350148	914
3312.9212805506	933
3314.86851366225	913
3316.81523457249	932
3318.76144350377	948
3320.70714067825	913
3322.65232631783	917
3324.59700064415	927
3326.54116387854	917
3328.48481624207	921
3330.42795795551	915
3332.37058923938	898
3334.31271031389	952
3336.25432139898	904
3338.19542271432	938
3340.13601447927	914
3342.07609691292	929
3344.01567023407	928
3345.95473466124	900
3347.89329041266	928
3349.83133770627	915
3351.76887675973	916
3353.70590779039	927
3355.64243101534	905
3357.57844665135	917
3359.51395491492	918
3361.44895602224	902
3363.38345018922	947
3365.31743763148	920
3367.25091856432	908
3369.18389320278	922
3371.11636176156	919
3373.0483244551	932
3374.97978149754	937
3376.91073310269	918
3378.84117948409	929
3380.77112085498	949
3382.70055742826	929
3384.62948941659	906
3386.55791703227	912
3388.48584048733	905
3390.41325999348	929
3392.34017576214	946
3394.2665880044	912
3396.19249693107	946
3398.11790275263	940
3400.04280567926	908
3401.96720592084	916
3403.89110368692	934
3405.81449918675	914
3407.73739262928	932
3409.65978422311	930
3411.58167417658	933
3413.50306269768	917
3415.42394999408	926
3417.34433627316	919
3419.26422174195	945
3421.18360660721	929
3423.10249107532	921
3425.02087535239	939
3426.93875964421	916
3428.8561441562	937
3430.77302909353	934
3432.68941466097	911
3434.60530106301	922
3436.52068850383	915
3438.43557718726	931
3440.34996731681	901
3442.26385909565	914
3444.17725272664	927
3446.09014841231	937
3448.00254635486	909
3449.91444675614	923
3451.82584981771	901
3453.73675574076	917
3455.64716472616	899
3457.55707697445	903
3459.46649268584	912
3461.37541206018	919
3463.28383529703	925
3465.19176259555	918
3467.09919415464	908
3469.00613017278	913
3470.91257084817	908
3472.81851637863	901
3474.72396696168	918
3476.62892279446	899
3478.53338407379	914
3480.43735099614	932
3482.34082375764	925
3484.24380255404	901
3486.1462875808	896
3488.048279033	893
3489.94977710537	900
3491.85078199231	936
3493.75129388783	916
3495.65131298566	909
3497.5508394791	921
3499.44987356115	915
