201.866871357051	846
204.754250281454	848
207.640596790938	842.5
210.525911876299	836.75
213.410196525689	831.75
216.293451724508	819
219.175678455485	820.5
222.056877698662	818
224.937050431388	822.5
227.816197628363	820
230.694320261602	803.75
233.571419300504	815.75
236.447495711764	813.5
239.322550459507	810.5
242.196584505182	813.5
245.069598807626	818.75
247.941594323078	817
250.812572005154	819.5
253.682532804884	809.5
256.551477670699	816.25
259.419407548456	824
262.286323381439	814.5
265.152226110364	820
268.017116673389	819.75
270.880996006115	816.25
273.743865041622	809.5
276.605724710436	833.25
279.466575940562	828
282.326419657496	822.75
285.1852567842	829.25
288.043088241157	843.5
290.899914946349	849.75
293.75573781526	858.25
296.610557760898	875
299.464375693817	879.25
302.317192522078	895.75
305.169009151297	903.5
308.019826484655	915.5
310.86964542287	929.25
313.718466864233	922
316.566291704614	928.75
319.413120837457	949
322.258955153804	949
325.103795542291	941.5
327.947642889128	958.5
330.79049807819	960
333.632361990927	962.5
336.473235506444	957.75
339.31311950145	986.75
342.152014850322	981.25
344.989922425062	1009.5
347.826843095354	1026.5
350.662777728528	1062.25
353.497727189577	1072.25
356.331692341195	1120.5
359.164674043732	1156.75
361.996673155267	1152.25
364.827690531536	1142
367.65772702602	1107.5
370.486783489887	1075.5
373.314860772047	1025
376.14195971912	988.5
378.968081175466	952.25
381.793225983212	925
384.617394982201	899
387.44058901005	884.75
390.262808902131	863.5
393.08405549161	841.5
395.904329609395	847.75
398.723632084213	825.25
401.541963742569	817.25
404.359325408779	807.5
407.175717904938	804.5
409.991142050982	796.5
412.805598664665	783.5
415.619088561551	792.25
418.43161255505	778
421.243171456415	786.25
424.053766074758	774.25
426.863397217017	774.75
429.672065688024	772.5
432.479772290455	770.25
435.286517824879	773
438.092303089736	754.75
440.897128881359	756.5
443.70099599399	754.5
446.503905219761	744
449.305857348711	740.75
452.106853168796	735.5
454.906893465919	739.5
457.705979023885	737
460.504110624439	735
463.3012890473	725
466.097515070087	726.25
468.892789468424	726.75
471.687113015869	728.75
474.48048648395	732
477.272910642198	727
480.064386258109	729
482.854914097159	735.5
485.644494922839	736
488.433129496636	733.25
491.220818578047	739.25
494.007562924584	734.75
496.793363291785	738.75
499.578220433217	740.75
502.362135100473	736
505.145108043209	736
507.927140009098	737.5
510.708231743909	743.25
513.488383991433	756.5
516.267597493556	775
519.04587299022	772.75
521.82321121946	774.25
524.599612917398	776.25
527.375078818233	783
530.149609654287	779
532.923206155967	778.75
535.695869051804	783.25
538.467599068448	774.25
541.238396930665	787.75
544.008263361364	796.25
546.777199081578	802
549.545204810493	785.5
552.312281265436	786
555.078429161898	784.25
557.843649213533	785.75
560.607942132156	783.5
563.371308627753	776.75
566.133749408495	786.75
568.895265180756	791
571.655856649064	784.5
574.415524516189	781
577.174269483075	781
579.932092248884	794.5
582.688993510994	786
585.444973965023	806
588.200034304795	815.75
590.95417522237	829.25
593.70739740807	852.25
596.459701550433	894.75
599.21108833628	946.25
601.961558450668	1019
604.711112576933	1108.5
607.459751396673	1214.25
610.207475589748	1296
612.954285834338	1356
615.700182806879	1398.75
618.445167182101	1436
621.189239633055	1473.25
623.932400831087	1495.25
626.674651445839	1536.25
629.415992145303	1618.75
632.156423595745	1743.75
634.895946461813	1804.5
637.634561406449	1824
640.37226909096	1745.75
643.109070174978	1704.5
645.844965316508	1605.75
648.579955171888	1495.5
651.314040395846	1392.5
654.047221641456	1288.25
656.779499560176	1181
659.510874801828	1105.25
662.241348014642	1068.5
664.97091984524	1069.75
667.699590938606	1074
670.427361938164	1093.75
673.15423348573	1115.25
675.880206221526	1186
678.605280784206	1260.25
681.329457810829	1340
684.05273793692	1383.75
686.775121796389	1453.75
689.49661002163	1503.75
692.217203243454	1534.75
694.936902091144	1525
697.655707192425	1525
700.373619173493	1478.25
703.09063865901	1426.5
705.806766272093	1362.25
708.522002634378	1289.75
711.236348365946	1208.75
713.94980408538	1115.25
716.662370409762	1033.5
719.374047954676	976.25
722.08483733419	920.25
724.794739160909	898.25
727.503754045949	860
730.21188259892	850.5
732.919125427998	822.75
735.625483139855	797
738.330956339723	784
741.035545631374	761
743.739251617106	760
746.44207489779	755
749.144016072852	750.5
751.845075740272	743
754.545254496603	744.75
757.244552936976	740
759.94297165508	749.5
762.640511243222	730
765.337172292249	738.75
768.032955391649	735.75
770.727861129482	732.75
773.421890092413	732.75
776.11504286572	741.5
778.807320033298	720
781.49872217765	725.25
784.18924987991	727
786.87890371984	731.75
789.567684275826	721.5
792.255592124908	725.25
794.94262784276	723.25
797.628792003703	726.75
800.314085180715	727
802.998507945427	727.25
805.682060868145	723.5
808.364744517821	739.25
811.046559462105	742.75
813.727506267311	743.25
816.407585498422	744
819.08679771913	751
821.765143491822	751.75
824.442623377563	759.5
827.119237936127	781.5
829.794987726003	787
832.469873304377	807
835.143895227167	791.25
837.817054048985	799.5
840.489350323205	817.25
843.160784601892	806.75
845.831357435894	801.75
848.501069374739	804.75
851.169920966753	802.25
853.837912758987	805.25
856.505045297232	794.75
859.171319126071	802
861.836734788823	809.25
864.501292827579	806.5
867.164993783208	804
869.827838195361	818
872.489826602454	808.25
875.150959541701	808.5
877.811237549104	802.5
880.470661159456	803.5
883.129230906357	791.75
885.786947322205	789.75
888.443810938206	784.25
891.099822284385	792
893.754981889586	782.5
896.409290281452	789.75
899.062747986485	785.25
901.715355529999	788
904.367113436154	797
907.01802222793	801.25
909.668082427172	800
912.317294554574	790
914.965659129659	789.5
917.613176670835	795.5
920.259847695364	805
922.90567271936	788
925.550652257825	801
928.194786824621	788.5
930.838076932512	805.25
933.480523093109	798.75
936.122125816953	803.75
938.762885613447	817.25
941.402802990899	804.5
944.041878456523	818
946.680112516428	810.5
949.31750567563	825.25
951.954058438081	838.75
954.589771306633	848
957.224644783048	838.75
959.858679368044	851
962.491875561238	861
965.12423386121	853.75
967.75575476545	860
970.386438770423	850
973.016286371501	851
975.645298063046	845
978.273474338355	837.5
980.900815689674	830.25
983.527322608243	835.25
986.152995584245	845
988.777835106834	838.75
991.401841664148	847.75
994.025015743307	866.5
996.647357830407	893
999.268868410534	936
1001.88954796777	948
1004.50939698518	919.75
1007.12841594484	878
1009.74660532783	859
1012.36396561423	852.25
1014.98049728314	833.25
1017.59620081267	845.5
1020.21107667995	848.25
1022.82512536112	849.75
1025.43834733138	868.25
1028.05074306493	869.75
1030.66231303501	879.75
1033.27305771392	878.25
1035.88297757299	865.75
1038.49207308257	869.75
1041.10034471211	856
1043.70779293008	877.25
1046.31441820402	858
1048.92022100052	865
1051.52520178525	878.25
1054.12936102295	874.5
1056.73269917742	884.25
1059.33521671154	887.5
1061.93691408729	908.25
1064.53779176571	890.5
1067.13785020694	903.25
1069.73708987022	910.25
1072.33551121386	915.25
1074.93311469528	908
1077.52990077103	922.75
1080.12586989674	922.25
1082.72102252714	1079.75
1085.31535911611	956.75
1087.90888011663	957.75
1090.50158598078	966.75
1093.09347715979	957
1095.68455410403	964.25
1098.27481726296	976.5
1100.86426708523	970
1103.45290401857	971.75
1106.04072850991	976
1108.6277410053	971.25
1111.21394194993	966.25
1113.79933178816	970
1116.3839109635	983
1118.96767991862	972.5
1121.55063909539	948.75
1124.13278893477	939
1126.71412987696	936.5
1129.29466236132	909.25
1131.87438682637	902.75
1134.45330370982	889.5
1137.03141344858	901
1139.60871647872	886.25
1142.18521323554	874
1144.7609041535	885.75
1147.33578966629	886.75
1149.90987020676	888.75
1152.48314620702	904.75
1155.05561809835	906.25
1157.62728631125	928.25
1160.19815127545	955.75
1162.76821341988	970.5
1165.33747317271	1014.25
1167.90593096133	1027.75
1170.47358721235	1055.75
1173.04044235163	1065
1175.60649680425	1054.5
1178.17175099454	1052.75
1180.73620534607	1063.25
1183.29986028165	1056.75
1185.86271622336	1064.75
1188.42477359249	1049.5
1190.98603280964	1040.25
1193.54649429462	1032
1196.10615846653	1036.25
1198.66502574372	1014.5
1201.22309654385	1007.5
1203.78037128378	999.25
1206.33685037971	986.5
1208.89253424709	998.5
1211.44742330063	987
1214.00151795438	981.25
1216.55481862163	966.75
1219.10732571497	969.75
1221.65903964631	976.5
1224.20996082683	981.75
1226.760089667	983.5
1229.30942657664	995.25
1231.85797196483	1006.75
1234.40572623998	1008
1236.95268980981	1012.25
1239.49886308136	1021.75
1242.04424646098	1044.75
1244.58884035435	1056.5
1247.13264516647	1064.25
1249.67566130166	1067.5
1252.21788916358	1075.75
1254.75932915524	1068.25
1257.29998167896	1112.5
1259.83984713639	1096.75
1262.37892592857	1108.5
1264.91721845586	1113.25
1267.45472511795	1118.75
1269.9914463139	1135.5
1272.52738244213	1128.5
1275.0625339004	1123.25
1277.59690108587	1134.75
1280.130484395	1133.75
1282.66328422367	1171.5
1285.19530096712	1145.75
1287.72653501993	1157
1290.25698677608	1176.25
1292.78665662894	1189.25
1295.31554497125	1186
1297.8436521951	1216.5
1300.37097869203	1246.75
1302.89752485292	1253
1305.42329106805	1267
1307.94827772713	1306
1310.47248521921	1307.75
1312.99591393279	1312.5
1315.51856425575	1304.5
1318.04043657536	1329.5
1320.56153127836	1319.75
1323.08184875083	1311.25
1325.6013893783	1350.75
1328.12015354572	1346
1330.63814163744	1347.25
1333.15535403727	1373
1335.67179112839	1370
1338.18745329347	1350.75
1340.70234091454	1312.5
1343.21645437314	1294
1345.72979405019	1286.75
1348.24236032607	1276.5
1350.75415358059	1265.25
1353.26517419303	1252.5
1355.7754225421	1277
1358.28489900594	1285.75
1360.79360396218	1284.25
1363.30153778787	1274.5
1365.80870085955	1276.75
1368.31509355319	1279
1370.82071624424	1259
1373.32556930762	1261.5
1375.8296531177	1265.75
1378.33296804832	1262
1380.83551447282	1269.5
1383.33729276399	1255.5
1385.83830329408	1259.25
1388.33854643489	1260.75
1390.83802255762	1258.75
1393.33673203301	1251.25
1395.83467523128	1284
1398.33185252211	1268.75
1400.82826427471	1266.5
1403.32391085777	1264
1405.81879263947	1284.5
1408.31290998752	1289.25
1410.80626326908	1322
1413.29885285087	1378.25
1415.79067909909	1416.75
1418.28174237944	1466.75
1420.77204305717	1515.75
1423.26158149702	1600.25
1425.75035806323	1673.25
1428.2383731196	1696
1430.72562702942	1687
1433.21212015554	1711.5
1435.69785286028	1728.5
1438.18282550555	1692
1440.66703845275	1636
1443.15049206284	1580.75
1445.6331866963	1522.25
1448.11512271316	1489.25
1450.59630047298	1506
1453.07672033486	1475.25
1455.55638265748	1495.5
1458.03528779902	1464.5
1460.51343611725	1468
1462.99082796946	1458.75
1465.46746371252	1477.25
1467.94334370285	1474
1470.41846829642	1466
1472.89283784878	1468.75
1475.36645271503	1479.75
1477.83931324983	1470.25
1480.31141980743	1492.25
1482.78277274164	1484.25
1485.25337240583	1485.25
1487.72321915297	1501.5
1490.19231333557	1511.5
1492.66065530578	1488
1495.12824541525	1495.5
1497.5950840153	1504.75
1500.06117145678	1510.25
1502.52650809014	1527.5
1504.99109426543	1539.25
1507.45493033227	1543.5
1509.91801663992	1547
1512.38035353717	1559.75
1514.84194137248	1566
1517.30278049386	1573.75
1519.76287124894	1583.5
1522.22221398497	1583.75
1524.68080904876	1590.5
1527.13865678681	1605.25
1529.59575754514	1597
1532.05211166945	1639.75
1534.50771950503	1656
1536.96258139678	1642
1539.41669768924	1658.25
1541.87006872656	1674.5
1544.32269485252	1666.25
1546.77457641051	1699
1549.22571374357	1695.75
1551.67610719434	1746
1554.12575710513	1732.25
1556.57466381785	1717
1559.02282767408	1746.25
1561.47024901499	1755.25
1563.91692818144	1759.25
1566.3628655139	1786.25
1568.80806135249	1775.25
1571.252516037	1790.5
1573.6962299068	1833.25
1576.13920330099	1839.25
1578.58143655828	1845.75
1581.02293001704	1896
1583.46368401528	1855.25
1585.90369889071	1888
1588.34297498065	1904
1590.7815126221	1919.25
1593.21931215173	1924.25
1595.65637390588	1921.5
1598.09269822053	1945
1600.52828543135	2011.25
1602.96313587367	1985
1605.3972498825	2027.5
1607.83062779252	2039.25
1610.26326993808	2081.25
1612.69517665322	2091.75
1615.12634827165	2112.25
1617.55678512676	2101.75
1619.98648755163	2035
1622.41545587902	2031.25
1624.84369044138	2016.5
1627.27119157085	2025.25
1629.69795959924	2038.5
1632.12399485808	2049.5
1634.54929767859	2051.25
1636.97386839165	2077.75
1639.39770732789	2092.25
1641.8208148176	2093
1644.24319119078	2100.25
1646.66483677715	2110.75
1649.0857519061	2139.25
1651.50593690677	2150
1653.92539210795	2169
1656.3441178382	2162.5
1658.76211442575	2182.75
1661.17938219855	2219.25
1663.59592148428	2249
1666.01173261032	2243
1668.42681590377	2322.75
1670.84117169145	2310.75
1673.25480029991	2280.75
1675.66770205541	2282
1678.07987728393	2310.75
1680.49132631119	2302.25
1682.90204946263	2308.75
1685.31204706342	2326
1687.72131943846	2373.75
1690.1298669124	2378
1692.53768980957	2391
1694.94478845411	2389.25
1697.35116316982	2409.75
1699.75681428031	2380
1702.16174210887	2442.25
1704.56594697858	2472.75
1706.96942921222	2512.25
1709.37218913235	2500
1711.77422706125	2508.25
1714.17554332098	2557
1716.5761382333	2574
1718.97601211977	2558
1721.37516530169	2581.75
1723.77359810006	2605
1726.17131083572	2597
1728.56830382922	2602.25
1730.96457740087	2564.25
1733.36013187075	2559
1735.75496755868	2567.75
1738.14908478428	2590.75
1740.54248386689	2585.25
1742.93516512565	2613.25
1745.32712887946	2621.75
1747.71837544697	2623.5
1750.10890514662	2637.5
1752.49871829661	2659.75
1754.88781521492	2671.25
1757.27619621929	2682.25
1759.66386162726	2644.25
1762.05081175612	2679.25
1764.43704692297	2710
1766.82256744465	2734
1769.20737363782	2719.25
1771.59146581887	2762.5
1773.97484430405	2784.5
1776.35750940932	2815.75
1778.73946145048	2787
1781.12070074309	2791
1783.50122760249	2845.5
1785.88104234385	2858.25
1788.26014528209	2877.5
1790.63853673196	2844.5
1793.01621700796	2890.5
1795.39318642443	2913.75
1797.76944529549	2914
1800.14499393503	2947
1802.51983265681	2938.25
1804.8939617743	2956
1807.26738160085	2995.75
1809.64009244957	2990.75
1812.01209463339	2984.5
1814.38338846504	3009
1816.75397425706	3006.5
1819.12385232181	3032
1821.49302297142	3045.25
1823.86148651789	3057
1826.22924327299	3086.5
1828.59629354831	3073.75
1830.96263765526	3066.25
1833.32827590507	3088.75
1835.69320860877	3151.5
1838.05743607724	3154
1840.42095862113	3136.5
1842.78377655097	3133.5
1845.14589017707	3170.75
1847.50729980956	3156
1849.86800575843	3204
1852.22800833346	3189.25
1854.58730784427	3219.75
1856.94590460032	3243.25
1859.30379891087	3242.75
1861.66099108503	3242.75
1864.01748143175	3281
1866.37327025978	3299.5
1868.72835787773	3339
1871.08274459403	3351.25
1873.43643071697	3351
1875.78941655464	3352
1878.14170241498	3380.25
1880.4932886058	3394.25
1882.84417543469	3436
1885.19436320915	3427
1887.54385223646	3449
1889.89264282378	3472.5
1892.24073527809	3507.25
1894.58812990625	3542.5
1896.93482701493	3573
1899.28082691067	3588.5
1901.62612989984	3614.5
1903.97073628868	3615.5
1906.31464638326	3599.5
1908.6578604895	3644.5
1911.00037891321	3688
1913.34220196	3727
1915.68332993537	3710
1918.02376314468	3730.75
1920.36350189311	3718
1922.70254648573	3754.5
1925.04089722744	3764.75
1927.37855442303	3797.25
1929.71551837715	3814.75
1932.05178939426	3871.25
1934.38736777876	3851.25
1936.72225383484	3850.25
1939.0564478666	3882.25
1941.38995017799	3877.5
1943.72276107283	3921
1946.05488085479	3895.75
1948.38630982744	3929.5
1950.71704829419	3945.75
1953.04709655832	3944.75
1955.376454923	3964
1957.70512369126	3961.75
1960.03310316599	4014
1962.36039364999	3992.25
1964.68699544589	4000.5
1967.01290885622	4028
1969.33813418338	4039.25
1971.66267172965	4017.5
1973.98652179718	4056.25
1976.309684688	4121
1978.63216070402	4093.5
1980.95395014705	4162
1983.27505331873	4120.25
1985.59547052063	4182.75
1987.9152020542	4231.25
1990.23424822074	4187.75
1992.55260932146	4201.75
1994.87028565746	4247.25
1997.18727752968	4296.5
1999.503585239	4318.5
2001.81920908618	4314.25
2004.13414937184	4366
2006.44840639651	4414
2008.7619804606	4426.25
2011.07487186442	4457.75
2013.38708090815	4477.5
2015.6986078919	4496.75
2018.00945311564	4524.25
2020.31961687923	4546.75
2022.62909948246	4595
2024.93790122498	4601.25
2027.24602240636	4599.5
2029.55346332604	4671.5
2031.86022428337	4666.5
2034.16630557761	4701.75
2036.47170750791	4713
2038.77643037331	4787.5
2041.08047447275	4759.75
2043.38384010509	4815.75
2045.68652756907	4800.5
2047.98853716335	4832.5
2050.28986918648	4807
2052.59052393692	4861.25
2054.89050171302	4891.5
2057.18980281306	4885.75
2059.4884275352	4948.75
2061.78637617753	4913.75
2064.08364903802	4952
2066.38024641457	4908.25
2068.67616860497	5006.25
2070.97141590694	4986.75
2073.26598861809	5028.25
2075.55988703595	4977.5
2077.85311145796	5011.75
2080.14566218145	5052
2082.43753950371	5132.25
2084.72874372188	5086
2087.01927513307	5100.25
2089.30913403428	5134.25
2091.59832072241	5181.5
2093.88683549429	5165.25
2096.17467864666	5193.25
2098.46185047619	5255.25
2100.74835127944	5248
2103.03418135292	5318.25
2105.31934099303	5260.25
2107.6038304961	5352.5
2109.88765015838	5377.25
2112.17080027602	5349.25
2114.45328114513	5432.5
2116.7350930617	5419.5
2119.01623632165	5505.75
2121.29671122085	5462.5
2123.57651805505	5532.75
2125.85565711996	5504.5
2128.13412871117	5597.75
2130.41193312424	5640.75
2132.68907065462	5652.5
2134.96554159771	5674.75
2137.24134624881	5753.5
2139.51648490317	5704.75
2141.79095785593	5733.25
2144.0647654022	5806.5
2146.33790783698	5841.25
2148.61038545524	5777.5
2150.88219855182	5887
2153.15334742154	5918.75
2155.42383235911	5963.25
2157.6936536592	6006.25
2159.9628116164	5964.75
2162.23130652522	5987.75
2164.49913868011	6037.75
2166.76630837544	6089
2169.03281590552	6091.25
2171.2986615646	6129.5
2173.56384564685	6137.25
2175.82836844637	6147.5
2178.0922302572	6168
2180.35543137332	6193.75
2182.61797208862	6279.25
2184.87985269695	6253.25
2187.14107349208	6339.25
2189.40163476773	6296.5
2191.66153681753	6303
2193.92077993507	6350
2196.17936441386	6370.5
2198.43729054735	6427.5
2200.69455862894	6439.75
2202.95116895194	6485
2205.20712180962	6465.75
2207.46241749519	6513
2209.71705630179	6562.75
2211.97103852248	6545.25
2214.2243644503	6617
2216.47703437819	6610.5
2218.72904859905	6597.5
2220.98040740571	6674
2223.23111109095	6681.75
2225.4811599475	6632.75
2227.73055426799	6734.75
2229.97929434504	6765.25
2232.22738047118	6755.25
2234.47481293889	6819.25
2236.72159204058	6878.75
2238.96771806864	6960.25
2241.21319131536	6906.5
2243.458012073	6875.5
2245.70218063374	7014
2247.94569728973	7009
2250.18856233304	7052.75
2252.4307760557	6960
2254.67233874967	7054
2256.91325070687	7080.5
2259.15351221915	7074.25
2261.39312357831	7131.5
2263.63208507611	7131.25
2265.87039700422	7202.5
2268.1080596543	7232.25
2270.34507331792	7266.5
2272.5814382866	7299.75
2274.81715485183	7274
2277.05222330502	7377.5
2279.28664393755	7424.25
2281.52041704072	7405.25
2283.75354290581	7470.75
2285.98602182401	7503.75
2288.21785408648	7489.25
2290.44903998434	7598.75
2292.67957980862	7566
2294.90947385033	7532.75
2297.1387224004	7624.75
2299.36732574975	7678.75
2301.59528418921	7712.75
2303.82259800958	7703.75
2306.04926750158	7732.5
2308.27529295593	7748.75
2310.50067466325	7788.75
2312.72541291412	7815.75
2314.9495079991	7884.5
2317.17296020866	7858.75
2319.39576983323	8003.25
2321.61793716322	7929.75
2323.83946248894	7965.75
2326.06034610069	7986.75
2328.28058828871	8062.5
2330.50018934317	7989.5
2332.7191495542	8052.25
2334.93746921192	8100.75
2337.15514860633	8132
2339.37218802743	8172.75
2341.58858776516	8149.25
2343.80434810941	8189.75
2346.01946935001	8172.75
2348.23395177675	8175.75
2350.44779567939	8260.5
2352.66100134759	8257
2354.87356907101	8271.5
2357.08549913925	8324.25
2359.29679184185	8327.75
2361.50744746829	8412
2363.71746630804	8399.25
2365.92684865048	8390.25
2368.13559478499	8439.25
2370.34370500083	8454.75
2372.55117958727	8476.5
2374.75801883352	8464
2376.96422302874	8488.75
2379.16979246202	8440.5
2381.37472742243	8595.5
2383.57902819898	8586.25
2385.78269508063	8635.25
2387.98572835629	8563.75
2390.18812831482	8564.25
2392.38989524505	8648.75
2394.59102943573	8673
2396.79153117559	8639
2398.9914007533	8675
2401.19063845748	8743
2403.38924457672	8748.5
2405.58721939951	8723
2407.78456321435	8713.5
2409.98127630966	8762
2412.17735897382	8815.25
2414.37281149517	8823
2416.56763416198	8894.5
2418.76182726249	8905.25
2420.95539108487	8828.75
2423.14832591726	8874
2425.34063204776	8914
2427.53230976439	8909
2429.72335935513	8960.25
2431.91378110795	9009
2434.10357531071	8963.5
2436.29274225125	8995.25
2438.48128221739	9007.5
2440.66919549683	9016.5
2442.8564823773	9104.5
2445.04314314641	9095.75
2447.22917809176	9096.25
2449.4145875009	9133
2451.59937166131	9103.5
2453.78353086044	9123.75
2455.96706538568	9131.75
2458.14997552436	9141.25
2460.33226156379	9153.25
2462.51392379119	9194
2464.69496249376	9095.5
2466.87537795862	9165.75
2469.05517047288	9182.75
2471.23434032357	9180.75
2473.41288779767	9283
2475.59081318211	9188
2477.76811676378	9237.75
2479.9447988295	9213.5
2482.12085966605	9178.75
2484.29629956016	9239
2486.4711187985	9213.75
2488.64531766769	9358.75
2490.8188964543	9349.75
2492.99185544484	9247.5
2495.16419492579	9328.25
2497.33591518353	9347
2499.50701650444	9348.75
2501.67749917482	9425.5
2503.84736348091	9367
2506.01660970891	9403
2508.18523814496	9452.25
2510.35324907514	9475
2512.52064278551	9533.75
2514.68741956201	9468.5
2516.85357969058	9738.5
2519.01912345709	9666.5
2521.18405114735	9597.5
2523.34836304711	9610.75
2525.51205944208	9625.75
2527.6751406179	9734.75
2529.83760686016	9704
2531.99945845439	9740.5
2534.16069568606	9729.75
2536.3213188406	9786.25
2538.48132820336	9695.5
2540.64072405965	9775
2542.79950669471	9811.5
2544.95767639373	9870
2547.11523344184	9802.75
2549.27217812411	9847.25
2551.42851072555	9910.25
2553.58423153111	9794.75
2555.73934082569	9835
2557.89383889412	9877.75
2560.04772602118	9906.75
2562.20100249158	9768.25
2564.35366858996	9790.25
2566.50572460093	9904
2568.65717080901	9819.5
2570.80800749867	9857.5
2572.95823495433	9830.75
2575.10785346031	9826.75
2577.25686330093	9701.75
2579.40526476038	9733.5
2581.55305812282	9821.75
2583.70024367237	9782.75
2585.84682169303	9804.5
2587.99279246879	9819.5
2590.13815628354	9797.5
2592.28291342112	9759.75
2594.42706416531	9827.5
2596.5706087998	9842
2598.71354760826	9905
2600.85588087425	9818.75
2602.99760888127	9853.75
2605.13873191278	9839.75
2607.27925025214	9886.25
2609.41916418269	9858.25
2611.55847398764	9915.75
2613.69717995017	9878.25
2615.83528235339	9944.25
2617.97278148034	9966
2620.10967761398	10004
2622.2459710372	9994.25
2624.38166203284	9994.75
2626.51675088365	9989
2628.65123787231	9936
2630.78512328145	10028
2632.9184073936	10020.5
2635.05109049124	10013.25
2637.18317285676	9999.5
2639.31465477248	10059.75
2641.44553652067	10081.25
2643.5758183835	10048.75
2645.70550064309	10071.25
2647.83458358144	10216.25
2649.96306748053	10135.25
2652.09095262223	10174
2654.21823928836	10151.25
2656.34492776063	10065.5
2658.47101832071	10065
2660.59651125015	10176
2662.72140683047	10216
2664.84570534309	10153.5
2666.96940706934	10089.5
2669.0925122905	10141.5
2671.21502128773	10131.75
2673.33693434215	10230
2675.45825173479	10271.5
2677.57897374658	10151
2679.69910065839	10333
2681.818632751	10175.25
2683.93757030511	10207
2686.05591360133	10224.75
2688.17366292021	10260.75
2690.29081854218	10211
2692.40738074762	10176.5
2694.52334981681	10205.5
2696.63872602995	10165.75
2698.75350966713	10300
2700.86770100841	10251.75
2702.98130033371	10190.5
2705.09430792289	10230.25
2707.20672405571	10233.25
2709.31854901185	10346
2711.42978307091	10281.5
2713.54042651238	10220.25
2715.65047961567	10280
2717.7599426601	10312
2719.86881592491	10324
2721.97709968924	10343.5
2724.08479423213	10320.25
2726.19189983255	10297
2728.29841676934	10280.75
2730.4043453213	10321.25
2732.5096857671	10392.75
2734.61443838532	10343.25
2736.71860345444	10354.25
2738.82218125286	10376.5
2740.92517205889	10346.75
2743.02757615072	10410
2745.12939380646	10310.5
2747.23062530411	10385.5
2749.33127092159	10415
2751.4313309367	10291
2753.53080562716	10434.75
2755.62969527058	10465
2757.72800014448	10376.75
2759.82572052625	10327.5
2761.92285669323	10290.75
2764.0194089226	10410
2766.11537749147	10380
2768.21076267686	10382.5
2770.30556475566	10318
2772.39978400465	10311.5
2774.49342070054	10344.25
2776.58647511991	10373
2778.67894753923	10269.75
2780.77083823487	10345
2782.8621474831	10294.25
2784.95287556007	10281.5
2787.04302274184	10262
2789.13258930433	10305.5
2791.22157552338	10283.5
2793.30998167471	10186.75
2795.39780803392	10320.5
2797.4850548765	10332.25
2799.57172247786	10204.5
2801.65781111324	10239.75
2803.74332105781	10201.5
2805.82825258661	10181.5
2807.91260597457	10319.75
2809.9963814965	10255.75
2812.07957942711	10387.25
2814.16220004096	10311.75
2816.24424361252	10325.25
2818.32571041614	10334.75
2820.40660072604	10372.75
2822.48691481631	10383.75
2824.56665296098	10342.5
2826.64581543388	10315.5
2828.72440250876	10355.75
2830.80241445925	10399.5
2832.87985155885	10418.5
2834.95671408093	10479
2837.03300229875	10539.5
2839.10871648544	10542.25
2841.18385691399	10671.25
2843.25842385729	10733.75
2845.33241758808	10704.25
2847.40583837898	10791.5
2849.4786865025	10813.75
2851.550962231	10880
2853.6226658367	10880.25
2855.69379759173	10797.25
2857.76435776806	10857.25
2859.83434663753	10864.75
2861.90376447184	10851.25
2863.97261154259	10778.25
2866.0408881212	10800
2868.10859447901	10796.75
2870.17573088717	10909
2872.24229761673	10873
2874.30829493859	10851.25
2876.37372312352	10804.25
2878.43858244215	10837.75
2880.50287316496	10885
2882.56659556231	10865.75
2884.62974990439	10960
2886.69233646129	11034.75
2888.75435550293	10985.5
2890.81580729909	11163.25
2892.87669211941	11264.25
2894.93701023339	11464.25
2896.99676191039	11781
2899.05594741961	12205.75
2901.1145670301	12599
2903.1726210108	13163.75
2905.23010963045	13717.75
2907.28703315768	14356
2909.34339186096	14813
2911.39918600861	15098.75
2913.45441586879	15135.75
2915.50908170952	15195.75
2917.56318379867	14749.25
2919.61672240395	14539.25
2921.66969779291	14098
2923.72211023295	13761
2925.77395999134	13519.75
2927.82524733515	13482.5
2929.87597253132	13356
2931.92613584663	13228.75
2933.97573754769	13185.75
2936.02477790097	13173
2938.07325717276	13058.5
2940.1211756292	13039.75
2942.16853353626	12870.25
2944.21533115976	12804.25
2946.26156876536	12515
2948.30724661853	12331.5
2950.3523649846	12257.5
2952.39692412872	12029.25
2954.44092431587	11850.25
2956.48436581089	11722.25
2958.52724887843	11647.75
2960.56957378296	11513.25
2962.6113407888	11622.75
2964.65255016011	11615
2966.69320216083	11734.25
2968.73329705479	11677.75
2970.77283510559	11671
2972.81181657671	11654
2974.8502417314	11615.25
2976.88811083279	11433
2978.92542414378	11375.5
2980.96218192713	11227.75
2982.99838444541	11141.75
2985.034031961	10944.5
2987.06912473612	10823
2989.1036630328	10782.5
2991.13764711288	10601.25
2993.17107723804	10555.5
2995.20395366974	10507.25
2997.23627666931	10397.25
2999.26804649782	10453.25
3001.29926341624	10428
3003.32992768528	10395.5
3005.3600395655	10438
3007.38959931726	10397
3009.41860720076	10350
3011.44706347595	10441.25
3013.47496840263	10342.75
3015.50232224041	10387.25
3017.5291252487	10444.25
3019.5553776867	10251.25
3021.58107981344	10331
3023.60623188773	10384
3025.63083416822	10341.25
3027.65488691331	10463.75
3029.67839038125	10281.5
3031.70134483007	10281.5
3033.72375051759	10458
3035.74560770144	10361.75
3037.76691663907	10407.75
3039.78767758768	10398.5
3041.80789080431	10349.25
3043.82755654577	10350
3045.84667506867	10372.25
3047.8652466294	10409.25
3049.88327148418	10375.75
3051.90074988899	10319.75
3053.91768209961	10327.25
3055.9340683716	10288.5
3057.94990896033	10329
3059.96520412095	10373.75
3061.97995410838	10387
3063.99415917734	10308.75
3066.00781958234	10277
3068.02093557766	10235.5
3070.03350741738	10168.75
3072.04553535535	10257.5
3074.05701964521	10143
3076.06796054036	10115.5
3078.078358294	10108.5
3080.08821315912	10232
3082.09752538846	10184
3084.10629523454	10013
3086.11452294967	10120.5
3088.12220878592	10054.75
3090.12935299515	10021.25
3092.13595582898	10064.25
3094.1420175388	9988.75
3096.14753837579	10036.5
3098.15251859088	10048.25
3100.15695843477	10041.25
3102.16085815793	10052
3104.16421801061	9992
3106.16703824282	9940.5
3108.16931910432	10072.5
3110.17106084464	9992
3112.17226371308	10003.25
3114.17292795872	9995
3116.17305383034	10029
3118.17264157657	9878
3120.17169144571	10009.75
3122.17020368587	9879
3124.16817854492	9981
3126.16561627044	10009
3128.16251710982	10073.5
3130.15888131017	10033
3132.15470911837	10048.5
3134.15000078104	10010.25
3136.14475654455	10068.25
3138.13897665502	10095.75
3140.13266135835	10004.5
3142.12581090014	9980
3144.11842552577	10025.25
3146.11050548036	10039
3148.10205100875	10051
3150.09306235557	10055.25
3152.08353976515	9974.5
3154.07348348158	9913
3156.06289374869	10010.25
3158.05177081006	9983.75
3160.04011490899	9951.5
3162.02792628852	10024
3164.01520519145	9872.5
3166.00195186029	9938.75
3167.98816653728	9970
3169.97384946442	9948
3171.95900088344	9876.5
3173.94362103577	9988.5
3175.92771016259	9957
3177.91126850484	9979.5
3179.89429630312	9932.5
3181.87679379782	9880.5
3183.85876122903	9995
3185.84019883657	9956
3187.82110685997	9968
3189.80148553851	9921.5
3191.78133511116	9970
3193.76065581664	9944
3195.73944789337	9873.25
3197.7177115795	9962
3199.6954471129	9909.25
3201.67265473114	9953
3203.64933467153	9956.25
3205.62548717107	9939.75
3207.60111246648	9941.5
3209.57621079421	9897
3211.55078239041	9991.25
3213.52482749093	9865
3215.49834633133	9930
3217.4713391469	9970.75
3219.44380617262	10012
3221.41574764317	10007
3223.38716379296	9901.25
3225.35805485607	9942.5
3227.32842106631	9933.75
3229.29826265718	10024.75
3231.26757986187	9920.75
3233.2363729133	9955.25
3235.20464204405	9971.5
3237.17238748643	10002.5
3239.13960947243	9994.25
3241.10630823374	10017
3243.07248400174	9990.5
3245.03813700748	10078.5
3247.00326748177	9995.5
3248.96787565503	10024
3250.93196175742	10065.25
3252.89552601877	10026.25
3254.8585686686	9949.25
3256.82108993612	10075.25
3258.78309005022	10053
3260.74456923948	9919.75
3262.70552773215	10012
3264.66596575617	9996.5
3266.62588353916	9895.75
3268.58528130843	9974.75
3270.54415929094	9964
3272.50251771336	9953.5
3274.46035680201	9988.5
3276.4176767829	9968.75
3278.37447788171	9953.75
3280.33076032379	10015.25
3282.28652433416	9968.25
3284.24177013751	9992
3286.1964979582	9992.75
3288.15070802027	9994.5
3290.10440054741	10019
3292.05757576298	9908.25
3294.01023389001	9949.5
3295.96237515119	9968.5
3297.91399976887	9930
3299.86510796506	9942.5
3301.81569996142	9990
3303.76577597932	9958.75
3305.7153362397	9996.75
3307.66438096324	9889.75
3309.61291037024	9937.75
3311.56092468064	9893.75
3313.50842411404	9815.5
3315.45540888971	9924.75
3317.40187922656	9833.75
3319.34783534315	9928.25
3321.29327745768	9857.25
3323.23820578801	9685.75
3325.18262055164	9822.5
3327.1265219657	9813.5
3329.06991024699	9797.75
3331.01278561194	9761.5
3332.95514827662	9774
3334.89699845674	9814.75
3336.83833636766	9763.75
3338.77916222434	9710
3340.71947624143	9697.5
3342.65927863317	9716
3344.59856961346	9722
3346.53734939584	9796.5
3348.47561819344	9761.5
3350.41337621906	9711.25
3352.35062368513	9743.5
3354.28736080368	9732.75
3356.22358778637	9698.75
3358.15930484452	9729.5
3360.09451218904	9771.25
3362.02921003047	9737.5
3363.96339857898	9734.5
3365.89707804436	9792
3367.83024863602	9719.75
3369.76291056299	9634.25
3371.69506403389	9682
3373.62670925699	9770
3375.55784644016	9752.75
3377.4884757909	9700.5
3379.41859751629	9712
3381.34821182305	9729
3383.27731891749	9723
3385.20591900555	9743
3387.13401229276	9785.5
3389.06159898426	9750
3390.9886792848	9799
3392.91525339872	9779.75
3394.84132152998	9809.25
3396.76688388213	9812.5
3398.69194065833	9773.75
3400.61649206133	9806
3402.54053829348	9739.25
3404.46407955672	9749.5
3406.3871160526	9690.5
3408.30964798225	9780.25
3410.23167554639	9789.5
3412.15319894535	9827.75
3414.07421837904	9812.25
3415.99473404695	9770
3417.91474614817	9766.5
3419.83425488136	9850.25
3421.75326044479	9829.5
3423.67176303631	9821.5
3425.58976285332	9835.75
3427.50726009282	9780.5
3429.42425495143	9749
3431.34074762528	9769
3433.25673831012	9674.75
3435.17222720127	9744
3437.08721449362	9733.25
3439.00170038164	9697.25
3440.91568505936	9766.75
3442.82916872039	9644.75
3444.74215155791	9752.75
3446.65463376468	9704.5
3448.566615533	9625
3450.47809705476	9658.25
3452.3890785214	9641
3454.29956012393	9690.75
3456.20954205293	9653.5
3458.11902449853	9635
3460.02800765041	9635.75
3461.93649169784	9607
3463.84447682962	9641
3465.75196323412	9601.5
3467.65895109925	9547
3469.56544061249	9520.25
3471.47143196086	9601
3473.37692533093	9620.5
3475.28192090884	9548
3477.18641888026	9579.5
3479.09041943039	9560.75
3480.99392274402	9615.5
3482.89692900545	9594
3484.79943839853	9566
3486.70145110666	9534.75
3488.60296731277	9569.5
3490.50398719933	9506.5
3492.40451094836	9473.75
3494.30453874141	9503.75
3496.20407075956	9612
3498.10310718342	9515
3500.00164819315	9455.75