200.090469251518	1351
202.974751419362	1335
205.858021632263	1341
208.740280737522	1340
211.621529580443	1352
214.501769004371	1338
217.380999850626	1346
220.25922295859	1352
223.136439165646	1333
226.012649307235	1347
228.88785421682	1345
231.762054725918	1382
234.635251664113	1362
237.507445859021	1338
240.378638136346	1386
243.248829319855	1367
246.11802023137	1386
248.986211690826	1353
251.853404516227	1385
254.719599523654	1417
257.584797527335	1389
260.44899933954	1453
263.312205770682	1453
266.174417629303	1458
269.035635722015	1446
271.895860853609	1435
274.755093826978	1432
277.613335443144	1452
280.470586501309	1424
283.326847798766	1456
286.182120131019	1437
289.036404291684	1416
291.889701072574	1414
294.742011263643	1437
297.593335653048	1454
300.443675027094	1430
303.293030170295	1468
306.141401865367	1443
308.988790893174	1426
311.835198032837	1424
314.680624061635	1374
317.525069755113	1431
320.36853588697	1426
323.211023229178	1396
326.052532551923	1453
328.893064623604	1416
331.732620210885	1426
334.57120007867	1442
337.408804990093	1441
340.245435706565	1438
343.081092987733	1459
345.915777591523	1492
348.749490274145	1464
351.582231790049	1438
354.414002891997	1452
357.244804331021	1473
360.074636856443	1469
362.903501215886	1458
365.731398155265	1456
368.558328418814	1499
371.384292749062	1452
374.209291886869	1519
377.033326571407	1509
379.85639754017	1501
382.678505529009	1513
385.499651272065	1497
388.319835501872	1529
391.139058949258	1485
393.957322343453	1477
396.774626412011	1479
399.590971880847	1546
402.406359474258	1500
405.220789914893	1513
408.034263923801	1512
410.8467822204	1520
413.658345522483	1498
416.468954546242	1527
419.278610006277	1520
422.087312615557	1547
424.895063085503	1551
427.701862125901	1532
430.507710444981	1563
433.312608749366	1536
436.116557744146	1552
438.919558132791	1571
441.721610617238	1551
444.522715897856	1591
447.322874673457	1570
450.122087641299	1542
452.920355497092	1603
455.717678935009	1547
458.514058647681	1547
461.309495326219	1562
464.103989660191	1573
466.89754233765	1583
469.690154045114	1555
472.481825467625	1578
475.272557288674	1580
478.062350190281	1587
480.851204852952	1575
483.639121955683	1581
486.426102176007	1577
489.212146189955	1630
491.997254672093	1568
494.781428295471	1634
497.564667731716	1602
500.346973650958	1579
503.128346721878	1637
505.90878761169	1632
508.688296986151	1661
511.46687550957	1584
514.244523844831	1617
517.021242653354	1631
519.797032595132	1658
522.571894328732	1620
525.345828511279	1647
528.11883579849	1672
530.890916844655	1627
533.662072302668	1672
536.432302823985	1646
539.201609058684	1652
541.96999165542	1666
544.737451261473	1679
547.503988522723	1708
550.26960408366	1636
553.034298587394	1678
555.798072675669	1666
558.560926988819	1716
561.322862165849	1727
564.083878844369	1718
566.843977660654	1716
569.603159249604	1704
572.361424244769	1738
575.118773278369	1701
577.87520698124	1687
580.630725982905	1694
583.385330911566	1677
586.139022394076	1755
588.891801055954	1704
591.643667521406	1712
594.394622413318	1711
597.144666353273	1722
599.893799961512	1730
602.64202385701	1703
605.389338657413	1720
608.135744979089	1693
610.881243437092	1701
613.625834645191	1696
616.369519215881	1679
619.112297760374	1705
621.854170888604	1757
624.595139209225	1840
627.335203329614	1923
630.074363855914	2053
632.81262139299	1997
635.549976544436	1884
638.286429912612	1760
641.021982098635	1709
643.756633702364	1715
646.49038532241	1691
649.223237556176	1697
651.955190999808	1748
654.686246248224	1712
657.416403895135	1727
660.145664533011	1722
662.874028753133	1667
665.601497145537	1695
668.328070299071	1681
671.05374880138	1718
673.778533238885	1715
676.502424196839	1742
679.225422259297	1764
681.947528009099	1727
684.668742027927	1747
687.389064896281	1743
690.108497193465	1742
692.827039497621	1748
695.544692385724	1765
698.261456433585	1803
700.977332215847	1871
703.692320305981	1818
706.406421276337	1810
709.11963569808	1801
711.831964141256	1742
714.54340717474	1779
717.253965366304	1793
719.963639282552	1713
722.672429488961	1719
725.380336549904	1725
728.087361028596	1788
730.793503487166	1770
733.498764486594	1745
736.203144586758	1756
738.906644346447	1768
741.60926432331	1768
744.311005073912	1768
747.011867153727	1796
749.711851117121	1811
752.410957517375	1810
755.109186906677	1771
757.806539836132	1846
760.503016855779	1804
763.198618514551	1820
765.893345360346	1795
768.587197939964	1822
771.28017679914	1824
773.972282482566	1860
776.663515533859	1763
779.353876495581	1838
782.043365909241	1837
784.731984315327	1866
787.419732253235	1918
790.106610261366	1878
792.792618877058	1926
795.477758636618	1895
798.162030075313	1898
800.845433727423	1922
803.52797012615	1891
806.209639803714	1950
808.890443291304	1921
811.570381119098	1863
814.249453816265	1924
816.927661910959	1938
819.60500593036	1911
822.281486400603	1962
824.957103846864	1937
827.631858793316	1979
830.305751763135	1960
832.978783278519	2005
835.650953860677	1957
838.322264029848	2025
840.992714305292	2011
843.662305205289	2058
846.331037247157	2173
848.998910947241	2260
851.665926820933	2391
854.332085382674	2466
856.997387145915	2535
859.661832623191	2573
862.325422326066	2413
864.988156765172	2226
867.650036450181	2173
870.311061889846	2076
872.971233591961	2037
875.630552063409	2062
878.28901781013	2036
880.946631337138	2011
883.603393148533	1999
886.259303747484	2033
888.914363636246	2006
891.568573316155	1938
894.22193328767	1999
896.874444050281	1964
899.526106102625	2029
902.176919942416	1972
904.826886066483	1997
907.476004970747	2027
910.124277150255	2016
912.77170309913	1975
915.418283310642	1987
918.064018277175	1980
920.708908490222	2056
923.352954440405	1978
925.996156617486	2033
928.638515510334	2058
931.280031606966	2000
933.920705394521	2030
936.560537359303	2055
939.199527986737	1999
941.837677761392	2054
944.474987167006	2057
947.111456686438	2053
949.747086801734	2099
952.38187799407	2090
955.015830743792	2065
957.648945530418	2030
960.281222832633	2093
962.91266312826	2049
965.543266894336	2068
968.173034607058	2078
970.801966741779	2105
973.43006377307	2036
976.057326174661	2106
978.683754419471	2076
981.309348979623	2175
983.93411032642	2153
986.558038930361	2145
989.181135261144	2196
991.803399787692	2188
994.424832978086	2272
997.045435299653	2250
999.665207218906	2339
1002.2841492016	2230
1004.90226171266	2295
1007.51954521628	2203
1010.13600017584	2222
1012.75162705397	2257
1015.3664263125	2223
1017.9803984125	2213
1020.5935438143	2211
1023.20586297741	2205
1025.81735636063	2237
1028.42802442196	2229
1031.03786761869	2244
1033.64688640732	2250
1036.2550812436	2246
1038.86245258255	2293
1041.46900087844	2271
1044.07472658479	2271
1046.67963015438	2261
1049.28371203927	2257
1051.88697269075	2338
1054.48941255943	2271
1057.09103209513	2318
1059.691831747	2294
1062.29181196343	2252
1064.89097319211	2302
1067.48931587999	2343
1070.08684047333	2347
1072.68354741766	2352
1075.27943715779	2328
1077.87451013787	2453
1080.46876680127	2446
1083.06220759071	2447
1085.65483294822	2515
1088.24664331509	2553
1090.83763913194	2662
1093.42782083869	2705
1096.01718887459	2659
1098.60574367818	2605
1101.19348568732	2600
1103.78041533919	2583
1106.3665330703	2533
1108.95183931646	2549
1111.53633451284	2543
1114.12001909391	2613
1116.70289349349	2597
1119.2849581447	2575
1121.86621348005	2580
1124.44665993134	2569
1127.02629792973	2493
1129.60512790574	2488
1132.18315028919	2441
1134.76036550929	2407
1137.3367739946	2432
1139.912376173	2424
1142.48717247176	2423
1145.06116331748	2396
1147.63434913616	2453
1150.20673035312	2409
1152.77830739307	2427
1155.34908068007	2347
1157.91905063757	2425
1160.48821768838	2387
1163.05658225471	2370
1165.6241447581	2401
1168.19090561951	2429
1170.75686525927	2465
1173.32202409708	2531
1175.88638255206	2487
1178.44994104269	2450
1181.01269998684	2446
1183.57465980182	2502
1186.13582090427	2451
1188.69618371026	2479
1191.25574863529	2455
1193.8145160942	2394
1196.37248650129	2412
1198.92966027025	2392
1201.48603781416	2413
1204.04161954556	2372
1206.59640587635	2374
1209.15039721788	2372
1211.70359398092	2393
1214.25599657564	2409
1216.80760541166	2374
1219.35842089801	2372
1221.90844344314	2348
1224.45767345496	2452
1227.00611134077	2395
1229.55375750736	2396
1232.10061236092	2364
1234.64667630707	2464
1237.1919497509	2457
1239.73643309692	2445
1242.28012674912	2488
1244.82303111089	2462
1247.36514658511	2497
1249.9064735741	2538
1252.44701247964	2580
1254.98676370294	2516
1257.52572764469	2595
1260.06390470506	2574
1262.60129528365	2679
1265.13789977954	2688
1267.67371859128	2707
1270.20875211688	2817
1272.74300075384	2871
1275.2764648991	2916
1277.80914494911	3045
1280.34104129978	3163
1282.87215434652	3198
1285.40248448419	3241
1287.93203210715	3349
1290.46079760927	3251
1292.98878138385	3296
1295.51598382375	3118
1298.04240532127	3050
1300.56804626822	2962
1303.09290705593	2829
1305.6169880752	2850
1308.14028971632	2855
1310.66281236913	2745
1313.18455642292	2742
1315.70552226653	2754
1318.22571028829	2669
1320.74512087603	2674
1323.26375441711	2641
1325.7816112984	2708
1328.29869190629	2706
1330.81499662666	2661
1333.33052584497	2690
1335.84527994613	2689
1338.35925931464	2676
1340.87246433446	2701
1343.38489538916	2724
1345.89655286177	2689
1348.40743713487	2702
1350.91754859059	2691
1353.42688761059	2671
1355.93545457606	2706
1358.44324986772	2739
1360.95027386588	2759
1363.45652695032	2761
1365.96200950042	2794
1368.4667218951	2750
1370.97066451281	2779
1373.47383773156	2739
1375.97624192891	2689
1378.47787748199	2704
1380.97874476746	2745
1383.47884416157	2722
1385.97817604009	2762
1388.4767407784	2695
1390.9745387514	2749
1393.47157033358	2724
1395.96783589898	2781
1398.46333582124	2747
1400.95807047354	2744
1403.45204022864	2787
1405.94524545889	2790
1408.4376865362	2801
1410.92936383205	2902
1413.42027771752	2923
1415.91042856328	2851
1418.39981673955	2844
1420.88844261615	2821
1423.37630656249	2812
1425.86340894757	2820
1428.34975013999	2821
1430.83533050792	2786
1433.32015041912	2765
1435.80421024098	2832
1438.28751034045	2898
1440.77005108411	2930
1443.25183283812	2978
1445.73285596824	2927
1448.21312083984	2936
1450.69262781791	2933
1453.17137726702	2917
1455.64936955137	2960
1458.12660503477	3001
1460.60308408063	3000
1463.07880705197	2993
1465.55377431145	2991
1468.02798622133	2996
1470.50144314348	2899
1472.97414543941	2916
1475.44609347024	2917
1477.91728759673	2903
1480.38772817924	2920
1482.85741557777	2935
1485.32635015194	2946
1487.79453226103	2884
1490.26196226391	2904
1492.72864051911	2894
1495.1945673848	2934
1497.65974321874	2939
1500.1241683784	2889
1502.58784322083	2950
1505.05076810274	2920
1507.51294338049	2985
1509.97436941009	2952
1512.43504654717	2906
1514.89497514704	2978
1517.35415556462	2922
1519.81258815451	2927
1522.27027327095	2924
1524.72721126784	2970
1527.18340249874	2994
1529.63884731684	3051
1532.09354607502	2987
1534.5474991258	3046
1537.00070682136	3054
1539.45316951355	2991
1541.90488755388	3023
1544.35586129353	3011
1546.80609108336	2980
1549.25557727385	3022
1551.70432021519	3122
1554.15232025725	3091
1556.59957774953	3058
1559.04609304125	3092
1561.49186648127	3116
1563.93689841815	3036
1566.38118920011	3144
1568.82473917506	3093
1571.2675486906	3184
1573.70961809399	3138
1576.15094773219	3247
1578.59153795184	3202
1581.03138909928	3242
1583.47050152051	3255
1585.90887556123	3221
1588.34651156686	3201
1590.78340988246	3307
1593.21957085283	3315
1595.65499482245	3393
1598.08968213547	3526
1600.52363313578	3689
1602.95684816694	3926
1605.38932757224	4282
1607.82107169462	5024
1610.25208087677	5843
1612.68235546107	6264
1615.1118957896	6143
1617.54070220415	5304
1619.96877504621	4362
1622.39611465701	3816
1624.82272137746	3552
1627.24859554818	3434
1629.67373750953	3347
1632.09814760155	3336
1634.52182616404	3303
1636.94477353647	3297
1639.36699005806	3251
1641.78847606776	3304
1644.20923190418	3242
1646.62925790573	3190
1649.04855441048	3242
1651.46712175628	3269
1653.88496028066	3291
1656.3020703209	3284
1658.71845221401	3332
1661.13410629671	3289
1663.54903290547	3275
1665.96323237649	3238
1668.37670504571	3347
1670.78945124877	3327
1673.20147132109	3375
1675.61276559779	3384
1678.02333441377	3378
1680.43317810362	3358
1682.84229700171	3463
1685.25069144213	3459
1687.65836175872	3418
1690.06530828507	3390
1692.47153135451	3506
1694.87703130009	3477
1697.28180845467	3433
1699.6858631508	3542
1702.08919572081	3583
1704.49180649676	3605
1706.89369581049	3658
1709.29486399355	3680
1711.69531137731	3899
1714.09503829282	4074
1716.49404507095	4275
1718.89233204229	4607
1721.28989953721	4857
1723.68674788581	5161
1726.08287741798	5267
1728.47828846338	5128
1730.87298135139	4852
1733.26695641119	4631
1735.66021397173	4492
1738.05275436169	4193
1740.44457790954	4175
1742.83568494354	4001
1745.22607579168	3821
1747.61575078175	3731
1750.00471024128	3596
1752.39295449761	3658
1754.78048387783	3674
1757.16729870881	3590
1759.5533993172	3659
1761.93878602942	3537
1764.32345917168	3527
1766.70741906995	3640
1769.09066604999	3679
1771.47320043735	3624
1773.85502255735	3611
1776.2361327351	3649
1778.61653129548	3647
1780.99621856318	3654
1783.37519486264	3689
1785.75346051813	3746
1788.13101585368	3713
1790.5078611931	3722
1792.88399686002	3750
1795.25942317785	3709
1797.63414046977	3723
1800.00814905878	3695
1802.38144926766	3692
1804.75404141898	3738
1807.12592583514	3668
1809.49710283829	3814
1811.86757275039	3718
1814.23733589322	3741
1816.60639258834	3755
1818.97474315712	3786
1821.34238792073	3823
1823.70932720012	3740
1826.07556131608	3756
1828.44109058918	3814
1830.8059153398	3751
1833.17003588812	3721
1835.53345255413	3766
1837.89616565765	3717
1840.25817551827	3794
1842.61948245541	3853
1844.9800867883	3799
1847.33998883598	3761
1849.69918891729	3766
1852.05768735091	3907
1854.4154844553	3835
1856.77258054875	3841
1859.12897594938	3893
1861.4846709751	3780
1863.83966594366	3862
1866.19396117261	3890
1868.54755697932	3879
1870.90045368099	3836
1873.25265159463	3839
1875.60415103708	3914
1877.95495232501	3972
1880.30505577486	3793
1882.65446170299	3878
1885.00317042548	4043
1887.35118225832	4013
1889.69849751726	3945
1892.04511651792	3978
1894.39103957574	4044
1896.73626700596	3989
1899.08079912368	3999
1901.42463624384	4083
1903.76777868116	4028
1906.11022675025	4143
1908.4519807655	4128
1910.79304104117	4084
1913.13340789134	4125
1915.47308162992	4051
1917.81206257067	4227
1920.15035102718	4194
1922.48794731286	4157
1924.82485174096	4177
1927.16106462461	4186
1929.49658627672	4241
1931.83141701008	4182
1934.1655571373	4194
1936.49900697085	4160
1938.83176682301	4179
1941.16383700594	4225
1943.49521783161	4143
1945.82590961186	4215
1948.15591265835	4093
1950.48522728262	4152
1952.81385379602	4168
1955.14179250976	4221
1957.46904373489	4238
1959.79560778233	4185
1962.12148496284	4186
1964.44667558701	4289
1966.77117996529	4231
1969.09499840799	4173
1971.41813122527	4200
1973.74057872714	4214
1976.06234122345	4311
1978.38341902391	4300
1980.7038124381	4319
1983.02352177543	4314
1985.34254734518	4316
1987.66088945649	4368
1989.97854841833	4357
1992.29552453956	4379
1994.61181812887	4295
1996.92742949483	4366
1999.24235894586	4294
2001.55660679023	4449
2003.87017333608	4446
2006.18305889143	4500
2008.49526376413	4406
2010.80678826189	4511
2013.1176326923	4552
2015.42779736282	4491
2017.73728258075	4474
2020.04608865326	4521
2022.3542158874	4555
2024.66166459008	4582
2026.96843506807	4597
2029.274527628	4651
2031.57994257637	4631
2033.88468021957	4664
2036.18874086383	4542
2038.49212481526	4625
2040.79483237983	4632
2043.0968638634	4620
2045.39821957169	4647
2047.69889981028	4643
2049.99890488462	4726
2052.29823510006	4662
2054.59689076181	4661
2056.89487217492	4656
2059.19217964437	4720
2061.48881347497	4721
2063.7847739714	4808
2066.08006143826	4713
2068.37467618	4711
2070.66861850093	4736
2072.96188870527	4720
2075.25448709707	4712
2077.54641398031	4810
2079.83766965881	4804
2082.12825443629	4751
2084.41816861634	4782
2086.70741250242	4817
2088.99598639789	4822
2091.28389060597	4741
2093.57112542978	4797
2095.85769117232	4897
2098.14358813644	4830
2100.42881662491	4785
2102.71337694037	4867
2104.99726938532	4813
2107.28049426219	4747
2109.56305187325	4828
2111.84494252069	4908
2114.12616650655	4857
2116.40672413278	4885
2118.68661570121	4983
2120.96584151355	4940
2123.24440187138	4876
2125.52229707622	4940
2127.79952742943	4921
2130.07609323227	5068
2132.35199478588	5020
2134.62723239132	5061
2136.90180634949	5049
2139.17571696123	5017
2141.44896452723	5023
2143.72154934809	5041
2145.99347172429	5015
2148.26473195623	5209
2150.53533034415	5164
2152.80526718821	5165
2155.07454278848	5136
2157.3431574449	5143
2159.61111145728	5190
2161.87840512538	5148
2164.1450387488	5217
2166.41101262707	5219
2168.67632705959	5158
2170.94098234567	5198
2173.20497878451	5141
2175.46831667519	5275
2177.73099631672	5322
2179.99301800797	5292
2182.25438204772	5220
2184.51508873466	5281
2186.77513836735	5235
2189.03453124427	5252
2191.29326766378	5282
2193.55134792416	5264
2195.80877232355	5379
2198.06554116004	5271
2200.32165473157	5293
2202.577113336	5360
2204.83191727111	5373
2207.08606683453	5356
2209.33956232384	5440
2211.59240403648	5312
2213.84459226982	5413
2216.09612732112	5359
2218.34700948753	5404
2220.59723906612	5374
2222.84681635385	5403
2225.09574164758	5342
2227.34401524408	5405
2229.59163744002	5342
2231.83860853197	5438
2234.08492881639	5466
2236.33059858968	5382
2238.5756181481	5464
2240.81998778784	5546
2243.06370780499	5488
2245.30677849555	5488
2247.54920015539	5505
2249.79097308033	5506
2252.03209756607	5581
2254.27257390822	5551
2256.51240240228	5587
2258.75158334369	5637
2260.99011702777	5531
2263.22800374976	5583
2265.46524380477	5490
2267.70183748786	5604
2269.93778509399	5522
2272.17308691801	5593
2274.40774325467	5585
2276.64175439866	5565
2278.87512064454	5696
2281.10784228682	5641
2283.33991961987	5730
2285.571352938	5670
2287.80214253541	5688
2290.03228870623	5622
2292.26179174449	5701
2294.4906519441	5728
2296.71886959892	5698
2298.9464450027	5684
2301.1733784491	5814
2303.39967023169	5659
2305.62532064395	5801
2307.85032997926	5684
2310.07469853093	5731
2312.29842659216	5774
2314.52151445608	5868
2316.7439624157	5777
2318.96577076397	5806
2321.18693979374	5816
2323.40746979777	5867
2325.62736106873	5850
2327.8466138992	5861
2330.06522858166	5768
2332.28320540853	5857
2334.50054467212	5882
2336.71724666465	5903
2338.93331167827	5846
2341.14874000501	5884
2343.36353193685	5821
2345.57768776564	5848
2347.79120778319	5759
2350.00409228117	5837
2352.21634155121	5851
2354.42795588482	5875
2356.63893557342	5850
2358.84928090838	5931
2361.05899218094	5880
2363.26806968228	5860
2365.47651370347	5939
2367.68432453552	5898
2369.89150246933	5843
2372.09804779571	5834
2374.30396080541	5829
2376.50924178907	5959
2378.71389103725	5873
2380.91790884042	5898
2383.12129548897	5941
2385.3240512732	5964
2387.52617648332	5972
2389.72767140946	5888
2391.92853634165	6000
2394.12877156985	5944
2396.32837738392	5973
2398.52735407365	5946
2400.72570192873	5992
2402.92342123875	5973
2405.12051229325	5944
2407.31697538167	5907
2409.51281079333	5978
2411.70801881751	5887
2413.90259974339	5939
2416.09655386004	5984
2418.28988145648	5903
2420.48258282162	5974
2422.6746582443	6010
2424.86610801325	6104
2427.05693241713	5949
2429.24713174452	5940
2431.43670628389	6001
2433.62565632365	5969
2435.81398215212	6040
2438.00168405752	6043
2440.18876232799	6040
2442.37521725158	6061
2444.56104911628	5966
2446.74625820994	5951
2448.93084482038	6064
2451.1148092353	6007
2453.29815174233	6086
2455.480872629	5996
2457.66297218275	5990
2459.84445069097	5877
2462.02530844092	6005
2464.2055457198	5939
2466.38516281471	6009
2468.56416001267	5892
2470.74253760061	5952
2472.92029586537	5948
2475.09743509372	5970
2477.27395557232	6013
2479.44985758777	5904
2481.62514142655	6020
2483.79980737508	6027
2485.97385571969	6036
2488.14728674661	5980
2490.32010074198	5958
2492.49229799188	5975
2494.66387878228	6092
2496.83484339905	6091
2499.00519212802	5999
2501.17492525488	5962
2503.34404306528	6092
2505.51254584473	6058
2507.6804338787	6119
2509.84770745254	6054
2512.01436685153	6146
2514.18041236085	6095
2516.34584426561	6122
2518.51066285081	6080
2520.67486840138	6124
2522.83846120214	6157
2525.00144153784	6127
2527.16380969314	6192
2529.32556595261	6230
2531.48671060072	6152
2533.64724392186	6162
2535.80716620033	6290
2537.96647772034	6249
2540.12517876602	6240
2542.2832696214	6235
2544.44075057041	6236
2546.59762189691	6169
2548.75388388466	6271
2550.90953681735	6101
2553.06458097853	6267
2555.21901665172	6204
2557.37284412031	6169
2559.5260636676	6348
2561.67867557684	6241
2563.83068013113	6245
2565.98207761351	6213
2568.13286830695	6125
2570.28305249429	6226
2572.43263045829	6196
2574.58160248163	6271
2576.72996884689	6134
2578.87772983655	6290
2581.02488573303	6347
2583.1714368186	6236
2585.31738337549	6201
2587.46272568582	6276
2589.60746403161	6287
2591.75159869479	6220
2593.89512995722	6262
2596.03805810061	6341
2598.18038340665	6267
2600.32210615686	6176
2602.46322663274	6270
2604.60374511563	6244
2606.74366188683	6268
2608.88297722751	6270
2611.02169141875	6286
2613.15980474156	6281
2615.29731747681	6264
2617.43422990532	6370
2619.57054230779	6386
2621.70625496483	6403
2623.84136815694	6395
2625.97588216456	6427
2628.10979726799	6392
2630.24311374746	6411
2632.3758318831	6365
2634.50795195493	6358
2636.6394742429	6510
2638.77039902682	6498
2640.90072658645	6402
2643.0304572014	6444
2645.15959115123	6420
2647.28812871538	6526
2649.41607017319	6531
2651.5434158039	6362
2653.67016588665	6493
2655.79632070049	6413
2657.92188052436	6490
2660.04684563711	6587
2662.17121631749	6576
2664.29499284413	6490
2666.41817549558	6541
2668.54076455027	6529
2670.66276028656	6509
2672.78416298267	6542
2674.90497291675	6672
2677.02519036682	6679
2679.14481561082	6626
2681.26384892658	6610
2683.38229059182	6602
2685.50014088417	6666
2687.61740008114	6572
2689.73406846017	6621
2691.85014629854	6656
2693.96563387347	6645
2696.08053146206	6791
2698.1948393413	6675
2700.3085577881	6595
2702.42168707924	6682
2704.53422749139	6622
2706.64617930112	6768
2708.75754278492	6658
2710.86831821913	6777
2712.97850588002	6859
2715.08810604372	6732
2717.19711898628	6787
2719.30554498363	6792
2721.41338431158	6774
2723.52063724586	6724
2725.62730406206	6871
2727.73338503569	6849
2729.83888044213	6821
2731.94379055664	6910
2734.04811565441	6816
2736.15185601048	6882
2738.25501189979	6899
2740.35758359718	6962
2742.45957137738	6899
2744.56097551499	6942
2746.6617962845	7022
2748.7620339603	6944
2750.86168881666	6949
2752.96076112774	6911
2755.05925116758	7010
2757.15715921012	6982
2759.25448552917	7019
2761.35123039843	6898
2763.44739409148	7049
2765.5429768818	7070
2767.63797904275	7103
2769.73240084756	7127
2771.82624256934	7128
2773.91950448113	7028
2776.01218685579	7110
2778.10428996609	7111
2780.19581408469	7136
2782.28675948414	7236
2784.37712643683	7304
2786.46691521507	7273
2788.55612609104	7225
2790.64475933678	7191
2792.73281522425	7153
2794.82029402525	7425
2796.90719601149	7210
2798.99352145453	7294
2801.07927062583	7271
2803.16444379672	7336
2805.24904123841	7233
2807.33306322197	7327
2809.41651001838	7382
2811.49938189847	7310
2813.58167913296	7347
2815.66340199243	7436
2817.74455074734	7406
2819.82512566805	7403
2821.90512702475	7439
2823.98455508754	7434
2826.06341012637	7419
2828.14169241109	7424
2830.2194022114	7470
2832.29653979686	7497
2834.37310543694	7493
2836.44909940096	7526
2838.5245219581	7542
2840.59937337744	7614
2842.67365392791	7546
2844.74736387829	7622
2846.82050349727	7646
2848.8930730534	7696
2850.96507281506	7696
2853.03650305056	7798
2855.10736402802	7719
2857.17765601545	7773
2859.24737928074	7907
2861.31653409164	7830
2863.38512071574	7859
2865.45313942054	7948
2867.52059047335	7989
2869.58747414139	7946
2871.65379069173	8004
2873.7195403913	7981
2875.78472350688	7934
2877.84934030515	8035
2879.91339105262	8015
2881.97687601567	8204
2884.03979546053	8071
2886.10214965332	8176
2888.16393886	8123
2890.22516334639	8220
2892.28582337816	8181
2894.34591922087	8234
2896.40545113992	8215
2898.46441940054	8309
2900.52282426787	8349
2902.58066600687	8355
2904.63794488237	8437
2906.69466115906	8334
2908.75081510147	8515
2910.806406974	8489
2912.8614370409	8527
2914.91590556626	8447
2916.96981281404	8526
2919.02315904807	8402
2921.07594453199	8497
2923.12816952932	8486
2925.17983430343	8436
2927.23093911753	8506
2929.28148423469	8577
2931.33146991782	8499
2933.3808964297	8583
2935.42976403294	8678
2937.47807299	8610
2939.5258235632	8630
2941.57301601469	8620
2943.61965060648	8665
2945.66572760042	8704
2947.71124725823	8719
2949.75620984143	8847
2951.80061561143	8941
2953.84446482945	8946
2955.88775775656	9015
2957.9304946537	9034
2959.97267578162	8972
2962.01430140095	9051
2964.05537177211	9194
2966.09588715541	9215
2968.13584781097	9288
2970.17525399875	9181
2972.21410597859	9093
2974.25240401011	9276
2976.29014835283	9186
2978.32733926604	9110
2980.36397700892	9259
2982.40006184049	9279
2984.43559401955	9178
2986.4705738048	9081
2988.50500145473	9243
2990.53887722771	9397
2992.57220138189	9334
2994.6049741753	9252
2996.63719586576	9424
2998.66886671097	9387
3000.69998696843	9545
3002.73055689549	9590
3004.7605767493	9614
3006.79004678688	9648
3008.81896726505	9573
3010.84733844048	9660
3012.87516056966	9724
3014.9024339089	9702
3016.92915871433	9785
3018.95533524196	9744
3020.98096374756	9704
3023.00604448675	9822
3025.030577715	9845
3027.05456368757	9811
3029.07800265956	9821
3031.10089488589	9862
3033.12324062131	10002
3035.14504012038	9889
3037.16629363749	9923
3039.18700142685	10041
3041.20716374249	10135
3043.22678083826	9974
3045.24585296782	10025
3047.26438038468	10076
3049.28236334212	10212
3051.29980209329	10225
3053.31669689111	10177
3055.33304798835	10265
3057.34885563757	10236
3059.36412009117	10287
3061.37884160134	10324
3063.39302042011	10582
3065.40665679931	10569
3067.41975099058	10624
3069.43230324538	10775
3071.44431381495	10750
3073.45578295041	11037
3075.46671090261	11037
3077.47709792227	11217
3079.48694425989	11296
3081.49625016578	11371
3083.50501589008	11295
3085.5132416827	11102
3087.5209277934	10942
3089.52807447169	10790
3091.53468196695	10951
3093.54075052832	10673
3095.54628040476	10673
3097.55127184503	10825
3099.55572509769	10693
3101.55964041111	10687
3103.56301803346	10779
3105.5658582127	10826
3107.56816119661	10869
3109.56992723275	10603
3111.57115656849	10767
3113.571849451	10682
3115.57200612724	10808
3117.57162684397	10943
3119.57071184775	10966
3121.56926138493	10938
3123.56727570166	11069
3125.56475504389	10981
3127.56169965735	10956
3129.55810978757	11220
3131.55398567987	11138
3133.54932757937	11000
3135.54413573099	11318
3137.53841037939	11218
3139.53215176909	11271
3141.52536014435	11290
3143.51803574924	11468
3145.51017882762	11268
3147.50178962311	11507
3149.49286837916	11403
3151.48341533897	11433
3153.47343074553	11528
3155.46291484164	11560
3157.45186786985	11463
3159.44029007252	11487
3161.42818169179	11441
3163.41554296955	11672
3165.40237414753	11582
3167.38867546718	11572
3169.37444716975	11667
3171.35968949631	11677
3173.34440268764	11708
3175.32858698436	11886
3177.31224262682	11792
3179.29536985517	12005
3181.27796890934	11786
3183.26004002902	11786
3185.24158345368	11965
3187.22259942256	11937
3189.2030881747	11826
3191.18304994886	11913
3193.16248498363	11964
3195.14139351733	11918
3197.11977578807	12017
3199.09763203371	11991
3201.07496249191	12208
3203.05176740007	12122
3205.02804699537	12082
3207.00380151475	12196
3208.97903119493	12243
3210.95373627238	12412
3212.92791698335	12275
3214.90157356383	12271
3216.8747062496	12411
3218.84731527619	12410
3220.81940087889	12573
3222.79096329275	12497
3224.76200275259	12524
3226.73251949298	12753
3228.70251374825	12755
3230.67198575251	12490
3232.64093573959	12662
3234.6093639431	12834
3236.57727059641	12674
3238.54465593261	12951
3240.51152018461	12731
3242.47786358502	12877
3244.44368636621	12885
3246.40898876031	12819
3248.37377099923	12941
3250.33803331458	12814
3252.30177593775	13086
3254.26499909987	13175
3256.22770303184	13124
3258.18988796427	13116
3260.15155412755	13046
3262.1127017518	13076
3264.0733310669	13149
3266.03344230246	13196
3267.99303568784	13314
3269.95211145215	13152
3271.91066982422	13401
3273.86871103267	13254
3275.82623530581	13365
3277.7832428717	13394
3279.73973395818	13289
3281.69570879278	13420
3283.6511676028	13546
3285.60611061527	13577
3287.56053805694	13660
3289.51445015432	13462
3291.46784713364	13417
3293.42072922088	13537
3295.37309664173	13511
3297.32494962163	13567
3299.27628838575	13411
3301.227113159	13579
3303.17742416601	13711
3305.12722163114	13776
3307.07650577848	13727
3309.02527683185	13823
3310.9735350148	13848
3312.9212805506	13829
3314.86851366225	13893
3316.81523457249	13835
3318.76144350377	13997
3320.70714067825	13899
3322.65232631783	13913
3324.59700064415	13959
3326.54116387854	13825
3328.48481624207	13913
3330.42795795551	13923
3332.37058923938	13894
3334.31271031389	13916
3336.25432139898	13886
3338.19542271432	13996
3340.13601447927	13984
3342.07609691292	13946
3344.01567023407	14022
3345.95473466124	14037
3347.89329041266	14073
3349.83133770627	14122
3351.76887675973	14164
3353.70590779039	14162
3355.64243101534	14233
3357.57844665135	14065
3359.51395491492	14361
3361.44895602224	14182
3363.38345018922	14357
3365.31743763148	14110
3367.25091856432	14317
3369.18389320278	14333
3371.11636176156	14297
3373.0483244551	14391
3374.97978149754	14339
3376.91073310269	14363
3378.84117948409	14396
3380.77112085498	14492
3382.70055742826	14361
3384.62948941659	14407
3386.55791703227	14487
3388.48584048733	14605
3390.41325999348	14587
3392.34017576214	14699
3394.2665880044	14665
3396.19249693107	14759
3398.11790275263	14764
3400.04280567926	14695
3401.96720592084	14886
3403.89110368692	14691
3405.81449918675	14864
3407.73739262928	14928
3409.65978422311	14968
3411.58167417658	14885
3413.50306269768	15011
3415.42394999408	14984
3417.34433627316	14913
3419.26422174195	14890
3421.18360660721	15026
3423.10249107532	14911
3425.02087535239	15026
3426.93875964421	15127
3428.8561441562	15035
3430.77302909353	15114
3432.68941466097	15064
3434.60530106301	15117
3436.52068850383	15125
3438.43557718726	15179
3440.34996731681	14994
3442.26385909565	15017
3444.17725272664	14923
3446.09014841231	15001
3448.00254635486	15104
3449.91444675614	15141
3451.82584981771	15208
3453.73675574076	15075
3455.64716472616	15041
3457.55707697445	14999
3459.46649268584	15082
3461.37541206018	15022
3463.28383529703	15286
3465.19176259555	15087
3467.09919415464	15277
3469.00613017278	15152
3470.91257084817	15109
3472.81851637863	14992
3474.72396696168	15236
3476.62892279446	15164
3478.53338407379	15200
3480.43735099614	14974
3482.34082375764	14913
3484.24380255404	15182
3486.1462875808	15233
3488.048279033	15149
3489.94977710537	15275
3491.85078199231	15253
3493.75129388783	15398
3495.65131298566	15101
3497.5508394791	15318
3499.44987356115	15240
