
200.090469251518	880
202.974751419362	883
205.858021632263	867
208.740280737522	894
211.621529580443	883
214.501769004371	874
217.380999850626	877
220.25922295859	855
223.136439165646	871
226.012649307235	843
228.88785421682	835
231.762054725918	862
234.635251664113	838
237.507445859021	844
240.378638136346	852
243.248829319855	848
246.11802023137	865
248.986211690826	869
251.853404516227	850
254.719599523654	866
257.584797527335	852
260.44899933954	848
263.312205770682	880
266.174417629303	876
269.035635722015	851
271.895860853609	845
274.755093826978	874
277.613335443144	844
280.470586501309	868
283.326847798766	888
286.182120131019	877
289.036404291684	875
291.889701072574	890
294.742011263643	896
297.593335653048	901
300.443675027094	921
303.293030170295	966
306.141401865367	956
308.988790893174	958
311.835198032837	979
314.680624061635	987
317.525069755113	988
320.36853588697	1004
323.211023229178	979
326.052532551923	997
328.893064623604	1012
331.732620210885	1022
334.57120007867	1018
337.408804990093	1032
340.245435706565	1046
343.081092987733	1079
345.915777591523	1089
348.749490274145	1140
351.582231790049	1122
354.414002891997	1186
357.244804331021	1234
360.074636856443	1217
362.903501215886	1173
365.731398155265	1189
368.558328418814	1147
371.384292749062	1123
374.209291886869	1050
377.033326571407	1009
379.85639754017	970
382.678505529009	963
385.499651272065	947
388.319835501872	926
391.139058949258	913
393.957322343453	880
396.774626412011	889
399.590971880847	843
402.406359474258	824
405.220789914893	865
408.034263923801	828
410.8467822204	821
413.658345522483	818
416.468954546242	823
419.278610006277	831
422.087312615557	804
424.895063085503	822
427.701862125901	807
430.507710444981	807
433.312608749366	816
436.116557744146	799
438.919558132791	803
441.721610617238	786
444.522715897856	771
447.322874673457	785
450.122087641299	764
452.920355497092	768
455.717678935009	758
458.514058647681	749
461.309495326219	775
464.103989660191	759
466.89754233765	753
469.690154045114	761
472.481825467625	756
475.272557288674	756
478.062350190281	767
480.851204852952	769
483.639121955683	761
486.426102176007	776
489.212146189955	780
491.997254672093	765
494.781428295471	753
497.564667731716	769
500.346973650958	765
503.128346721878	763
505.90878761169	771
508.688296986151	780
511.46687550957	802
514.244523844831	800
517.021242653354	810
519.797032595132	822
522.571894328732	818
525.345828511279	798
528.11883579849	828
530.890916844655	816
533.662072302668	843
536.432302823985	827
539.201609058684	808
541.96999165542	824
544.737451261473	841
547.503988522723	833
550.26960408366	849
553.034298587394	847
555.798072675669	847
558.560926988819	817
561.322862165849	831
564.083878844369	826
566.843977660654	843
569.603159249604	830
572.361424244769	844
575.118773278369	826
577.87520698124	837
580.630725982905	867
583.385330911566	872
586.139022394076	863
588.891801055954	901
591.643667521406	927
594.394622413318	935
597.144666353273	957
599.893799961512	1035
602.64202385701	1119
605.389338657413	1215
608.135744979089	1366
610.881243437092	1431
613.625834645191	1522
616.369519215881	1541
619.112297760374	1551
621.854170888604	1571
624.595139209225	1615
627.335203329614	1722
630.074363855914	1825
632.81262139299	1844
635.549976544436	1902
638.286429912612	1892
641.021982098635	1878
643.756633702364	1811
646.49038532241	1749
649.223237556176	1606
651.955190999808	1471
654.686246248224	1368
657.416403895135	1256
660.145664533011	1196
662.874028753133	1156
665.601497145537	1164
668.328070299071	1179
671.05374880138	1215
673.778533238885	1264
676.502424196839	1340
679.225422259297	1375
681.947528009099	1494
684.668742027927	1614
687.389064896281	1586
690.108497193465	1639
692.827039497621	1703
695.544692385724	1694
698.261456433585	1630
700.977332215847	1562
703.692320305981	1520
706.406421276337	1463
709.11963569808	1361
711.831964141256	1279
714.54340717474	1132
717.253965366304	1098
719.963639282552	1036
722.672429488961	991
725.380336549904	963
728.087361028596	937
730.793503487166	915
733.498764486594	882
736.203144586758	883
738.906644346447	859
741.60926432331	822
744.311005073912	820
747.011867153727	809
749.711851117121	813
752.410957517375	790
755.109186906677	789
757.806539836132	802
760.503016855779	794
763.198618514551	792
765.893345360346	807
768.587197939964	798
771.28017679914	798
773.972282482566	796
776.663515533859	776
779.353876495581	789
782.043365909241	789
784.731984315327	787
787.419732253235	795
790.106610261366	796
792.792618877058	781
795.477758636618	797
798.162030075313	793
800.845433727423	784
803.52797012615	776
806.209639803714	828
808.890443291304	808
811.570381119098	818
814.249453816265	815
816.927661910959	816
819.60500593036	813
822.281486400603	832
824.957103846864	809
827.631858793316	835
830.305751763135	863
832.978783278519	880
835.650953860677	864
838.322264029848	873
840.992714305292	873
843.662305205289	869
846.331037247157	871
848.998910947241	884
851.665926820933	883
854.332085382674	871
856.997387145915	876
859.661832623191	906
862.325422326066	893
864.988156765172	910
867.650036450181	904
870.311061889846	889
872.971233591961	865
875.630552063409	892
878.28901781013	862
880.946631337138	865
883.603393148533	878
886.259303747484	873
888.914363636246	870
891.568573316155	879
894.22193328767	882
896.874444050281	844
899.526106102625	865
902.176919942416	870
904.826886066483	879
907.476004970747	869
910.124277150255	859
912.77170309913	867
915.418283310642	890
918.064018277175	870
920.708908490222	867
923.352954440405	873
925.996156617486	901
928.638515510334	891
931.280031606966	894
933.920705394521	892
936.560537359303	887
939.199527986737	891
941.837677761392	877
944.474987167006	897
947.111456686438	926
949.747086801734	911
952.38187799407	921
955.015830743792	935
957.648945530418	978
960.281222832633	922
962.91266312826	947
965.543266894336	956
968.173034607058	945
970.801966741779	957
973.43006377307	949
976.057326174661	931
978.683754419471	944
981.309348979623	915
983.93411032642	922
986.558038930361	939
989.181135261144	928
991.803399787692	935
994.424832978086	996
997.045435299653	1043
999.665207218906	1048
1002.2841492016	1052
1004.90226171266	998
1007.51954521628	970
1010.13600017584	960
1012.75162705397	940
1015.3664263125	953
1017.9803984125	938
1020.5935438143	957
1023.20586297741	963
1025.81735636063	976
1028.42802442196	981
1031.03786761869	977
1033.64688640732	1019
1036.2550812436	968
1038.86245258255	978
1041.46900087844	943
1044.07472658479	1001
1046.67963015438	990
1049.28371203927	970
1051.88697269075	944
1054.48941255943	991
1057.09103209513	1002
1059.691831747	996
1062.29181196343	1029
1064.89097319211	1022
1067.48931587999	986
1070.08684047333	1016
1072.68354741766	1041
1075.27943715779	1057
1077.87451013787	1038
1080.46876680127	1030
1083.06220759071	1053
1085.65483294822	1054
1088.24664331509	1096
1090.83763913194	1086
1093.42782083869	1072
1096.01718887459	1108
1098.60574367818	1093
1101.19348568732	1093
1103.78041533919	1085
1106.3665330703	1100
1108.95183931646	1087
1111.53633451284	1090
1114.12001909391	1106
1116.70289349349	1108
1119.2849581447	1094
1121.86621348005	1085
1124.44665993134	1045
1127.02629792973	1042
1129.60512790574	1038
1132.18315028919	1034
1134.76036550929	991
1137.3367739946	999
1139.912376173	1004
1142.48717247176	1016
1145.06116331748	987
1147.63434913616	1026
1150.20673035312	1023
1152.77830739307	1048
1155.34908068007	1041
1157.91905063757	1047
1160.48821768838	1071
1163.05658225471	1105
1165.6241447581	1140
1168.19090561951	1165
1170.75686525927	1191
1173.32202409708	1219
1175.88638255206	1216
1178.44994104269	1233
1181.01269998684	1219
1183.57465980182	1223
1186.13582090427	1193
1188.69618371026	1196
1191.25574863529	1186
1193.8145160942	1164
1196.37248650129	1160
1198.92966027025	1173
1201.48603781416	1159
1204.04161954556	1167
1206.59640587635	1121
1209.15039721788	1115
1211.70359398092	1114
1214.25599657564	1093
1216.80760541166	1115
1219.35842089801	1091
1221.90844344314	1112
1224.45767345496	1111
1227.00611134077	1132
1229.55375750736	1157
1232.10061236092	1145
1234.64667630707	1162
1237.1919497509	1142
1239.73643309692	1134
1242.28012674912	1196
1244.82303111089	1196
1247.36514658511	1213
1249.9064735741	1206
1252.44701247964	1232
1254.98676370294	1258
1257.52572764469	1251
1260.06390470506	1260
1262.60129528365	1281
1265.13789977954	1297
1267.67371859128	1238
1270.20875211688	1288
1272.74300075384	1269
1275.2764648991	1322
1277.80914494911	1319
1280.34104129978	1324
1282.87215434652	1309
1285.40248448419	1308
1287.93203210715	1330
1290.46079760927	1328
1292.98878138385	1362
1295.51598382375	1366
1298.04240532127	1392
1300.56804626822	1407
1303.09290705593	1475
1305.6169880752	1449
1308.14028971632	1501
1310.66281236913	1453
1313.18455642292	1488
1315.70552226653	1467
1318.22571028829	1521
1320.74512087603	1516
1323.26375441711	1517
1325.7816112984	1532
1328.29869190629	1555
1330.81499662666	1561
1333.33052584497	1535
1335.84527994613	1612
1338.35925931464	1516
1340.87246433446	1490
1343.38489538916	1475
1345.89655286177	1459
1348.40743713487	1471
1350.91754859059	1446
1353.42688761059	1487
1355.93545457606	1455
1358.44324986772	1458
1360.95027386588	1462
1363.45652695032	1481
1365.96200950042	1441
1368.4667218951	1422
1370.97066451281	1462
1373.47383773156	1461
1375.97624192891	1428
1378.47787748199	1447
1380.97874476746	1495
1383.47884416157	1441
1385.97817604009	1458
1388.4767407784	1444
1390.9745387514	1433
1393.47157033358	1426
1395.96783589898	1475
1398.46333582124	1446
1400.95807047354	1475
1403.45204022864	1441
1405.94524545889	1489
1408.4376865362	1513
1410.92936383205	1546
1413.42027771752	1613
1415.91042856328	1615
1418.39981673955	1651
1420.88844261615	1747
1423.37630656249	1834
1425.86340894757	1932
1428.34975013999	1926
1430.83533050792	1987
1433.32015041912	1966
1435.80421024098	1964
1438.28751034045	1984
1440.77005108411	1836
1443.25183283812	1793
1445.73285596824	1788
1448.21312083984	1654
1450.69262781791	1691
1453.17137726702	1697
1455.64936955137	1730
1458.12660503477	1694
1460.60308408063	1672
1463.07880705197	1735
1465.55377431145	1686
1468.02798622133	1703
1470.50144314348	1700
1472.97414543941	1683
1475.44609347024	1666
1477.91728759673	1708
1480.38772817924	1727
1482.85741557777	1712
1485.32635015194	1717
1487.79453226103	1764
1490.26196226391	1741
1492.72864051911	1734
1495.1945673848	1771
1497.65974321874	1733
1500.1241683784	1712
1502.58784322083	1742
1505.05076810274	1754
1507.51294338049	1784
1509.97436941009	1787
1512.43504654717	1785
1514.89497514704	1783
1517.35415556462	1853
1519.81258815451	1816
1522.27027327095	1825
1524.72721126784	1858
1527.18340249874	1827
1529.63884731684	1871
1532.09354607502	1867
1534.5474991258	1883
1537.00070682136	1897
1539.45316951355	1903
1541.90488755388	1902
1544.35586129353	1912
1546.80609108336	1935
1549.25557727385	1966
1551.70432021519	1960
1554.15232025725	2000
1556.59957774953	1997
1559.04609304125	2015
1561.49186648127	1977
1563.93689841815	2029
1566.38118920011	2044
1568.82473917506	2050
1571.2675486906	2079
1573.70961809399	2148
1576.15094773219	2089
1578.59153795184	2093
1581.03138909928	2181
1583.47050152051	2186
1585.90887556123	2150
1588.34651156686	2187
1590.78340988246	2152
1593.21957085283	2181
1595.65499482245	2231
1598.08968213547	2270
1600.52363313578	2238
1602.95684816694	2294
1605.38932757224	2327
1607.82107169462	2353
1610.25208087677	2396
1612.68235546107	2409
1615.1118957896	2423
1617.54070220415	2385
1619.96877504621	2335
1622.39611465701	2344
1624.82272137746	2265
1627.24859554818	2275
1629.67373750953	2356
1632.09814760155	2341
1634.52182616404	2277
1636.94477353647	2341
1639.36699005806	2322
1641.78847606776	2433
1644.20923190418	2363
1646.62925790573	2346
1649.04855441048	2402
1651.46712175628	2423
1653.88496028066	2509
1656.3020703209	2448
1658.71845221401	2493
1661.13410629671	2543
1663.54903290547	2560
1665.96323237649	2604
1668.37670504571	2619
1670.78945124877	2621
1673.20147132109	2653
1675.61276559779	2611
1678.02333441377	2640
1680.43317810362	2625
1682.84229700171	2688
1685.25069144213	2623
1687.65836175872	2696
1690.06530828507	2698
1692.47153135451	2820
1694.87703130009	2692
1697.28180845467	2707
1699.6858631508	2762
1702.08919572081	2783
1704.49180649676	2866
1706.89369581049	2865
1709.29486399355	2911
1711.69531137731	2926
1714.09503829282	2951
1716.49404507095	2941
1718.89233204229	2953
1721.28989953721	3045
1723.68674788581	3001
1726.08287741798	2943
1728.47828846338	2970
1730.87298135139	2970
1733.26695641119	3002
1735.66021397173	2989
1738.05275436169	2962
1740.44457790954	3010
1742.83568494354	3020
1745.22607579168	3004
1747.61575078175	3013
1750.00471024128	3010
1752.39295449761	3086
1754.78048387783	3086
1757.16729870881	3081
1759.5533993172	3121
1761.93878602942	3131
1764.32345917168	3091
1766.70741906995	3129
1769.09066604999	3118
1771.47320043735	3199
1773.85502255735	3265
1776.2361327351	3235
1778.61653129548	3247
1780.99621856318	3189
1783.37519486264	3289
1785.75346051813	3290
1788.13101585368	3284
1790.5078611931	3404
1792.88399686002	3363
1795.25942317785	3353
1797.63414046977	3391
1800.00814905878	3421
1802.38144926766	3428
1804.75404141898	3480
1807.12592583514	3468
1809.49710283829	3503
1811.86757275039	3519
1814.23733589322	3546
1816.60639258834	3529
1818.97474315712	3467
1821.34238792073	3537
1823.70932720012	3507
1826.07556131608	3653
1828.44109058918	3571
1830.8059153398	3585
1833.17003588812	3547
1835.53345255413	3624
1837.89616565765	3674
1840.25817551827	3678
1842.61948245541	3755
1844.9800867883	3666
1847.33998883598	3692
1849.69918891729	3674
1852.05768735091	3697
1854.4154844553	3752
1856.77258054875	3780
1859.12897594938	3797
1861.4846709751	3836
1863.83966594366	3854
1866.19396117261	3809
1868.54755697932	3884
1870.90045368099	3873
1873.25265159463	3886
1875.60415103708	3923
1877.95495232501	3930
1880.30505577486	3975
1882.65446170299	4065
1885.00317042548	4018
1887.35118225832	3980
1889.69849751726	4111
1892.04511651792	4075
1894.39103957574	4072
1896.73626700596	4135
1899.08079912368	4181
1901.42463624384	4221
1903.76777868116	4224
1906.11022675025	4237
1908.4519807655	4244
1910.79304104117	4257
1913.13340789134	4351
1915.47308162992	4210
1917.81206257067	4381
1920.15035102718	4328
1922.48794731286	4340
1924.82485174096	4352
1927.16106462461	4438
1929.49658627672	4484
1931.83141701008	4505
1934.1655571373	4569
1936.49900697085	4448
1938.83176682301	4523
1941.16383700594	4570
1943.49521783161	4576
1945.82590961186	4530
1948.15591265835	4505
1950.48522728262	4553
1952.81385379602	4542
1955.14179250976	4582
1957.46904373489	4662
1959.79560778233	4660
1962.12148496284	4592
1964.44667558701	4629
1966.77117996529	4672
1969.09499840799	4699
1971.41813122527	4701
1973.74057872714	4757
1976.06234122345	4815
1978.38341902391	4724
1980.7038124381	4880
1983.02352177543	4873
1985.34254734518	4833
1987.66088945649	4895
1989.97854841833	4914
1992.29552453956	4889
1994.61181812887	4915
1996.92742949483	4946
1999.24235894586	5039
2001.55660679023	5006
2003.87017333608	5148
2006.18305889143	5084
2008.49526376413	5136
2010.80678826189	5079
2013.1176326923	5277
2015.42779736282	5182
2017.73728258075	5234
2020.04608865326	5205
2022.3542158874	5311
2024.66166459008	5441
2026.96843506807	5347
2029.274527628	5306
2031.57994257637	5461
2033.88468021957	5349
2036.18874086383	5456
2038.49212481526	5492
2040.79483237983	5511
2043.0968638634	5596
2045.39821957169	5588
2047.69889981028	5598
2049.99890488462	5655
2052.29823510006	5685
2054.59689076181	5550
2056.89487217492	5564
2059.19217964437	5644
2061.48881347497	5773
2063.7847739714	5755
2066.08006143826	5676
2068.37467618	5778
2070.66861850093	5791
2072.96188870527	5764
2075.25448709707	5838
2077.54641398031	5784
2079.83766965881	5851
2082.12825443629	5796
2084.41816861634	5855
2086.70741250242	5853
2088.99598639789	5900
2091.28389060597	5896
2093.57112542978	5890
2095.85769117232	5867
2098.14358813644	6068
2100.42881662491	5901
2102.71337694037	6106
2104.99726938532	5951
2107.28049426219	5970
2109.56305187325	6059
2111.84494252069	6120
2114.12616650655	6134
2116.40672413278	6180
2118.68661570121	6243
2120.96584151355	6349
2123.24440187138	6195
2125.52229707622	6267
2127.79952742943	6308
2130.07609323227	6404
2132.35199478588	6460
2134.62723239132	6472
2136.90180634949	6552
2139.17571696123	6518
2141.44896452723	6543
2143.72154934809	6538
2145.99347172429	6541
2148.26473195623	6711
2150.53533034415	6719
2152.80526718821	6725
2155.07454278848	6708
2157.3431574449	6814
2159.61111145728	6874
2161.87840512538	6693
2164.1450387488	6903
2166.41101262707	6817
2168.67632705959	7009
2170.94098234567	6897
2173.20497878451	6952
2175.46831667519	7028
2177.73099631672	7034
2179.99301800797	7106
2182.25438204772	7025
2184.51508873466	7118
2186.77513836735	7133
2189.03453124427	7158
2191.29326766378	7168
2193.55134792416	7219
2195.80877232355	7193
2198.06554116004	7252
2200.32165473157	7326
2202.577113336	7220
2204.83191727111	7224
2207.08606683453	7412
2209.33956232384	7384
2211.59240403648	7472
2213.84459226982	7359
2216.09612732112	7480
2218.34700948753	7497
2220.59723906612	7522
2222.84681635385	7524
2225.09574164758	7528
2227.34401524408	7617
2229.59163744002	7523
2231.83860853197	7593
2234.08492881639	7704
2236.33059858968	7711
2238.5756181481	7773
2240.81998778784	7794
2243.06370780499	7822
2245.30677849555	7725
2247.54920015539	7887
2249.79097308033	7816
2252.03209756607	7823
2254.27257390822	7930
2256.51240240228	7897
2258.75158334369	7943
2260.99011702777	7957
2263.22800374976	7989
2265.46524380477	8019
2267.70183748786	8069
2269.93778509399	8192
2272.17308691801	8096
2274.40774325467	8158
2276.64175439866	8123
2278.87512064454	8222
2281.10784228682	8249
2283.33991961987	8329
2285.571352938	8190
2287.80214253541	8292
2290.03228870623	8426
2292.26179174449	8410
2294.4906519441	8486
2296.71886959892	8384
2298.9464450027	8505
2301.1733784491	8481
2303.39967023169	8408
2305.62532064395	8476
2307.85032997926	8744
2310.07469853093	8608
2312.29842659216	8569
2314.52151445608	8549
2316.7439624157	8642
2318.96577076397	8733
2321.18693979374	8796
2323.40746979777	8767
2325.62736106873	8716
2327.8466138992	8801
2330.06522858166	8748
2332.28320540853	8822
2334.50054467212	8857
2336.71724666465	8816
2338.93331167827	8862
2341.14874000501	9037
2343.36353193685	8866
2345.57768776564	8871
2347.79120778319	9062
2350.00409228117	9150
2352.21634155121	9091
2354.42795588482	9056
2356.63893557342	9094
2358.84928090838	9034
2361.05899218094	9070
2363.26806968228	9171
2365.47651370347	9314
2367.68432453552	9263
2369.89150246933	9188
2372.09804779571	9176
2374.30396080541	9238
2376.50924178907	9270
2378.71389103725	9247
2380.91790884042	9414
2383.12129548897	9249
2385.3240512732	9231
2387.52617648332	9342
2389.72767140946	9347
2391.92853634165	9289
2394.12877156985	9268
2396.32837738392	9513
2398.52735407365	9514
2400.72570192873	9483
2402.92342123875	9439
2405.12051229325	9473
2407.31697538167	9475
2409.51281079333	9507
2411.70801881751	9516
2413.90259974339	9505
2416.09655386004	9534
2418.28988145648	9408
2420.48258282162	9665
2422.6746582443	9644
2424.86610801325	9706
2427.05693241713	9660
2429.24713174452	9531
2431.43670628389	9753
2433.62565632365	9655
2435.81398215212	9666
2438.00168405752	9632
2440.18876232799	9788
2442.37521725158	9810
2444.56104911628	9835
2446.74625820994	9706
2448.93084482038	9698
2451.1148092353	9928
2453.29815174233	9890
2455.480872629	9810
2457.66297218275	9901
2459.84445069097	9731
2462.02530844092	9890
2464.2055457198	9781
2466.38516281471	9869
2468.56416001267	9885
2470.74253760061	9764
2472.92029586537	9928
2475.09743509372	9859
2477.27395557232	9833
2479.44985758777	9996
2481.62514142655	10174
2483.79980737508	10027
2485.97385571969	9808
2488.14728674661	9914
2490.32010074198	9950
2492.49229799188	10158
2494.66387878228	9975
2496.83484339905	10086
2499.00519212802	10117
2501.17492525488	10090
2503.34404306528	10145
2505.51254584473	10103
2507.6804338787	10202
2509.84770745254	10232
2512.01436685153	10162
2514.18041236085	10321
2516.34584426561	10260
2518.51066285081	10350
2520.67486840138	10328
2522.83846120214	10352
2525.00144153784	10338
2527.16380969314	10335
2529.32556595261	10365
2531.48671060072	10604
2533.64724392186	10497
2535.80716620033	10627
2537.96647772034	10445
2540.12517876602	10636
2542.2832696214	10536
2544.44075057041	10480
2546.59762189691	10342
2548.75388388466	10465
2550.90953681735	10661
2553.06458097853	10632
2555.21901665172	10577
2557.37284412031	10581
2559.5260636676	10561
2561.67867557684	10599
2563.83068013113	10570
2565.98207761351	10637
2568.13286830695	10581
2570.28305249429	10547
2572.43263045829	10608
2574.58160248163	10485
2576.72996884689	10613
2578.87772983655	10391
2581.02488573303	10598
2583.1714368186	10526
2585.31738337549	10567
2587.46272568582	10603
2589.60746403161	10627
2591.75159869479	10559
2593.89512995722	10582
2596.03805810061	10744
2598.18038340665	10799
2600.32210615686	10565
2602.46322663274	10714
2604.60374511563	10670
2606.74366188683	10596
2608.88297722751	10788
2611.02169141875	10732
2613.15980474156	10779
2615.29731747681	10703
2617.43422990532	10711
2619.57054230779	10842
2621.70625496483	10847
2623.84136815694	10803
2625.97588216456	10747
2628.10979726799	10803
2630.24311374746	10796
2632.3758318831	10818
2634.50795195493	10879
2636.6394742429	10876
2638.77039902682	10931
2640.90072658645	10974
2643.0304572014	10911
2645.15959115123	11059
2647.28812871538	11011
2649.41607017319	10908
2651.5434158039	11063
2653.67016588665	10946
2655.79632070049	10871
2657.92188052436	11035
2660.04684563711	11070
2662.17121631749	11041
2664.29499284413	11247
2666.41817549558	10974
2668.54076455027	11065
2670.66276028656	11045
2672.78416298267	11088
2674.90497291675	11030
2677.02519036682	10977
2679.14481561082	11048
2681.26384892658	11203
2683.38229059182	10953
2685.50014088417	10913
2687.61740008114	11114
2689.73406846017	11079
2691.85014629854	11252
2693.96563387347	11245
2696.08053146206	11137
2698.1948393413	10967
2700.3085577881	11062
2702.42168707924	11232
2704.53422749139	11204
2706.64617930112	11108
2708.75754278492	11126
2710.86831821913	11266
2712.97850588002	11219
2715.08810604372	11253
2717.19711898628	11253
2719.30554498363	11242
2721.41338431158	11218
2723.52063724586	11193
2725.62730406206	11425
2727.73338503569	11330
2729.83888044213	11227
2731.94379055664	11297
2734.04811565441	11418
2736.15185601048	11382
2738.25501189979	11404
2740.35758359718	11326
2742.45957137738	11283
2744.56097551499	11372
2746.6617962845	11375
2748.7620339603	11536
2750.86168881666	11410
2752.96076112774	11351
2755.05925116758	11383
2757.15715921012	11544
2759.25448552917	11316
2761.35123039843	11269
2763.44739409148	11397
2765.5429768818	11295
2767.63797904275	11383
2769.73240084756	11381
2771.82624256934	11256
2773.91950448113	11324
2776.01218685579	11300
2778.10428996609	11330
2780.19581408469	11368
2782.28675948414	11376
2784.37712643683	11419
2786.46691521507	11184
2788.55612609104	11345
2790.64475933678	11497
2792.73281522425	11244
2794.82029402525	11377
2796.90719601149	11281
2798.99352145453	11334
2801.07927062583	11392
2803.16444379672	11164
2805.24904123841	11410
2807.33306322197	11362
2809.41651001838	11491
2811.49938189847	11453
2813.58167913296	11501
2815.66340199243	11570
2817.74455074734	11513
2819.82512566805	11571
2821.90512702475	11395
2823.98455508754	11523
2826.06341012637	11542
2828.14169241109	11482
2830.2194022114	11652
2832.29653979686	11491
2834.37310543694	11616
2836.44909940096	11741
2838.5245219581	11799
2840.59937337744	11835
2842.67365392791	12097
2844.74736387829	11865
2846.82050349727	11936
2848.8930730534	11981
2850.96507281506	12142
2853.03650305056	12210
2855.10736402802	12039
2857.17765601545	11980
2859.24737928074	12063
2861.31653409164	12096
2863.38512071574	12113
2865.45313942054	12064
2867.52059047335	12162
2869.58747414139	12214
2871.65379069173	11994
2873.7195403913	12066
2875.78472350688	11985
2877.84934030515	12076
2879.91339105262	12267
2881.97687601567	12057
2884.03979546053	12010
2886.10214965332	12360
2888.16393886	12442
2890.22516334639	12386
2892.28582337816	12531
2894.34591922087	12896
2896.40545113992	13081
2898.46441940054	13762
2900.52282426787	14166
2902.58066600687	14829
2904.63794488237	15645
2906.69466115906	15925
2908.75081510147	16723
2910.806406974	16920
2912.8614370409	17088
2914.91590556626	17216
2916.96981281404	16813
2919.02315904807	16356
2921.07594453199	15787
2923.12816952932	15612
2925.17983430343	15463
2927.23093911753	15283
2929.28148423469	15077
2931.33146991782	15025
2933.3808964297	14898
2935.42976403294	14920
2937.47807299	14857
2939.5258235632	14656
2941.57301601469	14406
2943.61965060648	14526
2945.66572760042	14203
2947.71124725823	14087
2949.75620984143	13813
2951.80061561143	13701
2953.84446482945	13417
2955.88775775656	13371
2957.9304946537	13311
2959.97267578162	13002
2962.01430140095	13103
2964.05537177211	13105
2966.09588715541	13129
2968.13584781097	13205
2970.17525399875	13484
2972.21410597859	13103
2974.25240401011	13089
2976.29014835283	13012
2978.32733926604	12915
2980.36397700892	12737
2982.40006184049	12629
2984.43559401955	12472
2986.4705738048	12307
2988.50500145473	12180
2990.53887722771	12095
2992.57220138189	11993
2994.6049741753	11886
2996.63719586576	12010
2998.66886671097	11819
3000.69998696843	11974
3002.73055689549	11866
3004.7605767493	12023
3006.79004678688	11736
3008.81896726505	11832
3010.84733844048	11768
3012.87516056966	11783
3014.9024339089	11870
3016.92915871433	11865
3018.95533524196	11972
3020.98096374756	11889
3023.00604448675	11915
3025.030577715	11840
3027.05456368757	11828
3029.07800265956	11899
3031.10089488589	11875
3033.12324062131	11937
3035.14504012038	11998
3037.16629363749	11889
3039.18700142685	11944
3041.20716374249	11772
3043.22678083826	11788
3045.24585296782	11882
3047.26438038468	11895
3049.28236334212	11989
3051.29980209329	12124
3053.31669689111	11917
3055.33304798835	11821
3057.34885563757	12017
3059.36412009117	11862
3061.37884160134	11822
3063.39302042011	11907
3065.40665679931	11857
3067.41975099058	11990
3069.43230324538	11914
3071.44431381495	11782
3073.45578295041	11764
3075.46671090261	11822
3077.47709792227	11716
3079.48694425989	11695
3081.49625016578	11733
3083.50501589008	11649
3085.5132416827	11755
3087.5209277934	11699
3089.52807447169	11669
3091.53468196695	11631
3093.54075052832	11449
3095.54628040476	11584
3097.55127184503	11541
3099.55572509769	11412
3101.55964041111	11407
3103.56301803346	11491
3105.5658582127	11597
3107.56816119661	11689
3109.56992723275	11416
3111.57115656849	11598
3113.571849451	11467
3115.57200612724	11473
3117.57162684397	11607
3119.57071184775	11650
3121.56926138493	11540
3123.56727570166	11528
3125.56475504389	11557
3127.56169965735	11445
3129.55810978757	11645
3131.55398567987	11542
3133.54932757937	11590
3135.54413573099	11553
3137.53841037939	11669
3139.53215176909	11751
3141.52536014435	11731
3143.51803574924	11736
3145.51017882762	11642
3147.50178962311	11807
3149.49286837916	11750
3151.48341533897	11664
3153.47343074553	11705
3155.46291484164	11734
3157.45186786985	11723
3159.44029007252	11631
3161.42818169179	11771
3163.41554296955	11740
3165.40237414753	11639
3167.38867546718	11639
3169.37444716975	11681
3171.35968949631	11531
3173.34440268764	11548
3175.32858698436	11714
3177.31224262682	11577
3179.29536985517	11711
3181.27796890934	11562
3183.26004002902	11559
3185.24158345368	11733
3187.22259942256	11558
3189.2030881747	11516
3191.18304994886	11681
3193.16248498363	11650
3195.14139351733	11742
3197.11977578807	11563
3199.09763203371	11547
3201.07496249191	11640
3203.05176740007	11761
3205.02804699537	11581
3207.00380151475	11713
3208.97903119493	11510
3210.95373627238	11776
3212.92791698335	11759
3214.90157356383	11492
3216.8747062496	11798
3218.84731527619	11629
3220.81940087889	11861
3222.79096329275	11912
3224.76200275259	11700
3226.73251949298	11829
3228.70251374825	11849
3230.67198575251	11689
3232.64093573959	11763
3234.6093639431	11907
3236.57727059641	11811
3238.54465593261	11892
3240.51152018461	11887
3242.47786358502	11853
3244.44368636621	11870
3246.40898876031	11679
3248.37377099923	11871
3250.33803331458	11920
3252.30177593775	11825
3254.26499909987	11975
3256.22770303184	11922
3258.18988796427	12117
3260.15155412755	11823
3262.1127017518	11824
3264.0733310669	11859
3266.03344230246	11865
3267.99303568784	11756
3269.95211145215	11850
3271.91066982422	11901
3273.86871103267	11860
3275.82623530581	11851
3277.7832428717	11794
3279.73973395818	11845
3281.69570879278	11888
3283.6511676028	11935
3285.60611061527	11853
3287.56053805694	11807
3289.51445015432	11877
3291.46784713364	11766
3293.42072922088	11882
3295.37309664173	11952
3297.32494962163	11862
3299.27628838575	11675
3301.227113159	11844
3303.17742416601	11942
3305.12722163114	11855
3307.07650577848	11664
3309.02527683185	11953
3310.9735350148	11990
3312.9212805506	11786
3314.86851366225	11971
3316.81523457249	11771
3318.76144350377	11941
3320.70714067825	11954
3322.65232631783	11713
3324.59700064415	11729
3326.54116387854	11877
3328.48481624207	11718
3330.42795795551	11725
3332.37058923938	11626
3334.31271031389	11804
3336.25432139898	11586
3338.19542271432	11698
3340.13601447927	11726
3342.07609691292	11752
3344.01567023407	11603
3345.95473466124	11626
3347.89329041266	11758
3349.83133770627	11683
3351.76887675973	11570
3353.70590779039	11593
3355.64243101534	11705
3357.57844665135	11541
3359.51395491492	11674
3361.44895602224	11693
3363.38345018922	11641
3365.31743763148	11734
3367.25091856432	11665
3369.18389320278	11660
3371.11636176156	11674
3373.0483244551	11785
3374.97978149754	11764
3376.91073310269	11653
3378.84117948409	11779
3380.77112085498	11598
3382.70055742826	11675
3384.62948941659	11732
3386.55791703227	11665
3388.48584048733	11607
3390.41325999348	11827
3392.34017576214	11772
3394.2665880044	11833
3396.19249693107	11723
3398.11790275263	11796
3400.04280567926	11885
3401.96720592084	11902
3403.89110368692	11833
3405.81449918675	11850
3407.73739262928	11839
3409.65978422311	11797
3411.58167417658	11740
3413.50306269768	11909
3415.42394999408	11826
3417.34433627316	11900
3419.26422174195	11752
3421.18360660721	11911
3423.10249107532	11615
3425.02087535239	11802
3426.93875964421	11930
3428.8561441562	11973
3430.77302909353	11790
3432.68941466097	11723
3434.60530106301	11695
3436.52068850383	11690
3438.43557718726	11803
3440.34996731681	11569
3442.26385909565	11649
3444.17725272664	11514
3446.09014841231	11623
3448.00254635486	11565
3449.91444675614	11693
3451.82584981771	11711
3453.73675574076	11609
3455.64716472616	11559
3457.55707697445	11464
3459.46649268584	11607
3461.37541206018	11575
3463.28383529703	11730
3465.19176259555	11560
3467.09919415464	11543
3469.00613017278	11427
3470.91257084817	11524
3472.81851637863	11595
3474.72396696168	11448
3476.62892279446	11491
3478.53338407379	11488
3480.43735099614	11522
3482.34082375764	11518
3484.24380255404	11482
3486.1462875808	11557
3488.048279033	11431
3489.94977710537	11388
3491.85078199231	11476
3493.75129388783	11542
3495.65131298566	11548
3497.5508394791	11469
3499.44987356115	11434

