
200.090469251518	803
202.974751419362	806
205.858021632263	836
208.740280737522	812
211.621529580443	804
214.501769004371	816
217.380999850626	815
220.25922295859	796
223.136439165646	802
226.012649307235	833
228.88785421682	827
231.762054725918	826
234.635251664113	824
237.507445859021	822
240.378638136346	837
243.248829319855	840
246.11802023137	817
248.986211690826	836
251.853404516227	836
254.719599523654	828
257.584797527335	836
260.44899933954	839
263.312205770682	815
266.174417629303	822
269.035635722015	838
271.895860853609	801
274.755093826978	827
277.613335443144	822
280.470586501309	807
283.326847798766	794
286.182120131019	809
289.036404291684	799
291.889701072574	805
294.742011263643	798
297.593335653048	796
300.443675027094	821
303.293030170295	822
306.141401865367	810
308.988790893174	824
311.835198032837	827
314.680624061635	815
317.525069755113	806
320.36853588697	823
323.211023229178	829
326.052532551923	814
328.893064623604	822
331.732620210885	802
334.57120007867	822
337.408804990093	820
340.245435706565	809
343.081092987733	804
345.915777591523	805
348.749490274145	814
351.582231790049	801
354.414002891997	799
357.244804331021	798
360.074636856443	808
362.903501215886	789
365.731398155265	825
368.558328418814	814
371.384292749062	820
374.209291886869	812
377.033326571407	822
379.85639754017	821
382.678505529009	815
385.499651272065	831
388.319835501872	846
391.139058949258	885
393.957322343453	927
396.774626412011	966
399.590971880847	966
402.406359474258	921
405.220789914893	884
408.034263923801	853
410.8467822204	856
413.658345522483	827
416.468954546242	828
419.278610006277	819
422.087312615557	825
424.895063085503	828
427.701862125901	849
430.507710444981	838
433.312608749366	849
436.116557744146	843
438.919558132791	849
441.721610617238	835
444.522715897856	853
447.322874673457	881
450.122087641299	886
452.920355497092	879
455.717678935009	883
458.514058647681	879
461.309495326219	866
464.103989660191	856
466.89754233765	837
469.690154045114	822
472.481825467625	823
475.272557288674	823
478.062350190281	802
480.851204852952	807
483.639121955683	830
486.426102176007	821
489.212146189955	807
491.997254672093	801
494.781428295471	810
497.564667731716	818
500.346973650958	791
503.128346721878	797
505.90878761169	808
508.688296986151	816
511.46687550957	827
514.244523844831	851
517.021242653354	840
519.797032595132	841
522.571894328732	827
525.345828511279	855
528.11883579849	861
530.890916844655	812
533.662072302668	842
536.432302823985	831
539.201609058684	831
541.96999165542	814
544.737451261473	809
547.503988522723	829
550.26960408366	809
553.034298587394	814
555.798072675669	796
558.560926988819	797
561.322862165849	811
564.083878844369	820
566.843977660654	813
569.603159249604	803
572.361424244769	812
575.118773278369	827
577.87520698124	821
580.630725982905	803
583.385330911566	806
586.139022394076	835
588.891801055954	823
591.643667521406	816
594.394622413318	846
597.144666353273	828
599.893799961512	836
602.64202385701	828
605.389338657413	825
608.135744979089	825
610.881243437092	823
613.625834645191	842
616.369519215881	832
619.112297760374	830
621.854170888604	818
624.595139209225	824
627.335203329614	820
630.074363855914	797
632.81262139299	823
635.549976544436	827
638.286429912612	814
641.021982098635	796
643.756633702364	803
646.49038532241	809
649.223237556176	797
651.955190999808	806
654.686246248224	812
657.416403895135	824
660.145664533011	804
662.874028753133	798
665.601497145537	804
668.328070299071	824
671.05374880138	802
673.778533238885	815
676.502424196839	797
679.225422259297	831
681.947528009099	809
684.668742027927	800
687.389064896281	812
690.108497193465	821
692.827039497621	793
695.544692385724	800
698.261456433585	828
700.977332215847	795
703.692320305981	813
706.406421276337	822
709.11963569808	817
711.831964141256	822
714.54340717474	824
717.253965366304	838
719.963639282552	815
722.672429488961	800
725.380336549904	791
728.087361028596	805
730.793503487166	807
733.498764486594	806
736.203144586758	839
738.906644346447	811
741.60926432331	830
744.311005073912	819
747.011867153727	848
749.711851117121	819
752.410957517375	818
755.109186906677	846
757.806539836132	833
760.503016855779	845
763.198618514551	820
765.893345360346	831
768.587197939964	817
771.28017679914	820
773.972282482566	825
776.663515533859	827
779.353876495581	830
782.043365909241	828
784.731984315327	854
787.419732253235	830
790.106610261366	830
792.792618877058	839
795.477758636618	890
798.162030075313	874
800.845433727423	917
803.52797012615	1005
806.209639803714	1084
808.890443291304	1077
811.570381119098	1043
814.249453816265	961
816.927661910959	927
819.60500593036	874
822.281486400603	874
824.957103846864	873
827.631858793316	896
830.305751763135	900
832.978783278519	915
835.650953860677	993
838.322264029848	1031
840.992714305292	1020
843.662305205289	1016
846.331037247157	921
848.998910947241	890
851.665926820933	876
854.332085382674	868
856.997387145915	870
859.661832623191	878
862.325422326066	872
864.988156765172	828
867.650036450181	846
870.311061889846	855
872.971233591961	841
875.630552063409	847
878.28901781013	832
880.946631337138	846
883.603393148533	857
886.259303747484	854
888.914363636246	847
891.568573316155	844
894.22193328767	858
896.874444050281	871
899.526106102625	863
902.176919942416	860
904.826886066483	840
907.476004970747	859
910.124277150255	854
912.77170309913	860
915.418283310642	857
918.064018277175	873
920.708908490222	851
923.352954440405	844
925.996156617486	850
928.638515510334	865
931.280031606966	862
933.920705394521	891
936.560537359303	884
939.199527986737	895
941.837677761392	910
944.474987167006	878
947.111456686438	885
949.747086801734	871
952.38187799407	855
955.015830743792	859
957.648945530418	861
960.281222832633	875
962.91266312826	898
965.543266894336	909
968.173034607058	939
970.801966741779	973
973.43006377307	985
976.057326174661	945
978.683754419471	892
981.309348979623	878
983.93411032642	867
986.558038930361	877
989.181135261144	886
991.803399787692	909
994.424832978086	918
997.045435299653	906
999.665207218906	908
1002.2841492016	906
1004.90226171266	890
1007.51954521628	887
1010.13600017584	876
1012.75162705397	854
1015.3664263125	877
1017.9803984125	877
1020.5935438143	899
1023.20586297741	875
1025.81735636063	883
1028.42802442196	879
1031.03786761869	918
1033.64688640732	912
1036.2550812436	916
1038.86245258255	932
1041.46900087844	894
1044.07472658479	918
1046.67963015438	895
1049.28371203927	898
1051.88697269075	903
1054.48941255943	853
1057.09103209513	876
1059.691831747	871
1062.29181196343	878
1064.89097319211	870
1067.48931587999	873
1070.08684047333	893
1072.68354741766	871
1075.27943715779	841
1077.87451013787	853
1080.46876680127	875
1083.06220759071	859
1085.65483294822	882
1088.24664331509	894
1090.83763913194	893
1093.42782083869	865
1096.01718887459	863
1098.60574367818	865
1101.19348568732	901
1103.78041533919	887
1106.3665330703	857
1108.95183931646	857
1111.53633451284	862
1114.12001909391	882
1116.70289349349	850
1119.2849581447	896
1121.86621348005	869
1124.44665993134	880
1127.02629792973	879
1129.60512790574	896
1132.18315028919	864
1134.76036550929	900
1137.3367739946	895
1139.912376173	901
1142.48717247176	944
1145.06116331748	954
1147.63434913616	988
1150.20673035312	1009
1152.77830739307	1042
1155.34908068007	1019
1157.91905063757	1007
1160.48821768838	983
1163.05658225471	960
1165.6241447581	995
1168.19090561951	1004
1170.75686525927	971
1173.32202409708	941
1175.88638255206	892
1178.44994104269	873
1181.01269998684	892
1183.57465980182	861
1186.13582090427	894
1188.69618371026	867
1191.25574863529	850
1193.8145160942	886
1196.37248650129	859
1198.92966027025	883
1201.48603781416	855
1204.04161954556	874
1206.59640587635	893
1209.15039721788	877
1211.70359398092	902
1214.25599657564	910
1216.80760541166	925
1219.35842089801	931
1221.90844344314	893
1224.45767345496	905
1227.00611134077	870
1229.55375750736	868
1232.10061236092	859
1234.64667630707	876
1237.1919497509	841
1239.73643309692	875
1242.28012674912	867
1244.82303111089	876
1247.36514658511	874
1249.9064735741	885
1252.44701247964	867
1254.98676370294	865
1257.52572764469	901
1260.06390470506	878
1262.60129528365	880
1265.13789977954	888
1267.67371859128	896
1270.20875211688	872
1272.74300075384	855
1275.2764648991	864
1277.80914494911	850
1280.34104129978	882
1282.87215434652	871
1285.40248448419	867
1287.93203210715	879
1290.46079760927	895
1292.98878138385	885
1295.51598382375	898
1298.04240532127	901
1300.56804626822	887
1303.09290705593	876
1305.6169880752	883
1308.14028971632	895
1310.66281236913	881
1313.18455642292	882
1315.70552226653	914
1318.22571028829	932
1320.74512087603	944
1323.26375441711	992
1325.7816112984	1008
1328.29869190629	1057
1330.81499662666	1068
1333.33052584497	987
1335.84527994613	954
1338.35925931464	920
1340.87246433446	909
1343.38489538916	893
1345.89655286177	886
1348.40743713487	883
1350.91754859059	908
1353.42688761059	915
1355.93545457606	944
1358.44324986772	956
1360.95027386588	970
1363.45652695032	924
1365.96200950042	912
1368.4667218951	902
1370.97066451281	888
1373.47383773156	895
1375.97624192891	891
1378.47787748199	855
1380.97874476746	873
1383.47884416157	880
1385.97817604009	852
1388.4767407784	846
1390.9745387514	838
1393.47157033358	841
1395.96783589898	831
1398.46333582124	861
1400.95807047354	850
1403.45204022864	819
1405.94524545889	834
1408.4376865362	829
1410.92936383205	828
1413.42027771752	847
1415.91042856328	831
1418.39981673955	842
1420.88844261615	844
1423.37630656249	846
1425.86340894757	862
1428.34975013999	876
1430.83533050792	908
1433.32015041912	945
1435.80421024098	967
1438.28751034045	975
1440.77005108411	952
1443.25183283812	945
1445.73285596824	941
1448.21312083984	979
1450.69262781791	1021
1453.17137726702	1057
1455.64936955137	1107
1458.12660503477	1119
1460.60308408063	1112
1463.07880705197	1073
1465.55377431145	1037
1468.02798622133	937
1470.50144314348	910
1472.97414543941	873
1475.44609347024	889
1477.91728759673	885
1480.38772817924	864
1482.85741557777	852
1485.32635015194	839
1487.79453226103	852
1490.26196226391	838
1492.72864051911	852
1495.1945673848	847
1497.65974321874	844
1500.1241683784	856
1502.58784322083	828
1505.05076810274	835
1507.51294338049	840
1509.97436941009	823
1512.43504654717	849
1514.89497514704	826
1517.35415556462	812
1519.81258815451	837
1522.27027327095	849
1524.72721126784	842
1527.18340249874	825
1529.63884731684	830
1532.09354607502	845
1534.5474991258	859
1537.00070682136	821
1539.45316951355	847
1541.90488755388	831
1544.35586129353	840
1546.80609108336	838
1549.25557727385	835
1551.70432021519	848
1554.15232025725	864
1556.59957774953	833
1559.04609304125	857
1561.49186648127	846
1563.93689841815	845
1566.38118920011	850
1568.82473917506	853
1571.2675486906	852
1573.70961809399	831
1576.15094773219	864
1578.59153795184	841
1581.03138909928	818
1583.47050152051	850
1585.90887556123	839
1588.34651156686	845
1590.78340988246	849
1593.21957085283	829
1595.65499482245	842
1598.08968213547	862
1600.52363313578	843
1602.95684816694	853
1605.38932757224	840
1607.82107169462	833
1610.25208087677	826
1612.68235546107	844
1615.1118957896	836
1617.54070220415	833
1619.96877504621	837
1622.39611465701	817
1624.82272137746	834
1627.24859554818	828
1629.67373750953	819
1632.09814760155	848
1634.52182616404	849
1636.94477353647	834
1639.36699005806	837
1641.78847606776	822
1644.20923190418	849
1646.62925790573	861
1649.04855441048	828
1651.46712175628	849
1653.88496028066	852
1656.3020703209	830
1658.71845221401	852
1661.13410629671	838
1663.54903290547	849
1665.96323237649	850
1668.37670504571	850
1670.78945124877	847
1673.20147132109	856
1675.61276559779	852
1678.02333441377	853
1680.43317810362	840
1682.84229700171	860
1685.25069144213	869
1687.65836175872	863
1690.06530828507	849
1692.47153135451	851
1694.87703130009	850
1697.28180845467	856
1699.6858631508	866
1702.08919572081	857
1704.49180649676	860
1706.89369581049	847
1709.29486399355	854
1711.69531137731	849
1714.09503829282	876
1716.49404507095	846
1718.89233204229	874
1721.28989953721	872
1723.68674788581	872
1726.08287741798	852
1728.47828846338	857
1730.87298135139	865
1733.26695641119	865
1735.66021397173	867
1738.05275436169	848
1740.44457790954	864
1742.83568494354	848
1745.22607579168	860
1747.61575078175	855
1750.00471024128	857
1752.39295449761	877
1754.78048387783	872
1757.16729870881	857
1759.5533993172	864
1761.93878602942	878
1764.32345917168	856
1766.70741906995	862
1769.09066604999	847
1771.47320043735	884
1773.85502255735	861
1776.2361327351	853
1778.61653129548	827
1780.99621856318	866
1783.37519486264	887
1785.75346051813	881
1788.13101585368	873
1790.5078611931	871
1792.88399686002	885
1795.25942317785	881
1797.63414046977	880
1800.00814905878	877
1802.38144926766	878
1804.75404141898	888
1807.12592583514	899
1809.49710283829	869
1811.86757275039	882
1814.23733589322	867
1816.60639258834	885
1818.97474315712	891
1821.34238792073	910
1823.70932720012	886
1826.07556131608	888
1828.44109058918	873
1830.8059153398	867
1833.17003588812	899
1835.53345255413	880
1837.89616565765	896
1840.25817551827	885
1842.61948245541	901
1844.9800867883	862
1847.33998883598	895
1849.69918891729	905
1852.05768735091	892
1854.4154844553	892
1856.77258054875	895
1859.12897594938	888
1861.4846709751	888
1863.83966594366	876
1866.19396117261	905
1868.54755697932	880
1870.90045368099	903
1873.25265159463	902
1875.60415103708	883
1877.95495232501	910
1880.30505577486	913
1882.65446170299	897
1885.00317042548	882
1887.35118225832	916
1889.69849751726	916
1892.04511651792	881
1894.39103957574	910
1896.73626700596	902
1899.08079912368	886
1901.42463624384	912
1903.76777868116	908
1906.11022675025	899
1908.4519807655	922
1910.79304104117	928
1913.13340789134	904
1915.47308162992	901
1917.81206257067	916
1920.15035102718	907
1922.48794731286	919
1924.82485174096	917
1927.16106462461	932
1929.49658627672	922
1931.83141701008	923
1934.1655571373	900
1936.49900697085	928
1938.83176682301	915
1941.16383700594	923
1943.49521783161	907
1945.82590961186	907
1948.15591265835	928
1950.48522728262	914
1952.81385379602	923
1955.14179250976	894
1957.46904373489	929
1959.79560778233	919
1962.12148496284	919
1964.44667558701	913
1966.77117996529	908
1969.09499840799	907
1971.41813122527	904
1973.74057872714	947
1976.06234122345	921
1978.38341902391	921
1980.7038124381	907
1983.02352177543	913
1985.34254734518	930
1987.66088945649	920
1989.97854841833	917
1992.29552453956	916
1994.61181812887	932
1996.92742949483	933
1999.24235894586	920
2001.55660679023	920
2003.87017333608	926
2006.18305889143	924
2008.49526376413	942
2010.80678826189	923
2013.1176326923	934
2015.42779736282	950
2017.73728258075	923
2020.04608865326	959
2022.3542158874	921
2024.66166459008	936
2026.96843506807	938
2029.274527628	936
2031.57994257637	956
2033.88468021957	927
2036.18874086383	947
2038.49212481526	941
2040.79483237983	924
2043.0968638634	939
2045.39821957169	967
2047.69889981028	948
2049.99890488462	947
2052.29823510006	941
2054.59689076181	948
2056.89487217492	929
2059.19217964437	956
2061.48881347497	925
2063.7847739714	933
2066.08006143826	939
2068.37467618	947
2070.66861850093	955
2072.96188870527	929
2075.25448709707	938
2077.54641398031	945
2079.83766965881	957
2082.12825443629	956
2084.41816861634	945
2086.70741250242	951
2088.99598639789	938
2091.28389060597	968
2093.57112542978	958
2095.85769117232	927
2098.14358813644	926
2100.42881662491	942
2102.71337694037	938
2104.99726938532	940
2107.28049426219	945
2109.56305187325	948
2111.84494252069	957
2114.12616650655	960
2116.40672413278	954
2118.68661570121	974
2120.96584151355	947
2123.24440187138	953
2125.52229707622	937
2127.79952742943	961
2130.07609323227	957
2132.35199478588	939
2134.62723239132	943
2136.90180634949	956
2139.17571696123	965
2141.44896452723	971
2143.72154934809	971
2145.99347172429	946
2148.26473195623	966
2150.53533034415	959
2152.80526718821	972
2155.07454278848	935
2157.3431574449	952
2159.61111145728	939
2161.87840512538	950
2164.1450387488	943
2166.41101262707	970
2168.67632705959	959
2170.94098234567	947
2173.20497878451	954
2175.46831667519	945
2177.73099631672	963
2179.99301800797	972
2182.25438204772	971
2184.51508873466	960
2186.77513836735	972
2189.03453124427	960
2191.29326766378	963
2193.55134792416	993
2195.80877232355	980
2198.06554116004	964
2200.32165473157	966
2202.577113336	925
2204.83191727111	944
2207.08606683453	946
2209.33956232384	953
2211.59240403648	942
2213.84459226982	971
2216.09612732112	975
2218.34700948753	969
2220.59723906612	929
2222.84681635385	955
2225.09574164758	962
2227.34401524408	939
2229.59163744002	967
2231.83860853197	947
2234.08492881639	926
2236.33059858968	957
2238.5756181481	958
2240.81998778784	954
2243.06370780499	953
2245.30677849555	936
2247.54920015539	969
2249.79097308033	946
2252.03209756607	941
2254.27257390822	964
2256.51240240228	957
2258.75158334369	974
2260.99011702777	955
2263.22800374976	942
2265.46524380477	961
2267.70183748786	953
2269.93778509399	961
2272.17308691801	952
2274.40774325467	964
2276.64175439866	970
2278.87512064454	961
2281.10784228682	935
2283.33991961987	925
2285.571352938	953
2287.80214253541	939
2290.03228870623	959
2292.26179174449	947
2294.4906519441	921
2296.71886959892	938
2298.9464450027	953
2301.1733784491	942
2303.39967023169	941
2305.62532064395	965
2307.85032997926	958
2310.07469853093	961
2312.29842659216	931
2314.52151445608	948
2316.7439624157	938
2318.96577076397	940
2321.18693979374	957
2323.40746979777	911
2325.62736106873	953
2327.8466138992	940
2330.06522858166	938
2332.28320540853	946
2334.50054467212	936
2336.71724666465	929
2338.93331167827	925
2341.14874000501	959
2343.36353193685	900
2345.57768776564	915
2347.79120778319	925
2350.00409228117	946
2352.21634155121	948
2354.42795588482	955
2356.63893557342	922
2358.84928090838	950
2361.05899218094	931
2363.26806968228	948
2365.47651370347	929
2367.68432453552	926
2369.89150246933	942
2372.09804779571	903
2374.30396080541	925
2376.50924178907	957
2378.71389103725	952
2380.91790884042	922
2383.12129548897	948
2385.3240512732	934
2387.52617648332	933
2389.72767140946	937
2391.92853634165	940
2394.12877156985	924
2396.32837738392	911
2398.52735407365	935
2400.72570192873	921
2402.92342123875	925
2405.12051229325	910
2407.31697538167	928
2409.51281079333	929
2411.70801881751	927
2413.90259974339	932
2416.09655386004	931
2418.28988145648	898
2420.48258282162	899
2422.6746582443	898
2424.86610801325	945
2427.05693241713	932
2429.24713174452	917
2431.43670628389	917
2433.62565632365	917
2435.81398215212	936
2438.00168405752	897
2440.18876232799	918
2442.37521725158	907
2444.56104911628	923
2446.74625820994	915
2448.93084482038	900
2451.1148092353	904
2453.29815174233	902
2455.480872629	894
2457.66297218275	901
2459.84445069097	879
2462.02530844092	913
2464.2055457198	879
2466.38516281471	897
2468.56416001267	885
2470.74253760061	921
2472.92029586537	874
2475.09743509372	915
2477.27395557232	883
2479.44985758777	913
2481.62514142655	897
2483.79980737508	902
2485.97385571969	884
2488.14728674661	891
2490.32010074198	886
2492.49229799188	893
2494.66387878228	889
2496.83484339905	915
2499.00519212802	905
2501.17492525488	878
2503.34404306528	889
2505.51254584473	903
2507.6804338787	883
2509.84770745254	899
2512.01436685153	902
2514.18041236085	908
2516.34584426561	907
2518.51066285081	899
2520.67486840138	882
2522.83846120214	906
2525.00144153784	896
2527.16380969314	891
2529.32556595261	910
2531.48671060072	907
2533.64724392186	898
2535.80716620033	884
2537.96647772034	887
2540.12517876602	906
2542.2832696214	908
2544.44075057041	900
2546.59762189691	885
2548.75388388466	892
2550.90953681735	884
2553.06458097853	885
2555.21901665172	885
2557.37284412031	893
2559.5260636676	893
2561.67867557684	879
2563.83068013113	865
2565.98207761351	891
2568.13286830695	915
2570.28305249429	880
2572.43263045829	891
2574.58160248163	887
2576.72996884689	875
2578.87772983655	901
2581.02488573303	891
2583.1714368186	881
2585.31738337549	906
2587.46272568582	877
2589.60746403161	896
2591.75159869479	902
2593.89512995722	900
2596.03805810061	868
2598.18038340665	896
2600.32210615686	879
2602.46322663274	895
2604.60374511563	890
2606.74366188683	884
2608.88297722751	886
2611.02169141875	887
2613.15980474156	902
2615.29731747681	902
2617.43422990532	891
2619.57054230779	891
2621.70625496483	881
2623.84136815694	898
2625.97588216456	899
2628.10979726799	874
2630.24311374746	905
2632.3758318831	910
2634.50795195493	891
2636.6394742429	914
2638.77039902682	888
2640.90072658645	902
2643.0304572014	911
2645.15959115123	878
2647.28812871538	921
2649.41607017319	926
2651.5434158039	930
2653.67016588665	910
2655.79632070049	920
2657.92188052436	913
2660.04684563711	902
2662.17121631749	899
2664.29499284413	888
2666.41817549558	902
2668.54076455027	909
2670.66276028656	897
2672.78416298267	910
2674.90497291675	893
2677.02519036682	897
2679.14481561082	893
2681.26384892658	906
2683.38229059182	927
2685.50014088417	920
2687.61740008114	923
2689.73406846017	899
2691.85014629854	883
2693.96563387347	921
2696.08053146206	906
2698.1948393413	888
2700.3085577881	924
2702.42168707924	917
2704.53422749139	923
2706.64617930112	930
2708.75754278492	957
2710.86831821913	961
2712.97850588002	973
2715.08810604372	974
2717.19711898628	984
2719.30554498363	1029
2721.41338431158	1007
2723.52063724586	1018
2725.62730406206	1004
2727.73338503569	1002
2729.83888044213	985
2731.94379055664	983
2734.04811565441	953
2736.15185601048	934
2738.25501189979	927
2740.35758359718	935
2742.45957137738	934
2744.56097551499	943
2746.6617962845	896
2748.7620339603	916
2750.86168881666	909
2752.96076112774	908
2755.05925116758	913
2757.15715921012	910
2759.25448552917	907
2761.35123039843	890
2763.44739409148	879
2765.5429768818	878
2767.63797904275	878
2769.73240084756	896
2771.82624256934	887
2773.91950448113	903
2776.01218685579	873
2778.10428996609	906
2780.19581408469	893
2782.28675948414	894
2784.37712643683	868
2786.46691521507	861
2788.55612609104	906
2790.64475933678	880
2792.73281522425	920
2794.82029402525	898
2796.90719601149	915
2798.99352145453	876
2801.07927062583	912
2803.16444379672	894
2805.24904123841	927
2807.33306322197	914
2809.41651001838	934
2811.49938189847	916
2813.58167913296	926
2815.66340199243	962
2817.74455074734	961
2819.82512566805	956
2821.90512702475	985
2823.98455508754	999
2826.06341012637	1041
2828.14169241109	1097
2830.2194022114	1201
2832.29653979686	1371
2834.37310543694	1574
2836.44909940096	1744
2838.5245219581	1850
2840.59937337744	1780
2842.67365392791	1684
2844.74736387829	1534
2846.82050349727	1420
2848.8930730534	1346
2850.96507281506	1295
2853.03650305056	1306
2855.10736402802	1279
2857.17765601545	1346
2859.24737928074	1519
2861.31653409164	1771
2863.38512071574	2052
2865.45313942054	2261
2867.52059047335	2282
2869.58747414139	2320
2871.65379069173	2291
2873.7195403913	2348
2875.78472350688	2502
2877.84934030515	2747
2879.91339105262	2860
2881.97687601567	2944
2884.03979546053	2971
2886.10214965332	2828
2888.16393886	2722
2890.22516334639	2530
2892.28582337816	2422
2894.34591922087	2322
2896.40545113992	2347
2898.46441940054	2367
2900.52282426787	2460
2902.58066600687	2379
2904.63794488237	2485
2906.69466115906	2378
2908.75081510147	2200
2910.806406974	2117
2912.8614370409	1994
2914.91590556626	1962
2916.96981281404	1962
2919.02315904807	1970
2921.07594453199	2050
2923.12816952932	2016
2925.17983430343	2036
2927.23093911753	1954
2929.28148423469	1798
2931.33146991782	1716
2933.3808964297	1597
2935.42976403294	1465
2937.47807299	1415
2939.5258235632	1414
2941.57301601469	1438
2943.61965060648	1507
2945.66572760042	1675
2947.71124725823	1844
2949.75620984143	2023
2951.80061561143	2062
2953.84446482945	2017
2955.88775775656	2018
2957.9304946537	2019
2959.97267578162	1988
2962.01430140095	1945
2964.05537177211	1787
2966.09588715541	1736
2968.13584781097	1576
2970.17525399875	1460
2972.21410597859	1329
2974.25240401011	1246
2976.29014835283	1167
2978.32733926604	1072
2980.36397700892	1059
2982.40006184049	1050
2984.43559401955	1010
2986.4705738048	999
2988.50500145473	999
2990.53887722771	954
2992.57220138189	958
2994.6049741753	962
2996.63719586576	938
2998.66886671097	936
3000.69998696843	929
3002.73055689549	915
3004.7605767493	913
3006.79004678688	919
3008.81896726505	938
3010.84733844048	898
3012.87516056966	899
3014.9024339089	909
3016.92915871433	910
3018.95533524196	899
3020.98096374756	899
3023.00604448675	881
3025.030577715	907
3027.05456368757	907
3029.07800265956	920
3031.10089488589	888
3033.12324062131	886
3035.14504012038	900
3037.16629363749	882
3039.18700142685	891
3041.20716374249	885
3043.22678083826	849
3045.24585296782	913
3047.26438038468	890
3049.28236334212	881
3051.29980209329	907
3053.31669689111	898
3055.33304798835	875
3057.34885563757	908
3059.36412009117	872
3061.37884160134	886
3063.39302042011	886
3065.40665679931	877
3067.41975099058	887
3069.43230324538	896
3071.44431381495	870
3073.45578295041	888
3075.46671090261	884
3077.47709792227	879
3079.48694425989	891
3081.49625016578	887
3083.50501589008	874
3085.5132416827	871
3087.5209277934	875
3089.52807447169	889
3091.53468196695	890
3093.54075052832	920
3095.54628040476	866
3097.55127184503	872
3099.55572509769	896
3101.55964041111	900
3103.56301803346	888
3105.5658582127	876
3107.56816119661	866
3109.56992723275	872
3111.57115656849	878
3113.571849451	878
3115.57200612724	890
3117.57162684397	886
3119.57071184775	888
3121.56926138493	880
3123.56727570166	892
3125.56475504389	891
3127.56169965735	886
3129.55810978757	901
3131.55398567987	894
3133.54932757937	846
3135.54413573099	898
3137.53841037939	885
3139.53215176909	904
3141.52536014435	919
3143.51803574924	920
3145.51017882762	892
3147.50178962311	894
3149.49286837916	902
3151.48341533897	899
3153.47343074553	889
3155.46291484164	898
3157.45186786985	902
3159.44029007252	900
3161.42818169179	899
3163.41554296955	889
3165.40237414753	905
3167.38867546718	890
3169.37444716975	900
3171.35968949631	876
3173.34440268764	897
3175.32858698436	906
3177.31224262682	918
3179.29536985517	902
3181.27796890934	911
3183.26004002902	917
3185.24158345368	905
3187.22259942256	920
3189.2030881747	910
3191.18304994886	929
3193.16248498363	905
3195.14139351733	914
3197.11977578807	910
3199.09763203371	910
3201.07496249191	887
3203.05176740007	902
3205.02804699537	905
3207.00380151475	910
3208.97903119493	916
3210.95373627238	894
3212.92791698335	901
3214.90157356383	916
3216.8747062496	910
3218.84731527619	902
3220.81940087889	919
3222.79096329275	892
3224.76200275259	917
3226.73251949298	912
3228.70251374825	893
3230.67198575251	904
3232.64093573959	914
3234.6093639431	899
3236.57727059641	918
3238.54465593261	907
3240.51152018461	891
3242.47786358502	919
3244.44368636621	900
3246.40898876031	897
3248.37377099923	890
3250.33803331458	906
3252.30177593775	903
3254.26499909987	907
3256.22770303184	913
3258.18988796427	932
3260.15155412755	875
3262.1127017518	910
3264.0733310669	934
3266.03344230246	924
3267.99303568784	897
3269.95211145215	901
3271.91066982422	901
3273.86871103267	916
3275.82623530581	913
3277.7832428717	912
3279.73973395818	892
3281.69570879278	921
3283.6511676028	921
3285.60611061527	893
3287.56053805694	871
3289.51445015432	941
3291.46784713364	920
3293.42072922088	898
3295.37309664173	884
3297.32494962163	920
3299.27628838575	912
3301.227113159	925
3303.17742416601	892
3305.12722163114	920
3307.07650577848	912
3309.02527683185	907
3310.9735350148	912
3312.9212805506	913
3314.86851366225	921
3316.81523457249	916
3318.76144350377	921
3320.70714067825	900
3322.65232631783	937
3324.59700064415	909
3326.54116387854	922
3328.48481624207	926
3330.42795795551	921
3332.37058923938	936
3334.31271031389	927
3336.25432139898	920
3338.19542271432	912
3340.13601447927	909
3342.07609691292	908
3344.01567023407	906
3345.95473466124	923
3347.89329041266	902
3349.83133770627	912
3351.76887675973	905
3353.70590779039	900
3355.64243101534	913
3357.57844665135	920
3359.51395491492	933
3361.44895602224	898
3363.38345018922	913
3365.31743763148	891
3367.25091856432	929
3369.18389320278	896
3371.11636176156	925
3373.0483244551	923
3374.97978149754	933
3376.91073310269	919
3378.84117948409	922
3380.77112085498	901
3382.70055742826	904
3384.62948941659	922
3386.55791703227	904
3388.48584048733	887
3390.41325999348	930
3392.34017576214	920
3394.2665880044	928
3396.19249693107	938
3398.11790275263	918
3400.04280567926	915
3401.96720592084	932
3403.89110368692	902
3405.81449918675	937
3407.73739262928	936
3409.65978422311	902
3411.58167417658	936
3413.50306269768	930
3415.42394999408	947
3417.34433627316	924
3419.26422174195	906
3421.18360660721	917
3423.10249107532	930
3425.02087535239	923
3426.93875964421	906
3428.8561441562	895
3430.77302909353	911
3432.68941466097	901
3434.60530106301	932
3436.52068850383	917
3438.43557718726	938
3440.34996731681	900
3442.26385909565	901
3444.17725272664	893
3446.09014841231	933
3448.00254635486	914
3449.91444675614	907
3451.82584981771	939
3453.73675574076	929
3455.64716472616	898
3457.55707697445	931
3459.46649268584	904
3461.37541206018	921
3463.28383529703	915
3465.19176259555	931
3467.09919415464	915
3469.00613017278	913
3470.91257084817	922
3472.81851637863	896
3474.72396696168	927
3476.62892279446	922
3478.53338407379	913
3480.43735099614	888
3482.34082375764	920
3484.24380255404	902
3486.1462875808	926
3488.048279033	917
3489.94977710537	894
3491.85078199231	913
3493.75129388783	901
3495.65131298566	905
3497.5508394791	919
3499.44987356115	896
