200.090469251521	823
202.974751419364	848
205.858021632265	854
208.740280737522	829
211.621529580445	873
214.501769004372	844
217.380999850628	889
220.259222958593	877
223.136439165649	895
226.012649307235	883
228.887854216822	867
231.762054725918	822
234.635251664113	798
237.507445859023	777
240.378638136347	739
243.248829319856	737
246.118020231373	716
248.986211690827	699
251.853404516227	704
254.719599523657	700
257.584797527337	696
260.448999339541	716
263.312205770686	699
266.174417629303	699
269.035635722017	690
271.89586085361	703
274.755093826979	695
277.613335443147	697
280.470586501312	694
283.326847798768	699
286.18212013102	686
289.036404291687	677
291.889701072576	696
294.742011263643	689
297.593335653049	679
300.443675027094	676
303.293030170298	683
306.141401865367	709
308.988790893176	697
311.835198032838	674
314.680624061637	683
317.525069755113	684
320.36853588697	692
323.211023229181	690
326.052532551923	707
328.893064623606	675
331.732620210886	685
334.571200078671	699
337.408804990093	698
340.245435706565	684
343.081092987735	694
345.915777591524	698
348.749490274149	697
351.582231790051	703
354.414002892	692
357.244804331024	691
360.074636856445	696
362.903501215886	700
365.731398155266	686
368.558328418816	711
371.384292749062	695
374.209291886871	700
377.033326571409	704
379.856397540173	712
382.678505529011	717
385.499651272066	719
388.319835501873	719
391.139058949262	715
393.957322343455	744
396.774626412012	714
399.590971880849	727
402.406359474259	732
405.220789914895	727
408.034263923803	751
410.846782220402	727
413.658345522482	721
416.468954546245	746
419.278610006279	730
422.087312615559	737
424.895063085505	715
427.701862125904	715
430.507710444984	740
433.312608749369	728
436.116557744146	710
438.919558132792	738
441.72161061724	724
444.522715897858	724
447.322874673459	729
450.122087641299	726
452.920355497093	733
455.71767893501	707
458.514058647682	703
461.30949532622	718
464.10398966019	722
466.897542337651	734
469.690154045117	720
472.481825467627	735
475.272557288677	699
478.062350190282	721
480.851204852952	723
483.639121955686	722
486.426102176009	711
489.212146189958	699
491.997254672092	711
494.781428295473	724
497.564667731718	725
500.346973650961	740
503.12834672188	721
505.908787611691	726
508.688296986151	735
511.466875509572	741
514.244523844834	751
517.021242653355	733
519.797032595132	733
522.571894328732	739
525.34582851128	740
528.118835798493	744
530.890916844657	746
533.66207230267	733
536.432302823987	771
539.201609058685	758
541.969991655422	754
544.737451261476	759
547.503988522724	750
550.269604083663	747
553.034298587396	754
555.798072675669	774
558.560926988819	747
561.322862165851	758
564.083878844371	766
566.843977660657	770
569.603159249605	745
572.361424244772	751
575.118773278369	759
577.875206981241	751
580.630725982908	752
583.385330911566	770
586.139022394078	755
588.891801055957	771
591.643667521408	759
594.394622413318	772
597.144666353275	764
599.893799961513	780
602.642023857012	745
605.389338657416	766
608.13574497909	764
610.881243437093	795
613.625834645192	804
616.369519215883	883
619.112297760377	905
621.854170888605	906
624.595139209227	855
627.335203329614	820
630.074363855917	770
632.81262139299	780
635.549976544439	778
638.286429912615	754
641.021982098637	763
643.756633702364	760
646.490385322412	763
649.223237556177	765
651.955190999809	753
654.686246248224	776
657.416403895136	757
660.145664533012	776
662.874028753135	758
665.601497145537	768
668.328070299073	762
671.05374880138	759
673.778533238886	778
676.502424196839	771
679.225422259297	772
681.947528009102	778
684.66874202793	783
687.389064896282	762
690.108497193467	771
692.827039497622	774
695.544692385727	781
698.261456433588	777
700.97733221585	788
703.692320305984	783
706.406421276339	767
709.119635698082	773
711.831964141257	780
714.543407174743	770
717.253965366306	783
719.963639282554	782
722.672429488964	775
725.380336549907	805
728.087361028599	822
730.793503487167	790
733.498764486595	817
736.203144586759	814
738.906644346449	808
741.609264323313	830
744.311005073915	828
747.01186715373	830
749.711851117123	827
752.410957517377	860
755.109186906677	858
757.806539836135	862
760.503016855782	856
763.198618514553	846
765.893345360349	868
768.587197939965	862
771.280176799143	840
773.972282482569	848
776.66351553386	870
779.353876495577	865
782.043365909243	853
784.731984315328	887
787.419732253236	904
790.106610261368	884
792.792618877059	897
795.477758636619	915
798.162030075316	891
800.845433727424	879
803.527970126152	858
806.209639803714	857
808.890443291307	842
811.5703811191	845
814.249453816264	829
816.927661910961	815
819.605005930361	809
822.281486400606	814
824.957103846867	804
827.631858793319	828
830.305751763137	838
832.978783278521	819
835.650953860679	851
838.322264029851	861
840.992714305294	821
843.662305205292	822
846.331037247159	828
848.998910947244	825
851.665926820937	810
854.332085382674	831
856.997387145915	807
859.661832623193	836
862.325422326067	838
864.988156765174	823
867.650036450184	830
870.311061889847	823
872.971233591961	829
875.630552063409	821
878.28901781013	823
880.946631337141	855
883.603393148535	816
886.259303747486	821
888.914363636247	820
891.568573316158	807
894.22193328767	827
896.874444050283	819
899.526106102627	837
902.176919942417	843
904.826886066483	841
907.47600497075	823
910.124277150257	856
912.771703099131	849
915.418283310643	838
918.064018277177	836
920.708908490222	802
923.352954440405	837
925.996156617489	832
928.638515510336	842
931.280031606966	815
933.920705394522	830
936.560537359305	845
939.19952798674	823
941.837677761394	826
944.474987167007	835
947.111456686439	813
949.747086801736	840
952.381877994073	808
955.015830743793	818
957.648945530419	846
960.281222832634	831
962.912663128263	849
965.543266894337	842
968.173034607059	842
970.80196674178	873
973.430063773072	841
976.057326174661	843
978.683754419475	847
981.309348979625	896
983.934110326421	908
986.558038930362	928
989.181135261147	994
991.803399787692	1030
994.424832978086	1251
997.045435299653	1613
999.665207218908	1944
1002.2841492016	1840
1004.90226171266	1522
1007.51954521628	1128
1010.13600017584	962
1012.75162705397	904
1015.3664263125	886
1017.98039841251	886
1020.5935438143	913
1023.20586297741	954
1025.81735636063	1041
1028.42802442196	1087
1031.03786761869	1116
1033.64688640732	1082
1036.2550812436	1027
1038.86245258256	956
1041.46900087844	922
1044.07472658479	904
1046.67963015438	879
1049.28371203926	861
1051.88697269076	854
1054.48941255943	881
1057.09103209513	879
1059.691831747	892
1062.29181196343	868
1064.89097319211	880
1067.48931587999	869
1070.08684047333	868
1072.68354741766	876
1075.2794371578	871
1077.87451013787	873
1080.46876680127	863
1083.06220759071	862
1085.65483294822	860
1088.24664331509	864
1090.83763913194	862
1093.4278208387	872
1096.01718887459	854
1098.60574367818	857
1101.19348568732	860
1103.78041533919	834
1106.3665330703	855
1108.95183931646	850
1111.53633451284	843
1114.12001909391	840
1116.70289349349	839
1119.28495814471	843
1121.86621348006	852
1124.44665993134	842
1127.02629792974	836
1129.60512790574	835
1132.18315028919	836
1134.76036550929	840
1137.3367739946	842
1139.912376173	845
1142.48717247176	843
1145.06116331749	871
1147.63434913616	897
1150.20673035312	932
1152.77830739307	962
1155.34908068007	961
1157.91905063757	945
1160.48821768838	919
1163.05658225471	887
1165.6241447581	900
1168.19090561951	877
1170.75686525927	887
1173.32202409709	910
1175.88638255206	932
1178.44994104269	965
1181.01269998685	988
1183.57465980182	1003
1186.13582090427	977
1188.69618371026	999
1191.25574863529	975
1193.8145160942	1004
1196.37248650129	1019
1198.92966027025	1011
1201.48603781417	988
1204.04161954556	978
1206.59640587635	933
1209.15039721788	923
1211.70359398092	902
1214.25599657564	879
1216.80760541166	877
1219.35842089801	873
1221.90844344314	854
1224.45767345496	864
1227.00611134077	842
1229.55375750736	861
1232.10061236092	839
1234.64667630707	832
1237.1919497509	843
1239.73643309692	835
1242.28012674912	865
1244.82303111089	847
1247.36514658511	845
1249.90647357411	836
1252.44701247964	844
1254.98676370294	838
1257.52572764469	827
1260.06390470506	830
1262.60129528365	828
1265.13789977955	825
1267.67371859128	855
1270.20875211688	861
1272.74300075384	839
1275.2764648991	851
1277.80914494911	835
1280.34104129979	819
1282.87215434652	824
1285.40248448419	826
1287.93203210715	841
1290.46079760927	846
1292.98878138385	847
1295.51598382375	858
1298.04240532127	865
1300.56804626823	857
1303.09290705594	844
1305.6169880752	856
1308.14028971632	867
1310.66281236913	833
1313.18455642292	866
1315.70552226653	847
1318.22571028829	883
1320.74512087603	873
1323.26375441711	863
1325.7816112984	887
1328.29869190629	876
1330.81499662667	879
1333.33052584497	869
1335.84527994613	861
1338.35925931464	853
1340.87246433447	860
1343.38489538916	855
1345.89655286177	857
1348.40743713487	847
1350.91754859059	837
1353.42688761059	878
1355.93545457606	828
1358.44324986772	856
1360.95027386588	875
1363.45652695032	835
1365.96200950043	836
1368.4667218951	820
1370.97066451281	847
1373.47383773156	828
1375.97624192891	847
1378.47787748199	810
1380.97874476746	809
1383.47884416157	811
1385.9781760401	829
1388.4767407784	811
1390.9745387514	832
1393.47157033358	812
1395.96783589898	796
1398.46333582124	782
1400.95807047355	810
1403.45204022865	798
1405.94524545889	802
1408.4376865362	807
1410.92936383205	775
1413.42027771753	814
1415.91042856328	809
1418.39981673955	795
1420.88844261615	807
1423.37630656249	775
1425.86340894757	794
1428.34975013999	805
1430.83533050792	803
1433.32015041912	830
1435.80421024098	842
1438.28751034046	847
1440.77005108411	872
1443.25183283812	872
1445.73285596824	884
1448.21312083984	867
1450.69262781791	890
1453.17137726702	866
1455.64936955137	827
1458.12660503477	836
1460.60308408063	806
1463.07880705198	826
1465.55377431145	809
1468.02798622133	810
1470.50144314349	820
1472.97414543941	799
1475.44609347025	796
1477.91728759673	810
1480.38772817924	815
1482.85741557777	794
1485.32635015194	830
1487.79453226103	810
1490.26196226392	809
1492.72864051911	781
1495.1945673848	800
1497.65974321875	786
1500.1241683784	793
1502.58784322083	820
1505.05076810274	803
1507.51294338049	798
1509.97436941009	783
1512.43504654718	803
1514.89497514704	798
1517.35415556462	792
1519.8125881545	804
1522.27027327095	794
1524.72721126785	811
1527.18340249875	802
1529.63884731684	801
1532.09354607502	790
1534.5474991258	798
1537.00070682136	797
1539.45316951355	794
1541.90488755388	785
1544.35586129354	795
1546.80609108336	788
1549.25557727385	783
1551.70432021519	789
1554.15232025725	804
1556.59957774954	820
1559.04609304125	793
1561.49186648127	790
1563.93689841815	775
1566.38118920011	804
1568.82473917506	813
1571.2675486906	809
1573.70961809399	830
1576.15094773219	836
1578.59153795185	872
1581.03138909928	913
1583.47050152051	934
1585.90887556123	893
1588.34651156686	866
1590.78340988246	861
1593.21957085283	895
1595.65499482245	941
1598.08968213547	1061
1600.52363313578	1120
1602.95684816695	1093
1605.38932757224	1010
1607.82107169462	944
1610.25208087678	868
1612.68235546107	806
1615.1118957896	837
1617.54070220415	810
1619.96877504622	795
1622.39611465702	799
1624.82272137746	786
1627.24859554818	778
1629.67373750953	785
1632.09814760155	776
1634.52182616404	780
1636.94477353648	764
1639.36699005807	782
1641.78847606776	791
1644.20923190419	775
1646.62925790573	760
1649.04855441048	753
1651.46712175628	767
1653.88496028066	760
1656.3020703209	770
1658.71845221401	782
1661.13410629671	783
1663.54903290548	771
1665.96323237649	767
1668.37670504571	787
1670.78945124877	781
1673.20147132109	781
1675.61276559779	753
1678.02333441377	751
1680.43317810362	786
1682.84229700171	764
1685.25069144213	782
1687.65836175872	772
1690.06530828507	766
1692.47153135451	783
1694.8770313001	765
1697.28180845468	765
1699.6858631508	766
1702.08919572081	783
1704.49180649676	778
1706.89369581049	763
1709.29486399356	771
1711.69531137731	773
1714.09503829282	764
1716.49404507096	767
1718.89233204229	766
1721.28989953721	776
1723.68674788581	756
1726.08287741798	736
1728.47828846338	768
1730.87298135139	775
1733.26695641119	777
1735.66021397173	778
1738.05275436169	755
1740.44457790955	760
1742.83568494355	753
1745.22607579168	763
1747.61575078175	758
1750.00471024128	765
1752.39295449761	756
1754.78048387783	743
1757.16729870881	747
1759.5533993172	754
1761.93878602942	760
1764.32345917168	758
1766.70741906995	769
1769.09066604999	766
1771.47320043736	748
1773.85502255735	760
1776.2361327351	759
1778.61653129548	755
1780.99621856318	768
1783.37519486264	764
1785.75346051813	763
1788.13101585368	774
1790.50786119311	747
1792.88399686002	776
1795.25942317785	763
1797.63414046977	778
1800.00814905878	766
1802.38144926766	770
1804.75404141898	755
1807.12592583514	759
1809.49710283829	761
1811.86757275039	761
1814.23733589322	775
1816.60639258834	751
1818.97474315712	732
1821.34238792073	745
1823.70932720012	761
1826.07556131608	761
1828.44109058918	764
1830.8059153398	759
1833.17003588812	746
1835.53345255413	766
1837.89616565765	748
1840.25817551827	766
1842.61948245541	747
1844.9800867883	753
1847.33998883598	740
1849.6991889173	758
1852.05768735091	738
1854.4154844553	746
1856.77258054875	763
1859.12897594938	741
1861.48467097511	746
1863.83966594367	747
1866.19396117261	765
1868.54755697932	742
1870.90045368099	741
1873.25265159463	755
1875.60415103708	741
1877.95495232501	755
1880.30505577487	743
1882.65446170299	751
1885.00317042549	753
1887.35118225832	759
1889.69849751726	759
1892.04511651792	783
1894.39103957574	755
1896.73626700596	748
1899.08079912369	745
1901.42463624384	756
1903.76777868116	754
1906.11022675025	744
1908.4519807655	754
1910.79304104117	748
1913.13340789134	751
1915.47308162993	749
1917.81206257067	769
1920.15035102718	753
1922.48794731286	757
1924.82485174096	760
1927.16106462461	777
1929.49658627672	756
1931.83141701008	752
1934.1655571373	757
1936.49900697085	756
1938.83176682301	736
1941.16383700594	749
1943.49521783161	755
1945.82590961186	745
1948.15591265835	741
1950.48522728262	757
1952.81385379602	766
1955.14179250976	753
1957.46904373489	754
1959.79560778233	741
1962.12148496284	755
1964.44667558701	756
1966.77117996529	735
1969.094998408	733
1971.41813122527	759
1973.74057872714	753
1976.06234122345	749
1978.38341902391	747
1980.7038124381	746
1983.02352177544	748
1985.34254734518	751
1987.66088945649	754
1989.97854841833	748
1992.29552453956	739
1994.61181812887	747
1996.92742949483	747
1999.24235894586	735
2001.55660679023	747
2003.87017333609	741
2006.18305889143	745
2008.49526376413	750
2010.80678826189	742
2013.1176326923	742
2015.42779736282	755
2017.73728258075	748
2020.04608865326	732
2022.35421588741	752
2024.66166459008	748
2026.96843506807	727
2029.274527628	755
2031.57994257638	746
2033.88468021957	772
2036.18874086383	743
2038.49212481526	751
2040.79483237983	751
2043.0968638634	762
2045.39821957169	755
2047.69889981028	741
2049.99890488462	758
2052.29823510007	738
2054.59689076181	725
2056.89487217492	729
2059.19217964437	743
2061.48881347497	744
2063.7847739714	763
2066.08006143827	752
2068.37467618	755
2070.66861850093	738
2072.96188870527	746
2075.25448709708	771
2077.54641398031	757
2079.83766965881	748
2082.12825443629	750
2084.41816861634	752
2086.70741250242	742
2088.99598639789	745
2091.28389060597	744
2093.57112542978	743
2095.85769117232	745
2098.14358813644	748
2100.42881662491	750
2102.71337694037	741
2104.99726938533	753
2107.28049426219	728
2109.56305187326	742
2111.84494252069	735
2114.12616650655	745
2116.40672413278	760
2118.68661570121	728
2120.96584151355	727
2123.24440187139	756
2125.52229707622	742
2127.79952742943	744
2130.07609323227	745
2132.35199478588	772
2134.62723239132	737
2136.90180634949	764
2139.17571696123	726
2141.44896452723	745
2143.72154934809	747
2145.9934717243	750
2148.26473195623	753
2150.53533034415	769
2152.80526718822	743
2155.07454278848	752
2157.3431574449	748
2159.61111145728	742
2161.87840512538	741
2164.1450387488	753
2166.41101262707	762
2168.67632705959	757
2170.94098234567	760
2173.20497878451	763
2175.4683166752	739
2177.73099631673	760
2179.99301800797	761
2182.25438204773	752
2184.51508873466	763
2186.77513836735	753
2189.03453124427	749
2191.29326766378	767
2193.55134792416	762
2195.80877232355	737
2198.06554116004	756
2200.32165473157	762
2202.577113336	759
2204.83191727111	757
2207.08606683453	762
2209.33956232384	767
2211.59240403649	753
2213.84459226982	746
2216.09612732112	752
2218.34700948753	752
2220.59723906612	752
2222.84681635385	767
2225.09574164758	743
2227.34401524408	745
2229.59163744002	747
2231.83860853197	743
2234.08492881639	732
2236.33059858968	741
2238.5756181481	756
2240.81998778785	740
2243.06370780499	746
2245.30677849555	753
2247.54920015539	766
2249.79097308033	768
2252.03209756607	754
2254.27257390822	745
2256.51240240228	755
2258.75158334369	747
2260.99011702777	762
2263.22800374976	752
2265.46524380477	756
2267.70183748787	764
2269.93778509399	752
2272.17308691801	742
2274.40774325467	743
2276.64175439866	766
2278.87512064454	751
2281.10784228682	771
2283.33991961987	757
2285.571352938	753
2287.80214253541	751
2290.03228870623	756
2292.26179174449	747
2294.4906519441	754
2296.71886959893	753
2298.94644500271	755
2301.1733784491	756
2303.39967023169	769
2305.62532064395	726
2307.85032997926	757
2310.07469853093	766
2312.29842659216	775
2314.52151445608	755
2316.7439624157	742
2318.96577076398	779
2321.18693979374	754
2323.40746979777	753
2325.62736106873	740
2327.8466138992	766
2330.06522858166	744
2332.28320540853	754
2334.50054467212	763
2336.71724666465	745
2338.93331167827	753
2341.14874000501	765
2343.36353193685	761
2345.57768776564	753
2347.79120778319	752
2350.00409228117	757
2352.21634155121	765
2354.42795588482	766
2356.63893557343	763
2358.84928090839	766
2361.05899218094	746
2363.26806968228	754
2365.47651370347	758
2367.68432453552	756
2369.89150246933	759
2372.09804779571	754
2374.30396080541	758
2376.50924178907	760
2378.71389103725	771
2380.91790884042	751
2383.12129548898	756
2385.32405127321	751
2387.52617648332	758
2389.72767140946	748
2391.92853634165	762
2394.12877156985	765
2396.32837738393	756
2398.52735407365	753
2400.72570192873	748
2402.92342123875	759
2405.12051229325	759
2407.31697538167	754
2409.51281079334	744
2411.70801881751	775
2413.90259974339	749
2416.09655386005	759
2418.28988145648	720
2420.48258282163	754
2422.6746582443	771
2424.86610801325	754
2427.05693241713	745
2429.24713174452	752
2431.43670628389	753
2433.62565632365	746
2435.81398215213	714
2438.00168405752	752
2440.18876232799	739
2442.37521725158	760
2444.56104911628	757
2446.74625820994	736
2448.93084482038	757
2451.1148092353	748
2453.29815174233	741
2455.480872629	764
2457.66297218276	733
2459.84445069097	740
2462.02530844092	763
2464.2055457198	746
2466.38516281471	743
2468.56416001267	757
2470.74253760061	754
2472.92029586537	743
2475.09743509372	743
2477.27395557232	739
2479.44985758777	762
2481.62514142655	740
2483.79980737509	753
2485.97385571969	764
2488.1472867466	763
2490.32010074198	733
2492.49229799188	740
2494.66387878228	753
2496.83484339905	753
2499.00519212802	742
2501.17492525489	732
2503.34404306528	747
2505.51254584473	741
2507.6804338787	757
2509.84770745254	746
2512.01436685153	745
2514.18041236085	761
2516.34584426561	752
2518.51066285081	748
2520.67486840138	751
2522.83846120214	733
2525.00144153785	732
2527.16380969314	734
2529.32556595261	742
2531.48671060072	755
2533.64724392186	759
2535.80716620033	733
2537.96647772035	752
2540.12517876602	757
2542.2832696214	751
2544.44075057041	755
2546.59762189692	732
2548.75388388467	748
2550.90953681735	743
2553.06458097853	747
2555.21901665172	753
2557.37284412031	752
2559.5260636676	751
2561.67867557684	745
2563.83068013113	751
2565.98207761352	747
2568.13286830695	749
2570.28305249429	752
2572.43263045829	738
2574.58160248163	737
2576.72996884689	738
2578.87772983656	735
2581.02488573303	771
2583.1714368186	752
2585.3173833755	746
2587.46272568582	735
2589.60746403161	743
2591.75159869479	745
2593.89512995722	739
2596.03805810062	732
2598.18038340665	760
2600.32210615686	761
2602.46322663274	751
2604.60374511563	755
2606.74366188683	752
2608.88297722751	763
2611.02169141875	743
2613.15980474156	743
2615.29731747681	758
2617.43422990532	748
2619.57054230779	746
2621.70625496483	748
2623.84136815695	746
2625.97588216456	748
2628.10979726799	751
2630.24311374746	756
2632.3758318831	747
2634.50795195493	746
2636.6394742429	748
2638.77039902682	741
2640.90072658645	751
2643.0304572014	741
2645.15959115123	735
2647.28812871538	755
2649.41607017319	756
2651.5434158039	756
2653.67016588665	749
2655.79632070049	751
2657.92188052436	743
2660.04684563712	751
2662.17121631749	752
2664.29499284413	717
2666.41817549558	754
2668.54076455028	748
2670.66276028656	745
2672.78416298267	742
2674.90497291675	757
2677.02519036682	754
2679.14481561082	742
2681.26384892658	732
2683.38229059183	740
2685.50014088417	760
2687.61740008115	742
2689.73406846017	753
2691.85014629854	756
2693.96563387347	728
2696.08053146206	752
2698.1948393413	738
2700.3085577881	742
2702.42168707924	742
2704.53422749139	754
2706.64617930112	747
2708.75754278492	729
2710.86831821914	730
2712.97850588002	746
2715.08810604372	744
2717.19711898628	731
2719.30554498363	754
2721.41338431159	749
2723.52063724587	733
2725.62730406207	721
2727.73338503569	742
2729.83888044213	738
2731.94379055665	746
2734.04811565441	717
2736.15185601048	728
2738.25501189979	741
2740.35758359718	740
2742.45957137738	720
2744.56097551499	749
2746.6617962845	738
2748.7620339603	737
2750.86168881666	725
2752.96076112774	732
2755.05925116759	740
2757.15715921013	744
2759.25448552917	748
2761.35123039843	729
2763.44739409148	726
2765.54297688181	740
2767.63797904275	751
2769.73240084756	743
2771.82624256935	748
2773.91950448113	750
2776.01218685579	741
2778.10428996609	742
2780.1958140847	745
2782.28675948414	729
2784.37712643683	736
2786.46691521507	747
2788.55612609103	749
2790.64475933678	736
2792.73281522425	746
2794.82029402525	730
2796.90719601149	725
2798.99352145453	736
2801.07927062583	731
2803.16444379672	731
2805.24904123841	728
2807.33306322197	737
2809.41651001838	734
2811.49938189847	735
2813.58167913296	732
2815.66340199243	730
2817.74455074734	735
2819.82512566805	751
2821.90512702475	747
2823.98455508754	733
2826.06341012637	736
2828.14169241109	765
2830.2194022114	739
2832.29653979686	763
2834.37310543694	769
2836.44909940096	771
2838.52452195811	798
2840.59937337745	825
2842.67365392791	849
2844.7473638783	866
2846.82050349728	872
2848.8930730534	890
2850.96507281507	873
2853.03650305056	890
2855.10736402802	888
2857.17765601545	871
2859.24737928075	856
2861.31653409164	837
2863.38512071574	823
2865.45313942054	835
2867.52059047335	833
2869.58747414139	811
2871.65379069173	842
2873.7195403913	842
2875.78472350688	844
2877.84934030515	877
2879.91339105262	898
2881.97687601567	903
2884.03979546054	903
2886.10214965333	956
2888.16393886001	960
2890.22516334639	962
2892.28582337816	1001
2894.34591922087	1059
2896.40545113992	1052
2898.46441940054	1089
2900.52282426787	1071
2902.58066600687	1092
2904.63794488237	1093
2906.69466115906	1056
2908.75081510147	1055
2910.806406974	1058
2912.86143704089	1048
2914.91590556626	1029
2916.96981281405	1014
2919.02315904807	1007
2921.07594453199	978
2923.12816952932	977
2925.17983430343	939
2927.23093911753	919
2929.28148423469	939
2931.33146991782	941
2933.3808964297	933
2935.42976403294	934
2937.47807299	898
2939.5258235632	871
2941.57301601469	840
2943.61965060648	872
2945.66572760042	815
2947.71124725823	808
2949.75620984144	833
2951.80061561143	781
2953.84446482945	785
2955.88775775656	813
2957.9304946537	786
2959.97267578162	787
2962.01430140095	804
2964.05537177211	785
2966.09588715541	778
2968.13584781097	793
2970.17525399875	805
2972.21410597859	827
2974.25240401012	857
2976.29014835283	856
2978.32733926604	836
2980.36397700893	830
2982.40006184049	814
2984.43559401955	801
2986.4705738048	790
2988.50500145474	781
2990.53887722771	789
2992.57220138189	786
2994.6049741753	787
2996.63719586576	828
2998.66886671097	863
3000.69998696843	870
3002.73055689549	836
3004.7605767493	848
3006.79004678688	818
3008.81896726505	815
3010.84733844048	800
3012.87516056966	804
3014.9024339089	815
3016.92915871434	816
3018.95533524196	857
3020.98096374756	874
3023.00604448676	938
3025.030577715	952
3027.05456368757	1055
3029.07800265956	1075
3031.10089488589	1134
3033.12324062131	1203
3035.14504012038	1209
3037.16629363749	1210
3039.18700142685	1249
3041.20716374249	1238
3043.22678083826	1313
3045.24585296783	1465
3047.26438038468	1646
3049.28236334212	1763
3051.29980209329	1865
3053.31669689111	1862
3055.33304798835	1818
3057.34885563757	1826
3059.36412009117	1741
3061.37884160135	1698
3063.39302042012	1590
3065.40665679932	1496
3067.41975099059	1360
3069.43230324538	1202
3071.44431381495	1111
3073.45578295041	1079
3075.46671090261	998
3077.47709792227	943
3079.48694425989	921
3081.49625016579	905
3083.50501589008	875
3085.51324168271	872
3087.5209277934	817
3089.52807447169	830
3091.53468196695	846
3093.54075052832	790
3095.54628040476	792
3097.55127184503	792
3099.55572509769	774
3101.55964041111	810
3103.56301803346	789
3105.5658582127	782
3107.56816119661	782
3109.56992723275	779
3111.5711565685	770
3113.57184945101	774
3115.57200612724	758
3117.57162684397	775
3119.57071184775	750
3121.56926138493	774
3123.56727570166	767
3125.56475504389	757
3127.56169965735	728
3129.55810978757	742
3131.55398567988	745
3133.54932757938	747
3135.54413573099	761
3137.53841037939	729
3139.53215176909	751
3141.52536014435	744
3143.51803574925	757
3145.51017882762	760
3147.50178962312	741
3149.49286837916	738
3151.48341533897	731
3153.47343074553	755
3155.46291484164	747
3157.45186786985	747
3159.44029007252	787
3161.42818169179	760
3163.41554296956	772
3165.40237414753	765
3167.38867546717	777
3169.37444716976	750
3171.35968949631	753
3173.34440268765	745
3175.32858698436	748
3177.31224262683	732
3179.29536985518	744
3181.27796890934	728
3183.26004002902	747
3185.24158345368	749
3187.22259942256	748
3189.2030881747	736
3191.18304994886	748
3193.16248498363	751
3195.14139351733	757
3197.11977578807	758
3199.09763203372	761
3201.07496249191	775
3203.05176740007	758
3205.02804699537	757
3207.00380151475	743
3208.97903119493	751
3210.95373627239	749
3212.92791698335	741
3214.90157356383	719
3216.8747062496	732
3218.84731527619	735
3220.81940087889	721
3222.79096329275	729
3224.76200275259	716
3226.73251949298	747
3228.70251374826	732
3230.67198575251	724
3232.64093573959	734
3234.6093639431	750
3236.57727059641	743
3238.54465593262	728
3240.51152018462	737
3242.47786358502	719
3244.44368636621	743
3246.40898876032	745
3248.37377099923	724
3250.33803331458	726
3252.30177593775	734
3254.26499909988	733
3256.22770303184	742
3258.18988796427	746
3260.15155412755	733
3262.1127017518	741
3264.0733310669	743
3266.03344230246	750
3267.99303568784	728
3269.95211145215	744
3271.91066982422	724
3273.86871103267	741
3275.82623530581	743
3277.78324287171	738
3279.73973395818	723
3281.69570879278	723
3283.65116760281	720
3285.60611061527	737
3287.56053805694	723
3289.51445015432	743
3291.46784713364	731
3293.42072922088	734
3295.37309664173	733
3297.32494962163	733
3299.27628838576	737
3301.22711315901	730
3303.17742416601	725
3305.12722163114	721
3307.07650577848	740
3309.02527683185	722
3310.9735350148	742
3312.9212805506	740
3314.86851366225	717
3316.81523457249	729
3318.76144350377	736
3320.70714067825	725
3322.65232631784	735
3324.59700064415	718
3326.54116387854	738
3328.48481624207	729
3330.42795795552	726
3332.37058923938	724
3334.31271031389	747
3336.25432139899	731
3338.19542271433	748
3340.13601447927	725
3342.07609691292	726
3344.01567023407	724
3345.95473466125	729
3347.89329041266	719
3349.83133770628	731
3351.76887675973	732
3353.70590779039	737
3355.64243101534	736
3357.57844665135	731
3359.51395491492	729
3361.44895602224	732
3363.38345018922	711
3365.31743763148	735
3367.25091856432	724
3369.18389320278	726
3371.11636176156	735
3373.0483244551	743
3374.97978149754	701
3376.91073310269	736
3378.84117948409	730
3380.77112085498	745
3382.70055742827	732
3384.62948941659	741
3386.55791703227	731
3388.48584048733	712
3390.41325999348	740
3392.34017576214	728
3394.26658800441	739
3396.19249693107	726
3398.11790275263	722
3400.04280567926	732
3401.96720592084	740
3403.89110368692	727
3405.81449918675	738
3407.73739262928	721
3409.65978422312	748
3411.58167417659	720
3413.50306269768	743
3415.42394999408	733
3417.34433627316	726
3419.26422174196	745
3421.18360660721	734
3423.10249107532	746
3425.0208753524	733
3426.93875964421	739
3428.85614415621	750
3430.77302909353	730
3432.68941466097	726
3434.60530106302	725
3436.52068850384	739
3438.43557718726	751
3440.34996731681	741
3442.26385909565	723
3444.17725272664	727
3446.09014841231	731
3448.00254635485	751
3449.91444675614	728
3451.82584981771	737
3453.73675574076	731
3455.64716472616	735
3457.55707697445	733
3459.46649268584	735
3461.37541206019	721
3463.28383529703	747
3465.19176259556	740
3467.09919415464	725
3469.00613017278	746
3470.91257084817	734
3472.81851637863	719
3474.72396696168	732
3476.62892279446	724
3478.5333840738	729
3480.43735099614	731
3482.34082375764	726
3484.24380255404	742
3486.1462875808	727
3488.048279033	734
3489.94977710537	725
3491.85078199231	744
3493.75129388784	731
3495.65131298566	738
3497.5508394791	722
3499.44987356115	722
