200.090469251518	1422
202.974751419362	1400
205.858021632263	1390
208.740280737522	1412
211.621529580443	1413
214.501769004371	1401
217.380999850626	1404
220.25922295859	1410
223.136439165646	1441
226.012649307235	1401
228.88785421682	1394
231.762054725918	1429
234.635251664113	1412
237.507445859021	1422
240.378638136346	1427
243.248829319855	1459
246.11802023137	1435
248.986211690826	1458
251.853404516227	1424
254.719599523654	1428
257.584797527335	1478
260.44899933954	1499
263.312205770682	1484
266.174417629303	1519
269.035635722015	1525
271.895860853609	1528
274.755093826978	1501
277.613335443144	1512
280.470586501309	1526
283.326847798766	1549
286.182120131019	1520
289.036404291684	1521
291.889701072574	1523
294.742011263643	1497
297.593335653048	1474
300.443675027094	1476
303.293030170295	1534
306.141401865367	1488
308.988790893174	1459
311.835198032837	1519
314.680624061635	1463
317.525069755113	1484
320.36853588697	1523
323.211023229178	1537
326.052532551923	1485
328.893064623604	1505
331.732620210885	1492
334.57120007867	1509
337.408804990093	1497
340.245435706565	1451
343.081092987733	1498
345.915777591523	1501
348.749490274145	1526
351.582231790049	1543
354.414002891997	1523
357.244804331021	1547
360.074636856443	1528
362.903501215886	1552
365.731398155265	1526
368.558328418814	1546
371.384292749062	1571
374.209291886869	1567
377.033326571407	1568
379.85639754017	1560
382.678505529009	1558
385.499651272065	1575
388.319835501872	1584
391.139058949258	1569
393.957322343453	1565
396.774626412011	1574
399.590971880847	1566
402.406359474258	1623
405.220789914893	1609
408.034263923801	1601
410.8467822204	1587
413.658345522483	1610
416.468954546242	1575
419.278610006277	1588
422.087312615557	1616
424.895063085503	1663
427.701862125901	1607
430.507710444981	1664
433.312608749366	1628
436.116557744146	1635
438.919558132791	1633
441.721610617238	1625
444.522715897856	1625
447.322874673457	1653
450.122087641299	1607
452.920355497092	1660
455.717678935009	1680
458.514058647681	1710
461.309495326219	1650
464.103989660191	1673
466.89754233765	1644
469.690154045114	1700
472.481825467625	1655
475.272557288674	1691
478.062350190281	1630
480.851204852952	1627
483.639121955683	1680
486.426102176007	1681
489.212146189955	1696
491.997254672093	1703
494.781428295471	1677
497.564667731716	1720
500.346973650958	1672
503.128346721878	1724
505.90878761169	1752
508.688296986151	1736
511.46687550957	1733
514.244523844831	1720
517.021242653354	1712
519.797032595132	1728
522.571894328732	1727
525.345828511279	1753
528.11883579849	1744
530.890916844655	1734
533.662072302668	1748
536.432302823985	1732
539.201609058684	1778
541.96999165542	1784
544.737451261473	1735
547.503988522723	1762
550.26960408366	1784
553.034298587394	1773
555.798072675669	1786
558.560926988819	1829
561.322862165849	1769
564.083878844369	1800
566.843977660654	1849
569.603159249604	1826
572.361424244769	1804
575.118773278369	1847
577.87520698124	1824
580.630725982905	1834
583.385330911566	1835
586.139022394076	1822
588.891801055954	1825
591.643667521406	1834
594.394622413318	1796
597.144666353273	1807
599.893799961512	1783
602.64202385701	1821
605.389338657413	1850
608.135744979089	1836
610.881243437092	1817
613.625834645191	1825
616.369519215881	1828
619.112297760374	1819
621.854170888604	1915
624.595139209225	1983
627.335203329614	2186
630.074363855914	2274
632.81262139299	2222
635.549976544436	2086
638.286429912612	1948
641.021982098635	1903
643.756633702364	1809
646.49038532241	1864
649.223237556176	1924
651.955190999808	1852
654.686246248224	1856
657.416403895135	1857
660.145664533011	1851
662.874028753133	1863
665.601497145537	1862
668.328070299071	1871
671.05374880138	1897
673.778533238885	1901
676.502424196839	1846
679.225422259297	1891
681.947528009099	1901
684.668742027927	1897
687.389064896281	1912
690.108497193465	1882
692.827039497621	1928
695.544692385724	1945
698.261456433585	1999
700.977332215847	1994
703.692320305981	2038
706.406421276337	1960
709.11963569808	1971
711.831964141256	1941
714.54340717474	1908
717.253965366304	1869
719.963639282552	1920
722.672429488961	1880
725.380336549904	1982
728.087361028596	1959
730.793503487166	1919
733.498764486594	1966
736.203144586758	1992
738.906644346447	1972
741.60926432331	1975
744.311005073912	1994
747.011867153727	1999
749.711851117121	1955
752.410957517375	1969
755.109186906677	2047
757.806539836132	1985
760.503016855779	1995
763.198618514551	1969
765.893345360346	2005
768.587197939964	2022
771.28017679914	2052
773.972282482566	1980
776.663515533859	2078
779.353876495581	2051
782.043365909241	2004
784.731984315327	2063
787.419732253235	2095
790.106610261366	2160
792.792618877058	2148
795.477758636618	2139
798.162030075313	2137
800.845433727423	2109
803.52797012615	2070
806.209639803714	2105
808.890443291304	2142
811.570381119098	2206
814.249453816265	2156
816.927661910959	2138
819.60500593036	2169
822.281486400603	2172
824.957103846864	2148
827.631858793316	2185
830.305751763135	2197
832.978783278519	2234
835.650953860677	2210
838.322264029848	2228
840.992714305292	2271
843.662305205289	2308
846.331037247157	2424
848.998910947241	2539
851.665926820933	2672
854.332085382674	2860
856.997387145915	2885
859.661832623191	2880
862.325422326066	2719
864.988156765172	2570
867.650036450181	2398
870.311061889846	2328
872.971233591961	2315
875.630552063409	2264
878.28901781013	2234
880.946631337138	2236
883.603393148533	2280
886.259303747484	2246
888.914363636246	2238
891.568573316155	2235
894.22193328767	2220
896.874444050281	2229
899.526106102625	2237
902.176919942416	2213
904.826886066483	2200
907.476004970747	2266
910.124277150255	2275
912.77170309913	2247
915.418283310642	2281
918.064018277175	2240
920.708908490222	2249
923.352954440405	2258
925.996156617486	2267
928.638515510334	2285
931.280031606966	2277
933.920705394521	2267
936.560537359303	2323
939.199527986737	2264
941.837677761392	2291
944.474987167006	2320
947.111456686438	2285
949.747086801734	2307
952.38187799407	2284
955.015830743792	2287
957.648945530418	2344
960.281222832633	2345
962.91266312826	2275
965.543266894336	2321
968.173034607058	2343
970.801966741779	2349
973.43006377307	2326
976.057326174661	2363
978.683754419471	2365
981.309348979623	2387
983.93411032642	2444
986.558038930361	2453
989.181135261144	2472
991.803399787692	2510
994.424832978086	2485
997.045435299653	2559
999.665207218906	2540
1002.2841492016	2560
1004.90226171266	2547
1007.51954521628	2467
1010.13600017584	2505
1012.75162705397	2467
1015.3664263125	2469
1017.9803984125	2463
1020.5935438143	2466
1023.20586297741	2507
1025.81735636063	2512
1028.42802442196	2546
1031.03786761869	2489
1033.64688640732	2506
1036.2550812436	2512
1038.86245258255	2516
1041.46900087844	2479
1044.07472658479	2518
1046.67963015438	2539
1049.28371203927	2498
1051.88697269075	2524
1054.48941255943	2489
1057.09103209513	2604
1059.691831747	2570
1062.29181196343	2581
1064.89097319211	2609
1067.48931587999	2618
1070.08684047333	2565
1072.68354741766	2575
1075.27943715779	2598
1077.87451013787	2657
1080.46876680127	2712
1083.06220759071	2670
1085.65483294822	2737
1088.24664331509	2877
1090.83763913194	2948
1093.42782083869	3043
1096.01718887459	2994
1098.60574367818	2875
1101.19348568732	2922
1103.78041533919	2854
1106.3665330703	2832
1108.95183931646	2873
1111.53633451284	2839
1114.12001909391	2846
1116.70289349349	2902
1119.2849581447	2922
1121.86621348005	2852
1124.44665993134	2780
1127.02629792973	2769
1129.60512790574	2771
1132.18315028919	2781
1134.76036550929	2706
1137.3367739946	2685
1139.912376173	2702
1142.48717247176	2743
1145.06116331748	2694
1147.63434913616	2692
1150.20673035312	2650
1152.77830739307	2703
1155.34908068007	2723
1157.91905063757	2703
1160.48821768838	2638
1163.05658225471	2641
1165.6241447581	2767
1168.19090561951	2773
1170.75686525927	2739
1173.32202409708	2805
1175.88638255206	2801
1178.44994104269	2886
1181.01269998684	2813
1183.57465980182	2833
1186.13582090427	2841
1188.69618371026	2719
1191.25574863529	2743
1193.8145160942	2731
1196.37248650129	2742
1198.92966027025	2674
1201.48603781416	2689
1204.04161954556	2644
1206.59640587635	2697
1209.15039721788	2675
1211.70359398092	2677
1214.25599657564	2677
1216.80760541166	2673
1219.35842089801	2734
1221.90844344314	2716
1224.45767345496	2699
1227.00611134077	2725
1229.55375750736	2762
1232.10061236092	2700
1234.64667630707	2762
1237.1919497509	2744
1239.73643309692	2781
1242.28012674912	2796
1244.82303111089	2772
1247.36514658511	2806
1249.9064735741	2850
1252.44701247964	2839
1254.98676370294	2838
1257.52572764469	2918
1260.06390470506	2939
1262.60129528365	3054
1265.13789977954	2986
1267.67371859128	3100
1270.20875211688	3223
1272.74300075384	3310
1275.2764648991	3361
1277.80914494911	3460
1280.34104129978	3574
1282.87215434652	3631
1285.40248448419	3681
1287.93203210715	3733
1290.46079760927	3767
1292.98878138385	3802
1295.51598382375	3628
1298.04240532127	3451
1300.56804626822	3344
1303.09290705593	3328
1305.6169880752	3260
1308.14028971632	3160
1310.66281236913	3155
1313.18455642292	3114
1315.70552226653	3158
1318.22571028829	3051
1320.74512087603	3000
1323.26375441711	3053
1325.7816112984	3048
1328.29869190629	3020
1330.81499662666	2966
1333.33052584497	3042
1335.84527994613	3080
1338.35925931464	3101
1340.87246433446	3024
1343.38489538916	3016
1345.89655286177	3082
1348.40743713487	3118
1350.91754859059	3048
1353.42688761059	3011
1355.93545457606	3084
1358.44324986772	3101
1360.95027386588	3185
1363.45652695032	3069
1365.96200950042	3079
1368.4667218951	3119
1370.97066451281	3084
1373.47383773156	3114
1375.97624192891	3136
1378.47787748199	3162
1380.97874476746	3148
1383.47884416157	3069
1385.97817604009	3008
1388.4767407784	3098
1390.9745387514	3120
1393.47157033358	3071
1395.96783589898	3173
1398.46333582124	3127
1400.95807047354	3113
1403.45204022864	3157
1405.94524545889	3105
1408.4376865362	3159
1410.92936383205	3243
1413.42027771752	3340
1415.91042856328	3235
1418.39981673955	3216
1420.88844261615	3160
1423.37630656249	3212
1425.86340894757	3122
1428.34975013999	3091
1430.83533050792	3178
1433.32015041912	3245
1435.80421024098	3244
1438.28751034045	3191
1440.77005108411	3231
1443.25183283812	3275
1445.73285596824	3278
1448.21312083984	3274
1450.69262781791	3257
1453.17137726702	3344
1455.64936955137	3394
1458.12660503477	3357
1460.60308408063	3309
1463.07880705197	3310
1465.55377431145	3347
1468.02798622133	3339
1470.50144314348	3349
1472.97414543941	3328
1475.44609347024	3377
1477.91728759673	3362
1480.38772817924	3313
1482.85741557777	3320
1485.32635015194	3308
1487.79453226103	3294
1490.26196226391	3319
1492.72864051911	3300
1495.1945673848	3258
1497.65974321874	3362
1500.1241683784	3363
1502.58784322083	3263
1505.05076810274	3233
1507.51294338049	3342
1509.97436941009	3334
1512.43504654717	3357
1514.89497514704	3308
1517.35415556462	3325
1519.81258815451	3329
1522.27027327095	3307
1524.72721126784	3283
1527.18340249874	3318
1529.63884731684	3361
1532.09354607502	3348
1534.5474991258	3375
1537.00070682136	3377
1539.45316951355	3384
1541.90488755388	3471
1544.35586129353	3397
1546.80609108336	3377
1549.25557727385	3412
1551.70432021519	3524
1554.15232025725	3449
1556.59957774953	3506
1559.04609304125	3523
1561.49186648127	3481
1563.93689841815	3505
1566.38118920011	3488
1568.82473917506	3430
1571.2675486906	3501
1573.70961809399	3650
1576.15094773219	3571
1578.59153795184	3567
1581.03138909928	3595
1583.47050152051	3643
1585.90887556123	3627
1588.34651156686	3621
1590.78340988246	3710
1593.21957085283	3727
1595.65499482245	3860
1598.08968213547	3920
1600.52363313578	4084
1602.95684816694	4546
1605.38932757224	5038
1607.82107169462	5933
1610.25208087677	6611
1612.68235546107	7384
1615.1118957896	7178
1617.54070220415	6225
1619.96877504621	5097
1622.39611465701	4327
1624.82272137746	4043
1627.24859554818	3783
1629.67373750953	3740
1632.09814760155	3728
1634.52182616404	3613
1636.94477353647	3679
1639.36699005806	3613
1641.78847606776	3688
1644.20923190418	3541
1646.62925790573	3606
1649.04855441048	3658
1651.46712175628	3680
1653.88496028066	3611
1656.3020703209	3653
1658.71845221401	3649
1661.13410629671	3668
1663.54903290547	3605
1665.96323237649	3652
1668.37670504571	3709
1670.78945124877	3777
1673.20147132109	3750
1675.61276559779	3707
1678.02333441377	3715
1680.43317810362	3749
1682.84229700171	3893
1685.25069144213	3772
1687.65836175872	3816
1690.06530828507	3820
1692.47153135451	3912
1694.87703130009	3850
1697.28180845467	3924
1699.6858631508	3903
1702.08919572081	3931
1704.49180649676	4154
1706.89369581049	4070
1709.29486399355	4214
1711.69531137731	4404
1714.09503829282	4639
1716.49404507095	4873
1718.89233204229	5094
1721.28989953721	5467
1723.68674788581	5805
1726.08287741798	6025
1728.47828846338	5815
1730.87298135139	5526
1733.26695641119	5265
1735.66021397173	5064
1738.05275436169	4798
1740.44457790954	4582
1742.83568494354	4388
1745.22607579168	4266
1747.61575078175	4190
1750.00471024128	4025
1752.39295449761	4021
1754.78048387783	4007
1757.16729870881	4063
1759.5533993172	4106
1761.93878602942	3957
1764.32345917168	3975
1766.70741906995	4017
1769.09066604999	3999
1771.47320043735	3994
1773.85502255735	4063
1776.2361327351	3987
1778.61653129548	4017
1780.99621856318	4106
1783.37519486264	4033
1785.75346051813	4068
1788.13101585368	4064
1790.5078611931	4142
1792.88399686002	4094
1795.25942317785	4084
1797.63414046977	4163
1800.00814905878	4173
1802.38144926766	4118
1804.75404141898	4076
1807.12592583514	4075
1809.49710283829	4267
1811.86757275039	4151
1814.23733589322	4096
1816.60639258834	4100
1818.97474315712	4129
1821.34238792073	4243
1823.70932720012	4115
1826.07556131608	4227
1828.44109058918	4146
1830.8059153398	4194
1833.17003588812	4121
1835.53345255413	4203
1837.89616565765	4109
1840.25817551827	4175
1842.61948245541	4191
1844.9800867883	4116
1847.33998883598	4168
1849.69918891729	4120
1852.05768735091	4236
1854.4154844553	4198
1856.77258054875	4194
1859.12897594938	4250
1861.4846709751	4202
1863.83966594366	4222
1866.19396117261	4305
1868.54755697932	4202
1870.90045368099	4213
1873.25265159463	4234
1875.60415103708	4319
1877.95495232501	4322
1880.30505577486	4295
1882.65446170299	4414
1885.00317042548	4335
1887.35118225832	4430
1889.69849751726	4422
1892.04511651792	4376
1894.39103957574	4392
1896.73626700596	4532
1899.08079912368	4514
1901.42463624384	4431
1903.76777868116	4446
1906.11022675025	4524
1908.4519807655	4412
1910.79304104117	4510
1913.13340789134	4561
1915.47308162992	4439
1917.81206257067	4509
1920.15035102718	4561
1922.48794731286	4462
1924.82485174096	4533
1927.16106462461	4537
1929.49658627672	4631
1931.83141701008	4613
1934.1655571373	4520
1936.49900697085	4550
1938.83176682301	4617
1941.16383700594	4633
1943.49521783161	4508
1945.82590961186	4539
1948.15591265835	4583
1950.48522728262	4625
1952.81385379602	4567
1955.14179250976	4610
1957.46904373489	4574
1959.79560778233	4524
1962.12148496284	4686
1964.44667558701	4643
1966.77117996529	4618
1969.09499840799	4600
1971.41813122527	4584
1973.74057872714	4649
1976.06234122345	4627
1978.38341902391	4662
1980.7038124381	4594
1983.02352177543	4697
1985.34254734518	4785
1987.66088945649	4753
1989.97854841833	4667
1992.29552453956	4784
1994.61181812887	4831
1996.92742949483	4780
1999.24235894586	4753
2001.55660679023	4827
2003.87017333608	4886
2006.18305889143	4861
2008.49526376413	4884
2010.80678826189	4854
2013.1176326923	4838
2015.42779736282	4871
2017.73728258075	5002
2020.04608865326	4895
2022.3542158874	4813
2024.66166459008	4910
2026.96843506807	4968
2029.274527628	4974
2031.57994257637	4976
2033.88468021957	4973
2036.18874086383	5065
2038.49212481526	4995
2040.79483237983	5039
2043.0968638634	4950
2045.39821957169	5018
2047.69889981028	5141
2049.99890488462	5048
2052.29823510006	5026
2054.59689076181	4936
2056.89487217492	4969
2059.19217964437	5118
2061.48881347497	5088
2063.7847739714	5112
2066.08006143826	5077
2068.37467618	5002
2070.66861850093	5118
2072.96188870527	5140
2075.25448709707	5200
2077.54641398031	5211
2079.83766965881	5114
2082.12825443629	5103
2084.41816861634	5191
2086.70741250242	5045
2088.99598639789	5158
2091.28389060597	5254
2093.57112542978	5164
2095.85769117232	5132
2098.14358813644	5132
2100.42881662491	5107
2102.71337694037	5220
2104.99726938532	5242
2107.28049426219	5180
2109.56305187325	5210
2111.84494252069	5290
2114.12616650655	5237
2116.40672413278	5213
2118.68661570121	5183
2120.96584151355	5316
2123.24440187138	5275
2125.52229707622	5514
2127.79952742943	5340
2130.07609323227	5341
2132.35199478588	5390
2134.62723239132	5468
2136.90180634949	5393
2139.17571696123	5509
2141.44896452723	5418
2143.72154934809	5474
2145.99347172429	5473
2148.26473195623	5496
2150.53533034415	5463
2152.80526718821	5557
2155.07454278848	5485
2157.3431574449	5574
2159.61111145728	5623
2161.87840512538	5672
2164.1450387488	5599
2166.41101262707	5585
2168.67632705959	5674
2170.94098234567	5637
2173.20497878451	5556
2175.46831667519	5673
2177.73099631672	5694
2179.99301800797	5645
2182.25438204772	5719
2184.51508873466	5618
2186.77513836735	5794
2189.03453124427	5687
2191.29326766378	5709
2193.55134792416	5676
2195.80877232355	5722
2198.06554116004	5718
2200.32165473157	5690
2202.577113336	5702
2204.83191727111	5735
2207.08606683453	5680
2209.33956232384	5726
2211.59240403648	5728
2213.84459226982	5803
2216.09612732112	5734
2218.34700948753	5850
2220.59723906612	5783
2222.84681635385	5882
2225.09574164758	5753
2227.34401524408	5789
2229.59163744002	5801
2231.83860853197	5891
2234.08492881639	5913
2236.33059858968	5832
2238.5756181481	5896
2240.81998778784	5913
2243.06370780499	5855
2245.30677849555	5888
2247.54920015539	5906
2249.79097308033	5981
2252.03209756607	5946
2254.27257390822	5909
2256.51240240228	5880
2258.75158334369	5896
2260.99011702777	5933
2263.22800374976	5965
2265.46524380477	5975
2267.70183748786	6042
2269.93778509399	5986
2272.17308691801	5997
2274.40774325467	6050
2276.64175439866	6036
2278.87512064454	6072
2281.10784228682	6014
2283.33991961987	6091
2285.571352938	5970
2287.80214253541	6085
2290.03228870623	6089
2292.26179174449	6101
2294.4906519441	6037
2296.71886959892	6184
2298.9464450027	6181
2301.1733784491	6124
2303.39967023169	6122
2305.62532064395	6091
2307.85032997926	6128
2310.07469853093	6144
2312.29842659216	6112
2314.52151445608	6247
2316.7439624157	6145
2318.96577076397	6244
2321.18693979374	6234
2323.40746979777	6216
2325.62736106873	6166
2327.8466138992	6222
2330.06522858166	6249
2332.28320540853	6326
2334.50054467212	6311
2336.71724666465	6170
2338.93331167827	6284
2341.14874000501	6288
2343.36353193685	6297
2345.57768776564	6225
2347.79120778319	6230
2350.00409228117	6315
2352.21634155121	6313
2354.42795588482	6272
2356.63893557342	6317
2358.84928090838	6256
2361.05899218094	6337
2363.26806968228	6462
2365.47651370347	6318
2367.68432453552	6389
2369.89150246933	6297
2372.09804779571	6315
2374.30396080541	6423
2376.50924178907	6389
2378.71389103725	6308
2380.91790884042	6406
2383.12129548897	6307
2385.3240512732	6437
2387.52617648332	6404
2389.72767140946	6378
2391.92853634165	6321
2394.12877156985	6289
2396.32837738392	6453
2398.52735407365	6375
2400.72570192873	6313
2402.92342123875	6358
2405.12051229325	6345
2407.31697538167	6240
2409.51281079333	6335
2411.70801881751	6373
2413.90259974339	6369
2416.09655386004	6411
2418.28988145648	6417
2420.48258282162	6379
2422.6746582443	6405
2424.86610801325	6497
2427.05693241713	6386
2429.24713174452	6483
2431.43670628389	6437
2433.62565632365	6424
2435.81398215212	6456
2438.00168405752	6330
2440.18876232799	6439
2442.37521725158	6429
2444.56104911628	6427
2446.74625820994	6387
2448.93084482038	6404
2451.1148092353	6439
2453.29815174233	6446
2455.480872629	6398
2457.66297218275	6389
2459.84445069097	6390
2462.02530844092	6499
2464.2055457198	6414
2466.38516281471	6378
2468.56416001267	6351
2470.74253760061	6458
2472.92029586537	6440
2475.09743509372	6424
2477.27395557232	6342
2479.44985758777	6415
2481.62514142655	6418
2483.79980737508	6441
2485.97385571969	6479
2488.14728674661	6371
2490.32010074198	6476
2492.49229799188	6428
2494.66387878228	6545
2496.83484339905	6449
2499.00519212802	6543
2501.17492525488	6491
2503.34404306528	6515
2505.51254584473	6526
2507.6804338787	6580
2509.84770745254	6567
2512.01436685153	6571
2514.18041236085	6522
2516.34584426561	6586
2518.51066285081	6558
2520.67486840138	6567
2522.83846120214	6692
2525.00144153784	6629
2527.16380969314	6757
2529.32556595261	6747
2531.48671060072	6638
2533.64724392186	6745
2535.80716620033	6715
2537.96647772034	6665
2540.12517876602	6799
2542.2832696214	6787
2544.44075057041	6680
2546.59762189691	6747
2548.75388388466	6702
2550.90953681735	6725
2553.06458097853	6782
2555.21901665172	6763
2557.37284412031	6848
2559.5260636676	6758
2561.67867557684	6754
2563.83068013113	6638
2565.98207761351	6734
2568.13286830695	6769
2570.28305249429	6725
2572.43263045829	6715
2574.58160248163	6771
2576.72996884689	6637
2578.87772983655	6749
2581.02488573303	6758
2583.1714368186	6637
2585.31738337549	6617
2587.46272568582	6786
2589.60746403161	6814
2591.75159869479	6751
2593.89512995722	6722
2596.03805810061	6850
2598.18038340665	6861
2600.32210615686	6757
2602.46322663274	6781
2604.60374511563	6750
2606.74366188683	6779
2608.88297722751	6830
2611.02169141875	6787
2613.15980474156	6799
2615.29731747681	6916
2617.43422990532	6820
2619.57054230779	6829
2621.70625496483	6899
2623.84136815694	6863
2625.97588216456	6883
2628.10979726799	6900
2630.24311374746	7004
2632.3758318831	6917
2634.50795195493	6988
2636.6394742429	6932
2638.77039902682	6992
2640.90072658645	6992
2643.0304572014	6994
2645.15959115123	7002
2647.28812871538	7070
2649.41607017319	7068
2651.5434158039	7016
2653.67016588665	7083
2655.79632070049	7127
2657.92188052436	7089
2660.04684563711	7057
2662.17121631749	7166
2664.29499284413	7103
2666.41817549558	7181
2668.54076455027	7108
2670.66276028656	7130
2672.78416298267	7088
2674.90497291675	7057
2677.02519036682	7128
2679.14481561082	7190
2681.26384892658	7132
2683.38229059182	7151
2685.50014088417	7214
2687.61740008114	7249
2689.73406846017	7308
2691.85014629854	7228
2693.96563387347	7190
2696.08053146206	7292
2698.1948393413	7177
2700.3085577881	7208
2702.42168707924	7389
2704.53422749139	7315
2706.64617930112	7313
2708.75754278492	7491
2710.86831821913	7282
2712.97850588002	7351
2715.08810604372	7404
2717.19711898628	7332
2719.30554498363	7378
2721.41338431158	7396
2723.52063724586	7408
2725.62730406206	7414
2727.73338503569	7376
2729.83888044213	7498
2731.94379055664	7439
2734.04811565441	7528
2736.15185601048	7585
2738.25501189979	7601
2740.35758359718	7555
2742.45957137738	7547
2744.56097551499	7575
2746.6617962845	7635
2748.7620339603	7524
2750.86168881666	7654
2752.96076112774	7673
2755.05925116758	7699
2757.15715921012	7731
2759.25448552917	7761
2761.35123039843	7683
2763.44739409148	7766
2765.5429768818	7733
2767.63797904275	7755
2769.73240084756	7825
2771.82624256934	7858
2773.91950448113	7922
2776.01218685579	7848
2778.10428996609	7866
2780.19581408469	7880
2782.28675948414	7914
2784.37712643683	8033
2786.46691521507	8091
2788.55612609104	7958
2790.64475933678	7891
2792.73281522425	8026
2794.82029402525	7999
2796.90719601149	7957
2798.99352145453	7962
2801.07927062583	7991
2803.16444379672	8026
2805.24904123841	8110
2807.33306322197	8076
2809.41651001838	8054
2811.49938189847	8116
2813.58167913296	8238
2815.66340199243	8194
2817.74455074734	8300
2819.82512566805	8125
2821.90512702475	8106
2823.98455508754	8226
2826.06341012637	8252
2828.14169241109	8317
2830.2194022114	8387
2832.29653979686	8227
2834.37310543694	8402
2836.44909940096	8428
2838.5245219581	8346
2840.59937337744	8355
2842.67365392791	8346
2844.74736387829	8466
2846.82050349727	8525
2848.8930730534	8478
2850.96507281506	8476
2853.03650305056	8493
2855.10736402802	8589
2857.17765601545	8689
2859.24737928074	8663
2861.31653409164	8739
2863.38512071574	8686
2865.45313942054	8796
2867.52059047335	8725
2869.58747414139	8925
2871.65379069173	8921
2873.7195403913	8812
2875.78472350688	8802
2877.84934030515	8959
2879.91339105262	8955
2881.97687601567	9116
2884.03979546053	9051
2886.10214965332	9036
2888.16393886	9070
2890.22516334639	9286
2892.28582337816	9186
2894.34591922087	9280
2896.40545113992	9171
2898.46441940054	9227
2900.52282426787	9209
2902.58066600687	9417
2904.63794488237	9439
2906.69466115906	9314
2908.75081510147	9543
2910.806406974	9518
2912.8614370409	9527
2914.91590556626	9483
2916.96981281404	9510
2919.02315904807	9425
2921.07594453199	9589
2923.12816952932	9535
2925.17983430343	9545
2927.23093911753	9598
2929.28148423469	9531
2931.33146991782	9634
2933.3808964297	9517
2935.42976403294	9724
2937.47807299	9668
2939.5258235632	9687
2941.57301601469	9605
2943.61965060648	9675
2945.66572760042	9877
2947.71124725823	9924
2949.75620984143	9959
2951.80061561143	10002
2953.84446482945	9932
2955.88775775656	10012
2957.9304946537	10221
2959.97267578162	10219
2962.01430140095	10321
2964.05537177211	10411
2966.09588715541	10285
2968.13584781097	10479
2970.17525399875	10530
2972.21410597859	10271
2974.25240401011	10317
2976.29014835283	10408
2978.32733926604	10378
2980.36397700892	10473
2982.40006184049	10340
2984.43559401955	10388
2986.4705738048	10518
2988.50500145473	10602
2990.53887722771	10582
2992.57220138189	10634
2994.6049741753	10611
2996.63719586576	10880
2998.66886671097	10778
3000.69998696843	10757
3002.73055689549	10952
3004.7605767493	10810
3006.79004678688	10863
3008.81896726505	10954
3010.84733844048	10815
3012.87516056966	11056
3014.9024339089	11023
3016.92915871433	10865
3018.95533524196	10939
3020.98096374756	11155
3023.00604448675	11194
3025.030577715	11046
3027.05456368757	11199
3029.07800265956	11009
3031.10089488589	11157
3033.12324062131	11368
3035.14504012038	11394
3037.16629363749	11395
3039.18700142685	11404
3041.20716374249	11351
3043.22678083826	11310
3045.24585296782	11500
3047.26438038468	11385
3049.28236334212	11457
3051.29980209329	11601
3053.31669689111	11539
3055.33304798835	11691
3057.34885563757	11866
3059.36412009117	11749
3061.37884160134	11857
3063.39302042011	11944
3065.40665679931	12169
3067.41975099058	12156
3069.43230324538	12294
3071.44431381495	12359
3073.45578295041	12465
3075.46671090261	12601
3077.47709792227	12826
3079.48694425989	12999
3081.49625016578	12837
3083.50501589008	12962
3085.5132416827	12860
3087.5209277934	12791
3089.52807447169	12579
3091.53468196695	12437
3093.54075052832	12197
3095.54628040476	12366
3097.55127184503	12305
3099.55572509769	12424
3101.55964041111	12307
3103.56301803346	12310
3105.5658582127	12244
3107.56816119661	12433
3109.56992723275	12501
3111.57115656849	12523
3113.571849451	12526
3115.57200612724	12365
3117.57162684397	12592
3119.57071184775	12722
3121.56926138493	12686
3123.56727570166	12714
3125.56475504389	12717
3127.56169965735	12605
3129.55810978757	12959
3131.55398567987	12936
3133.54932757937	12968
3135.54413573099	12916
3137.53841037939	12849
3139.53215176909	12970
3141.52536014435	13014
3143.51803574924	13189
3145.51017882762	13157
3147.50178962311	13168
3149.49286837916	13198
3151.48341533897	13093
3153.47343074553	13346
3155.46291484164	13392
3157.45186786985	13396
3159.44029007252	13211
3161.42818169179	13409
3163.41554296955	13636
3165.40237414753	13501
3167.38867546718	13442
3169.37444716975	13404
3171.35968949631	13497
3173.34440268764	13712
3175.32858698436	13666
3177.31224262682	13691
3179.29536985517	13722
3181.27796890934	13416
3183.26004002902	13693
3185.24158345368	13838
3187.22259942256	13905
3189.2030881747	13882
3191.18304994886	13840
3193.16248498363	13967
3195.14139351733	14144
3197.11977578807	14073
3199.09763203371	14132
3201.07496249191	14083
3203.05176740007	14007
3205.02804699537	14064
3207.00380151475	14193
3208.97903119493	14346
3210.95373627238	14326
3212.92791698335	14373
3214.90157356383	14415
3216.8747062496	14383
3218.84731527619	14633
3220.81940087889	14731
3222.79096329275	14740
3224.76200275259	14456
3226.73251949298	14870
3228.70251374825	14984
3230.67198575251	14768
3232.64093573959	14749
3234.6093639431	15016
3236.57727059641	14852
3238.54465593261	15210
3240.51152018461	15296
3242.47786358502	15257
3244.44368636621	15089
3246.40898876031	15239
3248.37377099923	15307
3250.33803331458	15314
3252.30177593775	15401
3254.26499909987	15463
3256.22770303184	15300
3258.18988796427	15345
3260.15155412755	15427
3262.1127017518	15610
3264.0733310669	15720
3266.03344230246	15536
3267.99303568784	15707
3269.95211145215	15466
3271.91066982422	15881
3273.86871103267	15873
3275.82623530581	15785
3277.7832428717	15769
3279.73973395818	15471
3281.69570879278	15909
3283.6511676028	16120
3285.60611061527	15984
3287.56053805694	15950
3289.51445015432	15793
3291.46784713364	15850
3293.42072922088	16266
3295.37309664173	16415
3297.32494962163	16108
3299.27628838575	16009
3301.227113159	16081
3303.17742416601	16260
3305.12722163114	16243
3307.07650577848	16224
3309.02527683185	16371
3310.9735350148	16204
3312.9212805506	16575
3314.86851366225	16435
3316.81523457249	16642
3318.76144350377	16819
3320.70714067825	16475
3322.65232631783	16240
3324.59700064415	16484
3326.54116387854	16543
3328.48481624207	16723
3330.42795795551	16842
3332.37058923938	16332
3334.31271031389	16496
3336.25432139898	16573
3338.19542271432	16787
3340.13601447927	16860
3342.07609691292	16693
3344.01567023407	16598
3345.95473466124	16650
3347.89329041266	17127
3349.83133770627	16985
3351.76887675973	16882
3353.70590779039	16652
3355.64243101534	16695
3357.57844665135	16833
3359.51395491492	17146
3361.44895602224	17071
3363.38345018922	17125
3365.31743763148	16909
3367.25091856432	16858
3369.18389320278	16974
3371.11636176156	17293
3373.0483244551	17282
3374.97978149754	17278
3376.91073310269	17081
3378.84117948409	17194
3380.77112085498	17519
3382.70055742826	17760
3384.62948941659	17532
3386.55791703227	17192
3388.48584048733	17233
3390.41325999348	17514
3392.34017576214	17938
3394.2665880044	17793
3396.19249693107	17798
3398.11790275263	17554
3400.04280567926	17552
3401.96720592084	18071
3403.89110368692	17939
3405.81449918675	18111
3407.73739262928	17743
3409.65978422311	17823
3411.58167417658	17839
3413.50306269768	18033
3415.42394999408	18208
3417.34433627316	18139
3419.26422174195	17991
3421.18360660721	17974
3423.10249107532	17791
3425.02087535239	18094
3426.93875964421	18312
3428.8561441562	18380
3430.77302909353	17944
3432.68941466097	17904
3434.60530106301	18113
3436.52068850383	18185
3438.43557718726	18505
3440.34996731681	18198
3442.26385909565	18087
3444.17725272664	17958
3446.09014841231	18312
3448.00254635486	18299
3449.91444675614	18585
3451.82584981771	18039
3453.73675574076	17994
3455.64716472616	18034
3457.55707697445	18321
3459.46649268584	18389
3461.37541206018	18366
3463.28383529703	18358
3465.19176259555	18246
3467.09919415464	18342
3469.00613017278	18398
3470.91257084817	18624
3472.81851637863	18310
3474.72396696168	18241
3476.62892279446	18103
3478.53338407379	18379
3480.43735099614	18474
3482.34082375764	18596
3484.24380255404	18253
3486.1462875808	18193
3488.048279033	18382
3489.94977710537	18426
3491.85078199231	18615
3493.75129388783	18583
3495.65131298566	18188
3497.5508394791	18030
3499.44987356115	18396
