200.090469251518	794
202.974751419362	771
205.858021632263	784
208.740280737522	768
211.621529580443	777
214.501769004371	788
217.380999850626	779
220.25922295859	776
223.136439165646	777
226.012649307235	768
228.88785421682	772
231.762054725918	788
234.635251664113	770
237.507445859021	770
240.378638136346	782
243.248829319855	762
246.11802023137	772
248.986211690826	797
251.853404516227	746
254.719599523654	770
257.584797527335	766
260.44899933954	773
263.312205770682	768
266.174417629303	782
269.035635722015	773
271.895860853609	791
274.755093826978	764
277.613335443144	778
280.470586501309	787
283.326847798766	783
286.182120131019	786
289.036404291684	781
291.889701072574	784
294.742011263643	791
297.593335653048	787
300.443675027094	785
303.293030170295	780
306.141401865367	773
308.988790893174	790
311.835198032837	782
314.680624061635	804
317.525069755113	798
320.36853588697	783
323.211023229178	782
326.052532551923	789
328.893064623604	799
331.732620210885	782
334.57120007867	785
337.408804990093	795
340.245435706565	787
343.081092987733	793
345.915777591523	799
348.749490274145	802
351.582231790049	803
354.414002891997	806
357.244804331021	831
360.074636856443	820
362.903501215886	807
365.731398155265	813
368.558328418814	813
371.384292749062	813
374.209291886869	817
377.033326571407	831
379.85639754017	831
382.678505529009	829
385.499651272065	831
388.319835501872	835
391.139058949258	829
393.957322343453	827
396.774626412011	816
399.590971880847	820
402.406359474258	823
405.220789914893	808
408.034263923801	840
410.8467822204	833
413.658345522483	840
416.468954546242	823
419.278610006277	850
422.087312615557	847
424.895063085503	832
427.701862125901	861
430.507710444981	843
433.312608749366	842
436.116557744146	845
438.919558132791	838
441.721610617238	851
444.522715897856	865
447.322874673457	827
450.122087641299	846
452.920355497092	842
455.717678935009	853
458.514058647681	845
461.309495326219	847
464.103989660191	842
466.89754233765	848
469.690154045114	836
472.481825467625	833
475.272557288674	853
478.062350190281	832
480.851204852952	818
483.639121955683	864
486.426102176007	840
489.212146189955	864
491.997254672093	871
494.781428295471	856
497.564667731716	872
500.346973650958	843
503.128346721878	877
505.90878761169	877
508.688296986151	861
511.46687550957	865
514.244523844831	853
517.021242653354	880
519.797032595132	840
522.571894328732	855
525.345828511279	867
528.11883579849	842
530.890916844655	853
533.662072302668	859
536.432302823985	874
539.201609058684	877
541.96999165542	862
544.737451261473	861
547.503988522723	854
550.26960408366	858
553.034298587394	841
555.798072675669	844
558.560926988819	869
561.322862165849	859
564.083878844369	854
566.843977660654	880
569.603159249604	866
572.361424244769	858
575.118773278369	851
577.87520698124	849
580.630725982905	869
583.385330911566	876
586.139022394076	910
588.891801055954	882
591.643667521406	848
594.394622413318	871
597.144666353273	876
599.893799961512	870
602.64202385701	856
605.389338657413	861
608.135744979089	867
610.881243437092	883
613.625834645191	857
616.369519215881	862
619.112297760374	859
621.854170888604	869
624.595139209225	838
627.335203329614	868
630.074363855914	887
632.81262139299	849
635.549976544436	856
638.286429912612	877
641.021982098635	878
643.756633702364	865
646.49038532241	867
649.223237556176	861
651.955190999808	882
654.686246248224	880
657.416403895135	862
660.145664533011	890
662.874028753133	879
665.601497145537	886
668.328070299071	881
671.05374880138	870
673.778533238885	866
676.502424196839	915
679.225422259297	881
681.947528009099	918
684.668742027927	910
687.389064896281	898
690.108497193465	874
692.827039497621	879
695.544692385724	907
698.261456433585	882
700.977332215847	887
703.692320305981	895
706.406421276337	911
709.11963569808	909
711.831964141256	894
714.54340717474	904
717.253965366304	915
719.963639282552	889
722.672429488961	913
725.380336549904	885
728.087361028596	902
730.793503487166	894
733.498764486594	907
736.203144586758	922
738.906644346447	926
741.60926432331	899
744.311005073912	908
747.011867153727	921
749.711851117121	921
752.410957517375	927
755.109186906677	935
757.806539836132	907
760.503016855779	927
763.198618514551	931
765.893345360346	925
768.587197939964	921
771.28017679914	917
773.972282482566	911
776.663515533859	925
779.353876495581	934
782.043365909241	918
784.731984315327	935
787.419732253235	929
790.106610261366	925
792.792618877058	938
795.477758636618	925
798.162030075313	941
800.845433727423	946
803.52797012615	913
806.209639803714	959
808.890443291304	938
811.570381119098	923
814.249453816265	918
816.927661910959	941
819.60500593036	957
822.281486400603	956
824.957103846864	961
827.631858793316	959
830.305751763135	964
832.978783278519	985
835.650953860677	977
838.322264029848	964
840.992714305292	989
843.662305205289	979
846.331037247157	961
848.998910947241	957
851.665926820933	979
854.332085382674	966
856.997387145915	959
859.661832623191	1005
862.325422326066	985
864.988156765172	995
867.650036450181	986
870.311061889846	993
872.971233591961	984
875.630552063409	981
878.28901781013	1013
880.946631337138	1012
883.603393148533	998
886.259303747484	1008
888.914363636246	986
891.568573316155	1010
894.22193328767	979
896.874444050281	1004
899.526106102625	1004
902.176919942416	983
904.826886066483	1024
907.476004970747	1030
910.124277150255	1038
912.77170309913	1025
915.418283310642	1032
918.064018277175	1030
920.708908490222	1035
923.352954440405	1032
925.996156617486	1015
928.638515510334	1031
931.280031606966	1024
933.920705394521	1033
936.560537359303	1040
939.199527986737	1002
941.837677761392	1040
944.474987167006	1064
947.111456686438	1037
949.747086801734	1076
952.38187799407	1076
955.015830743792	1056
957.648945530418	1060
960.281222832633	1051
962.91266312826	1018
965.543266894336	1075
968.173034607058	1050
970.801966741779	1055
973.43006377307	1073
976.057326174661	1049
978.683754419471	1074
981.309348979623	1071
983.93411032642	1075
986.558038930361	1037
989.181135261144	1059
991.803399787692	1074
994.424832978086	1079
997.045435299653	1059
999.665207218906	1067
1002.2841492016	1045
1004.90226171266	1091
1007.51954521628	1092
1010.13600017584	1072
1012.75162705397	1074
1015.3664263125	1100
1017.9803984125	1102
1020.5935438143	1106
1023.20586297741	1111
1025.81735636063	1135
1028.42802442196	1088
1031.03786761869	1123
1033.64688640732	1131
1036.2550812436	1140
1038.86245258255	1116
1041.46900087844	1114
1044.07472658479	1132
1046.67963015438	1133
1049.28371203927	1160
1051.88697269075	1197
1054.48941255943	1243
1057.09103209513	1335
1059.691831747	1410
1062.29181196343	1403
1064.89097319211	1353
1067.48931587999	1243
1070.08684047333	1215
1072.68354741766	1201
1075.27943715779	1237
1077.87451013787	1225
1080.46876680127	1186
1083.06220759071	1237
1085.65483294822	1159
1088.24664331509	1219
1090.83763913194	1208
1093.42782083869	1152
1096.01718887459	1221
1098.60574367818	1177
1101.19348568732	1179
1103.78041533919	1173
1106.3665330703	1217
1108.95183931646	1182
1111.53633451284	1187
1114.12001909391	1184
1116.70289349349	1229
1119.2849581447	1265
1121.86621348005	1320
1124.44665993134	1411
1127.02629792973	1544
1129.60512790574	1475
1132.18315028919	1419
1134.76036550929	1304
1137.3367739946	1230
1139.912376173	1230
1142.48717247176	1188
1145.06116331748	1196
1147.63434913616	1215
1150.20673035312	1209
1152.77830739307	1205
1155.34908068007	1226
1157.91905063757	1245
1160.48821768838	1235
1163.05658225471	1262
1165.6241447581	1244
1168.19090561951	1264
1170.75686525927	1259
1173.32202409708	1222
1175.88638255206	1218
1178.44994104269	1209
1181.01269998684	1189
1183.57465980182	1204
1186.13582090427	1207
1188.69618371026	1173
1191.25574863529	1232
1193.8145160942	1196
1196.37248650129	1235
1198.92966027025	1198
1201.48603781416	1223
1204.04161954556	1190
1206.59640587635	1204
1209.15039721788	1179
1211.70359398092	1190
1214.25599657564	1197
1216.80760541166	1201
1219.35842089801	1198
1221.90844344314	1184
1224.45767345496	1207
1227.00611134077	1206
1229.55375750736	1175
1232.10061236092	1211
1234.64667630707	1212
1237.1919497509	1175
1239.73643309692	1203
1242.28012674912	1191
1244.82303111089	1207
1247.36514658511	1199
1249.9064735741	1231
1252.44701247964	1239
1254.98676370294	1239
1257.52572764469	1213
1260.06390470506	1202
1262.60129528365	1234
1265.13789977954	1261
1267.67371859128	1240
1270.20875211688	1255
1272.74300075384	1284
1275.2764648991	1243
1277.80914494911	1268
1280.34104129978	1286
1282.87215434652	1299
1285.40248448419	1311
1287.93203210715	1423
1290.46079760927	1594
1292.98878138385	1665
1295.51598382375	1643
1298.04240532127	1501
1300.56804626822	1410
1303.09290705593	1331
1305.6169880752	1291
1308.14028971632	1307
1310.66281236913	1277
1313.18455642292	1310
1315.70552226653	1308
1318.22571028829	1280
1320.74512087603	1278
1323.26375441711	1298
1325.7816112984	1291
1328.29869190629	1313
1330.81499662666	1305
1333.33052584497	1287
1335.84527994613	1289
1338.35925931464	1305
1340.87246433446	1314
1343.38489538916	1302
1345.89655286177	1301
1348.40743713487	1265
1350.91754859059	1270
1353.42688761059	1280
1355.93545457606	1288
1358.44324986772	1295
1360.95027386588	1308
1363.45652695032	1314
1365.96200950042	1318
1368.4667218951	1336
1370.97066451281	1284
1373.47383773156	1342
1375.97624192891	1332
1378.47787748199	1313
1380.97874476746	1333
1383.47884416157	1331
1385.97817604009	1302
1388.4767407784	1282
1390.9745387514	1282
1393.47157033358	1263
1395.96783589898	1333
1398.46333582124	1281
1400.95807047354	1282
1403.45204022864	1254
1405.94524545889	1277
1408.4376865362	1289
1410.92936383205	1359
1413.42027771752	1405
1415.91042856328	1423
1418.39981673955	1367
1420.88844261615	1377
1423.37630656249	1339
1425.86340894757	1388
1428.34975013999	1417
1430.83533050792	1473
1433.32015041912	1535
1435.80421024098	1588
1438.28751034045	1647
1440.77005108411	1626
1443.25183283812	1568
1445.73285596824	1489
1448.21312083984	1472
1450.69262781791	1533
1453.17137726702	1494
1455.64936955137	1503
1458.12660503477	1532
1460.60308408063	1490
1463.07880705197	1455
1465.55377431145	1469
1468.02798622133	1461
1470.50144314348	1385
1472.97414543941	1380
1475.44609347024	1363
1477.91728759673	1308
1480.38772817924	1360
1482.85741557777	1348
1485.32635015194	1378
1487.79453226103	1351
1490.26196226391	1363
1492.72864051911	1321
1495.1945673848	1334
1497.65974321874	1322
1500.1241683784	1318
1502.58784322083	1361
1505.05076810274	1318
1507.51294338049	1361
1509.97436941009	1313
1512.43504654717	1341
1514.89497514704	1297
1517.35415556462	1293
1519.81258815451	1319
1522.27027327095	1330
1524.72721126784	1324
1527.18340249874	1319
1529.63884731684	1320
1532.09354607502	1328
1534.5474991258	1352
1537.00070682136	1337
1539.45316951355	1367
1541.90488755388	1343
1544.35586129353	1333
1546.80609108336	1356
1549.25557727385	1352
1551.70432021519	1322
1554.15232025725	1360
1556.59957774953	1366
1559.04609304125	1400
1561.49186648127	1371
1563.93689841815	1381
1566.38118920011	1417
1568.82473917506	1381
1571.2675486906	1396
1573.70961809399	1388
1576.15094773219	1379
1578.59153795184	1345
1581.03138909928	1387
1583.47050152051	1390
1585.90887556123	1383
1588.34651156686	1409
1590.78340988246	1411
1593.21957085283	1381
1595.65499482245	1390
1598.08968213547	1403
1600.52363313578	1430
1602.95684816694	1399
1605.38932757224	1453
1607.82107169462	1382
1610.25208087677	1357
1612.68235546107	1386
1615.1118957896	1375
1617.54070220415	1376
1619.96877504621	1384
1622.39611465701	1366
1624.82272137746	1416
1627.24859554818	1380
1629.67373750953	1395
1632.09814760155	1353
1634.52182616404	1363
1636.94477353647	1376
1639.36699005806	1383
1641.78847606776	1386
1644.20923190418	1397
1646.62925790573	1406
1649.04855441048	1394
1651.46712175628	1418
1653.88496028066	1398
1656.3020703209	1378
1658.71845221401	1400
1661.13410629671	1397
1663.54903290547	1409
1665.96323237649	1401
1668.37670504571	1409
1670.78945124877	1425
1673.20147132109	1449
1675.61276559779	1410
1678.02333441377	1439
1680.43317810362	1476
1682.84229700171	1420
1685.25069144213	1426
1687.65836175872	1441
1690.06530828507	1497
1692.47153135451	1432
1694.87703130009	1464
1697.28180845467	1470
1699.6858631508	1471
1702.08919572081	1501
1704.49180649676	1528
1706.89369581049	1474
1709.29486399355	1481
1711.69531137731	1480
1714.09503829282	1488
1716.49404507095	1470
1718.89233204229	1513
1721.28989953721	1515
1723.68674788581	1476
1726.08287741798	1488
1728.47828846338	1492
1730.87298135139	1510
1733.26695641119	1555
1735.66021397173	1556
1738.05275436169	1526
1740.44457790954	1507
1742.83568494354	1521
1745.22607579168	1520
1747.61575078175	1533
1750.00471024128	1517
1752.39295449761	1540
1754.78048387783	1559
1757.16729870881	1575
1759.5533993172	1568
1761.93878602942	1574
1764.32345917168	1615
1766.70741906995	1572
1769.09066604999	1590
1771.47320043735	1548
1773.85502255735	1573
1776.2361327351	1589
1778.61653129548	1600
1780.99621856318	1628
1783.37519486264	1621
1785.75346051813	1606
1788.13101585368	1659
1790.5078611931	1626
1792.88399686002	1670
1795.25942317785	1619
1797.63414046977	1632
1800.00814905878	1663
1802.38144926766	1676
1804.75404141898	1670
1807.12592583514	1674
1809.49710283829	1650
1811.86757275039	1674
1814.23733589322	1730
1816.60639258834	1650
1818.97474315712	1701
1821.34238792073	1737
1823.70932720012	1718
1826.07556131608	1746
1828.44109058918	1721
1830.8059153398	1713
1833.17003588812	1738
1835.53345255413	1728
1837.89616565765	1690
1840.25817551827	1728
1842.61948245541	1742
1844.9800867883	1716
1847.33998883598	1766
1849.69918891729	1738
1852.05768735091	1772
1854.4154844553	1773
1856.77258054875	1778
1859.12897594938	1774
1861.4846709751	1745
1863.83966594366	1772
1866.19396117261	1797
1868.54755697932	1818
1870.90045368099	1799
1873.25265159463	1838
1875.60415103708	1809
1877.95495232501	1874
1880.30505577486	1856
1882.65446170299	1882
1885.00317042548	1825
1887.35118225832	1853
1889.69849751726	1914
1892.04511651792	1893
1894.39103957574	1919
1896.73626700596	1902
1899.08079912368	1924
1901.42463624384	1925
1903.76777868116	1939
1906.11022675025	1966
1908.4519807655	1933
1910.79304104117	1945
1913.13340789134	1994
1915.47308162992	1965
1917.81206257067	1968
1920.15035102718	2018
1922.48794731286	2004
1924.82485174096	1952
1927.16106462461	1974
1929.49658627672	2034
1931.83141701008	2035
1934.1655571373	2021
1936.49900697085	2003
1938.83176682301	2041
1941.16383700594	2033
1943.49521783161	2072
1945.82590961186	2027
1948.15591265835	2026
1950.48522728262	2063
1952.81385379602	2029
1955.14179250976	2063
1957.46904373489	2012
1959.79560778233	2064
1962.12148496284	2056
1964.44667558701	2115
1966.77117996529	2072
1969.09499840799	2090
1971.41813122527	2099
1973.74057872714	2111
1976.06234122345	2090
1978.38341902391	2113
1980.7038124381	2164
1983.02352177543	2132
1985.34254734518	2131
1987.66088945649	2214
1989.97854841833	2177
1992.29552453956	2168
1994.61181812887	2168
1996.92742949483	2181
1999.24235894586	2244
2001.55660679023	2187
2003.87017333608	2266
2006.18305889143	2222
2008.49526376413	2303
2010.80678826189	2264
2013.1176326923	2259
2015.42779736282	2234
2017.73728258075	2290
2020.04608865326	2282
2022.3542158874	2256
2024.66166459008	2282
2026.96843506807	2327
2029.274527628	2363
2031.57994257637	2351
2033.88468021957	2317
2036.18874086383	2332
2038.49212481526	2348
2040.79483237983	2361
2043.0968638634	2398
2045.39821957169	2361
2047.69889981028	2351
2049.99890488462	2371
2052.29823510006	2417
2054.59689076181	2403
2056.89487217492	2407
2059.19217964437	2381
2061.48881347497	2428
2063.7847739714	2479
2066.08006143826	2462
2068.37467618	2453
2070.66861850093	2461
2072.96188870527	2430
2075.25448709707	2436
2077.54641398031	2495
2079.83766965881	2478
2082.12825443629	2499
2084.41816861634	2474
2086.70741250242	2468
2088.99598639789	2447
2091.28389060597	2503
2093.57112542978	2489
2095.85769117232	2475
2098.14358813644	2487
2100.42881662491	2481
2102.71337694037	2585
2104.99726938532	2554
2107.28049426219	2535
2109.56305187325	2536
2111.84494252069	2563
2114.12616650655	2609
2116.40672413278	2608
2118.68661570121	2501
2120.96584151355	2609
2123.24440187138	2633
2125.52229707622	2621
2127.79952742943	2571
2130.07609323227	2639
2132.35199478588	2632
2134.62723239132	2677
2136.90180634949	2674
2139.17571696123	2631
2141.44896452723	2683
2143.72154934809	2672
2145.99347172429	2670
2148.26473195623	2689
2150.53533034415	2741
2152.80526718821	2763
2155.07454278848	2717
2157.3431574449	2669
2159.61111145728	2783
2161.87840512538	2717
2164.1450387488	2818
2166.41101262707	2684
2168.67632705959	2692
2170.94098234567	2722
2173.20497878451	2748
2175.46831667519	2818
2177.73099631672	2743
2179.99301800797	2819
2182.25438204772	2722
2184.51508873466	2722
2186.77513836735	2803
2189.03453124427	2806
2191.29326766378	2786
2193.55134792416	2777
2195.80877232355	2765
2198.06554116004	2775
2200.32165473157	2768
2202.577113336	2751
2204.83191727111	2810
2207.08606683453	2751
2209.33956232384	2777
2211.59240403648	2804
2213.84459226982	2784
2216.09612732112	2758
2218.34700948753	2743
2220.59723906612	2807
2222.84681635385	2789
2225.09574164758	2753
2227.34401524408	2762
2229.59163744002	2766
2231.83860853197	2751
2234.08492881639	2762
2236.33059858968	2758
2238.5756181481	2752
2240.81998778784	2800
2243.06370780499	2753
2245.30677849555	2805
2247.54920015539	2834
2249.79097308033	2817
2252.03209756607	2787
2254.27257390822	2728
2256.51240240228	2713
2258.75158334369	2727
2260.99011702777	2761
2263.22800374976	2794
2265.46524380477	2766
2267.70183748786	2690
2269.93778509399	2779
2272.17308691801	2713
2274.40774325467	2749
2276.64175439866	2824
2278.87512064454	2756
2281.10784228682	2759
2283.33991961987	2792
2285.571352938	2725
2287.80214253541	2748
2290.03228870623	2797
2292.26179174449	2778
2294.4906519441	2775
2296.71886959892	2725
2298.9464450027	2708
2301.1733784491	2725
2303.39967023169	2752
2305.62532064395	2663
2307.85032997926	2721
2310.07469853093	2774
2312.29842659216	2764
2314.52151445608	2727
2316.7439624157	2759
2318.96577076397	2725
2321.18693979374	2724
2323.40746979777	2740
2325.62736106873	2719
2327.8466138992	2757
2330.06522858166	2710
2332.28320540853	2689
2334.50054467212	2731
2336.71724666465	2716
2338.93331167827	2672
2341.14874000501	2743
2343.36353193685	2726
2345.57768776564	2653
2347.79120778319	2704
2350.00409228117	2700
2352.21634155121	2726
2354.42795588482	2698
2356.63893557342	2721
2358.84928090838	2684
2361.05899218094	2643
2363.26806968228	2695
2365.47651370347	2655
2367.68432453552	2648
2369.89150246933	2664
2372.09804779571	2615
2374.30396080541	2640
2376.50924178907	2624
2378.71389103725	2667
2380.91790884042	2655
2383.12129548897	2667
2385.3240512732	2586
2387.52617648332	2618
2389.72767140946	2669
2391.92853634165	2612
2394.12877156985	2642
2396.32837738392	2650
2398.52735407365	2649
2400.72570192873	2596
2402.92342123875	2653
2405.12051229325	2681
2407.31697538167	2603
2409.51281079333	2588
2411.70801881751	2556
2413.90259974339	2538
2416.09655386004	2620
2418.28988145648	2548
2420.48258282162	2612
2422.6746582443	2555
2424.86610801325	2590
2427.05693241713	2638
2429.24713174452	2583
2431.43670628389	2610
2433.62565632365	2603
2435.81398215212	2598
2438.00168405752	2592
2440.18876232799	2567
2442.37521725158	2561
2444.56104911628	2557
2446.74625820994	2540
2448.93084482038	2526
2451.1148092353	2566
2453.29815174233	2559
2455.480872629	2585
2457.66297218275	2598
2459.84445069097	2515
2462.02530844092	2570
2464.2055457198	2570
2466.38516281471	2502
2468.56416001267	2498
2470.74253760061	2532
2472.92029586537	2509
2475.09743509372	2478
2477.27395557232	2535
2479.44985758777	2453
2481.62514142655	2514
2483.79980737508	2495
2485.97385571969	2472
2488.14728674661	2471
2490.32010074198	2541
2492.49229799188	2453
2494.66387878228	2507
2496.83484339905	2547
2499.00519212802	2488
2501.17492525488	2528
2503.34404306528	2457
2505.51254584473	2502
2507.6804338787	2486
2509.84770745254	2515
2512.01436685153	2486
2514.18041236085	2487
2516.34584426561	2468
2518.51066285081	2506
2520.67486840138	2504
2522.83846120214	2531
2525.00144153784	2468
2527.16380969314	2490
2529.32556595261	2545
2531.48671060072	2515
2533.64724392186	2538
2535.80716620033	2526
2537.96647772034	2499
2540.12517876602	2487
2542.2832696214	2486
2544.44075057041	2474
2546.59762189691	2536
2548.75388388466	2469
2550.90953681735	2435
2553.06458097853	2465
2555.21901665172	2509
2557.37284412031	2537
2559.5260636676	2466
2561.67867557684	2515
2563.83068013113	2451
2565.98207761351	2424
2568.13286830695	2463
2570.28305249429	2442
2572.43263045829	2460
2574.58160248163	2440
2576.72996884689	2469
2578.87772983655	2446
2581.02488573303	2394
2583.1714368186	2477
2585.31738337549	2419
2587.46272568582	2418
2589.60746403161	2441
2591.75159869479	2439
2593.89512995722	2433
2596.03805810061	2441
2598.18038340665	2402
2600.32210615686	2435
2602.46322663274	2467
2604.60374511563	2383
2606.74366188683	2415
2608.88297722751	2477
2611.02169141875	2396
2613.15980474156	2478
2615.29731747681	2445
2617.43422990532	2422
2619.57054230779	2485
2621.70625496483	2419
2623.84136815694	2355
2625.97588216456	2456
2628.10979726799	2415
2630.24311374746	2442
2632.3758318831	2444
2634.50795195493	2434
2636.6394742429	2420
2638.77039902682	2454
2640.90072658645	2466
2643.0304572014	2422
2645.15959115123	2371
2647.28812871538	2446
2649.41607017319	2441
2651.5434158039	2443
2653.67016588665	2423
2655.79632070049	2428
2657.92188052436	2400
2660.04684563711	2439
2662.17121631749	2451
2664.29499284413	2425
2666.41817549558	2422
2668.54076455027	2405
2670.66276028656	2431
2672.78416298267	2468
2674.90497291675	2404
2677.02519036682	2408
2679.14481561082	2457
2681.26384892658	2402
2683.38229059182	2410
2685.50014088417	2390
2687.61740008114	2445
2689.73406846017	2462
2691.85014629854	2464
2693.96563387347	2458
2696.08053146206	2458
2698.1948393413	2403
2700.3085577881	2477
2702.42168707924	2483
2704.53422749139	2463
2706.64617930112	2502
2708.75754278492	2525
2710.86831821913	2542
2712.97850588002	2504
2715.08810604372	2543
2717.19711898628	2554
2719.30554498363	2541
2721.41338431158	2597
2723.52063724586	2561
2725.62730406206	2589
2727.73338503569	2490
2729.83888044213	2533
2731.94379055664	2530
2734.04811565441	2465
2736.15185601048	2385
2738.25501189979	2452
2740.35758359718	2417
2742.45957137738	2389
2744.56097551499	2390
2746.6617962845	2366
2748.7620339603	2367
2750.86168881666	2377
2752.96076112774	2405
2755.05925116758	2370
2757.15715921012	2384
2759.25448552917	2435
2761.35123039843	2361
2763.44739409148	2382
2765.5429768818	2360
2767.63797904275	2360
2769.73240084756	2372
2771.82624256934	2343
2773.91950448113	2390
2776.01218685579	2359
2778.10428996609	2351
2780.19581408469	2374
2782.28675948414	2354
2784.37712643683	2408
2786.46691521507	2376
2788.55612609104	2351
2790.64475933678	2409
2792.73281522425	2322
2794.82029402525	2401
2796.90719601149	2371
2798.99352145453	2310
2801.07927062583	2360
2803.16444379672	2410
2805.24904123841	2382
2807.33306322197	2357
2809.41651001838	2368
2811.49938189847	2423
2813.58167913296	2451
2815.66340199243	2428
2817.74455074734	2465
2819.82512566805	2478
2821.90512702475	2486
2823.98455508754	2512
2826.06341012637	2594
2828.14169241109	2669
2830.2194022114	2783
2832.29653979686	2984
2834.37310543694	3325
2836.44909940096	3668
2838.5245219581	4120
2840.59937337744	4693
2842.67365392791	5282
2844.74736387829	5633
2846.82050349727	5668
2848.8930730534	5537
2850.96507281506	5225
2853.03650305056	5028
2855.10736402802	4743
2857.17765601545	4519
2859.24737928074	4274
2861.31653409164	4184
2863.38512071574	4054
2865.45313942054	4084
2867.52059047335	4002
2869.58747414139	4079
2871.65379069173	4205
2873.7195403913	4529
2875.78472350688	5121
2877.84934030515	6161
2879.91339105262	7060
2881.97687601567	6928
2884.03979546053	5949
2886.10214965332	5181
2888.16393886	4712
2890.22516334639	4529
2892.28582337816	4480
2894.34591922087	4361
2896.40545113992	4251
2898.46441940054	4282
2900.52282426787	4135
2902.58066600687	3942
2904.63794488237	3919
2906.69466115906	3770
2908.75081510147	3718
2910.806406974	3568
2912.8614370409	3506
2914.91590556626	3443
2916.96981281404	3476
2919.02315904807	3385
2921.07594453199	3365
2923.12816952932	3412
2925.17983430343	3430
2927.23093911753	3297
2929.28148423469	3309
2931.33146991782	3261
2933.3808964297	3189
2935.42976403294	3050
2937.47807299	2987
2939.5258235632	2909
2941.57301601469	2787
2943.61965060648	2690
2945.66572760042	2584
2947.71124725823	2500
2949.75620984143	2486
2951.80061561143	2434
2953.84446482945	2431
2955.88775775656	2445
2957.9304946537	2385
2959.97267578162	2379
2962.01430140095	2384
2964.05537177211	2329
2966.09588715541	2394
2968.13584781097	2345
2970.17525399875	2347
2972.21410597859	2350
2974.25240401011	2353
2976.29014835283	2372
2978.32733926604	2338
2980.36397700892	2313
2982.40006184049	2318
2984.43559401955	2296
2986.4705738048	2312
2988.50500145473	2287
2990.53887722771	2299
2992.57220138189	2331
2994.6049741753	2291
2996.63719586576	2293
2998.66886671097	2310
3000.69998696843	2328
3002.73055689549	2361
3004.7605767493	2329
3006.79004678688	2337
3008.81896726505	2323
3010.84733844048	2334
3012.87516056966	2349
3014.9024339089	2320
3016.92915871433	2329
3018.95533524196	2327
3020.98096374756	2343
3023.00604448675	2357
3025.030577715	2315
3027.05456368757	2329
3029.07800265956	2374
3031.10089488589	2377
3033.12324062131	2323
3035.14504012038	2316
3037.16629363749	2371
3039.18700142685	2340
3041.20716374249	2303
3043.22678083826	2321
3045.24585296782	2341
3047.26438038468	2323
3049.28236334212	2331
3051.29980209329	2317
3053.31669689111	2336
3055.33304798835	2289
3057.34885563757	2357
3059.36412009117	2304
3061.37884160134	2350
3063.39302042011	2328
3065.40665679931	2336
3067.41975099058	2283
3069.43230324538	2340
3071.44431381495	2335
3073.45578295041	2376
3075.46671090261	2360
3077.47709792227	2330
3079.48694425989	2324
3081.49625016578	2340
3083.50501589008	2339
3085.5132416827	2343
3087.5209277934	2293
3089.52807447169	2343
3091.53468196695	2325
3093.54075052832	2350
3095.54628040476	2347
3097.55127184503	2315
3099.55572509769	2334
3101.55964041111	2370
3103.56301803346	2322
3105.5658582127	2314
3107.56816119661	2297
3109.56992723275	2299
3111.57115656849	2314
3113.571849451	2339
3115.57200612724	2325
3117.57162684397	2340
3119.57071184775	2337
3121.56926138493	2350
3123.56727570166	2332
3125.56475504389	2367
3127.56169965735	2317
3129.55810978757	2373
3131.55398567987	2422
3133.54932757937	2418
3135.54413573099	2310
3137.53841037939	2389
3139.53215176909	2372
3141.52536014435	2399
3143.51803574924	2348
3145.51017882762	2423
3147.50178962311	2363
3149.49286837916	2371
3151.48341533897	2396
3153.47343074553	2405
3155.46291484164	2392
3157.45186786985	2384
3159.44029007252	2376
3161.42818169179	2391
3163.41554296955	2407
3165.40237414753	2335
3167.38867546718	2372
3169.37444716975	2391
3171.35968949631	2420
3173.34440268764	2370
3175.32858698436	2413
3177.31224262682	2397
3179.29536985517	2400
3181.27796890934	2396
3183.26004002902	2434
3185.24158345368	2359
3187.22259942256	2411
3189.2030881747	2421
3191.18304994886	2396
3193.16248498363	2419
3195.14139351733	2432
3197.11977578807	2429
3199.09763203371	2451
3201.07496249191	2405
3203.05176740007	2430
3205.02804699537	2448
3207.00380151475	2437
3208.97903119493	2426
3210.95373627238	2469
3212.92791698335	2398
3214.90157356383	2395
3216.8747062496	2412
3218.84731527619	2486
3220.81940087889	2467
3222.79096329275	2496
3224.76200275259	2462
3226.73251949298	2493
3228.70251374825	2477
3230.67198575251	2478
3232.64093573959	2469
3234.6093639431	2479
3236.57727059641	2509
3238.54465593261	2547
3240.51152018461	2504
3242.47786358502	2482
3244.44368636621	2558
3246.40898876031	2472
3248.37377099923	2530
3250.33803331458	2483
3252.30177593775	2556
3254.26499909987	2542
3256.22770303184	2516
3258.18988796427	2550
3260.15155412755	2524
3262.1127017518	2461
3264.0733310669	2538
3266.03344230246	2584
3267.99303568784	2543
3269.95211145215	2516
3271.91066982422	2524
3273.86871103267	2571
3275.82623530581	2535
3277.7832428717	2563
3279.73973395818	2595
3281.69570879278	2505
3283.6511676028	2591
3285.60611061527	2582
3287.56053805694	2572
3289.51445015432	2607
3291.46784713364	2561
3293.42072922088	2559
3295.37309664173	2663
3297.32494962163	2574
3299.27628838575	2581
3301.227113159	2520
3303.17742416601	2590
3305.12722163114	2560
3307.07650577848	2636
3309.02527683185	2630
3310.9735350148	2604
3312.9212805506	2582
3314.86851366225	2606
3316.81523457249	2580
3318.76144350377	2630
3320.70714067825	2558
3322.65232631783	2612
3324.59700064415	2595
3326.54116387854	2629
3328.48481624207	2585
3330.42795795551	2639
3332.37058923938	2592
3334.31271031389	2608
3336.25432139898	2625
3338.19542271432	2646
3340.13601447927	2595
3342.07609691292	2599
3344.01567023407	2609
3345.95473466124	2590
3347.89329041266	2696
3349.83133770627	2672
3351.76887675973	2668
3353.70590779039	2608
3355.64243101534	2616
3357.57844665135	2617
3359.51395491492	2624
3361.44895602224	2599
3363.38345018922	2624
3365.31743763148	2671
3367.25091856432	2649
3369.18389320278	2577
3371.11636176156	2665
3373.0483244551	2677
3374.97978149754	2685
3376.91073310269	2657
3378.84117948409	2726
3380.77112085498	2684
3382.70055742826	2753
3384.62948941659	2683
3386.55791703227	2657
3388.48584048733	2647
3390.41325999348	2729
3392.34017576214	2696
3394.2665880044	2706
3396.19249693107	2681
3398.11790275263	2667
3400.04280567926	2662
3401.96720592084	2721
3403.89110368692	2684
3405.81449918675	2742
3407.73739262928	2731
3409.65978422311	2736
3411.58167417658	2693
3413.50306269768	2645
3415.42394999408	2735
3417.34433627316	2726
3419.26422174195	2712
3421.18360660721	2787
3423.10249107532	2714
3425.02087535239	2697
3426.93875964421	2706
3428.8561441562	2724
3430.77302909353	2742
3432.68941466097	2759
3434.60530106301	2716
3436.52068850383	2723
3438.43557718726	2754
3440.34996731681	2738
3442.26385909565	2698
3444.17725272664	2750
3446.09014841231	2763
3448.00254635486	2743
3449.91444675614	2716
3451.82584981771	2734
3453.73675574076	2743
3455.64716472616	2739
3457.55707697445	2737
3459.46649268584	2706
3461.37541206018	2736
3463.28383529703	2756
3465.19176259555	2694
3467.09919415464	2712
3469.00613017278	2719
3470.91257084817	2737
3472.81851637863	2758
3474.72396696168	2715
3476.62892279446	2768
3478.53338407379	2746
3480.43735099614	2767
3482.34082375764	2736
3484.24380255404	2678
3486.1462875808	2716
3488.048279033	2773
3489.94977710537	2754
3491.85078199231	2701
3493.75129388783	2719
3495.65131298566	2698
3497.5508394791	2744
3499.44987356115	2762
