200.090469251518	1450
202.974751419362	1495
205.858021632263	1491
208.740280737522	1466
211.621529580443	1478
214.501769004371	1501
217.380999850626	1512
220.25922295859	1514
223.136439165646	1520
226.012649307235	1508
228.88785421682	1484
231.762054725918	1490
234.635251664113	1498
237.507445859021	1524
240.378638136346	1520
243.248829319855	1531
246.11802023137	1566
248.986211690826	1552
251.853404516227	1549
254.719599523654	1529
257.584797527335	1548
260.44899933954	1546
263.312205770682	1578
266.174417629303	1572
269.035635722015	1592
271.895860853609	1578
274.755093826978	1618
277.613335443144	1523
280.470586501309	1591
283.326847798766	1559
286.182120131019	1593
289.036404291684	1591
291.889701072574	1564
294.742011263643	1541
297.593335653048	1552
300.443675027094	1542
303.293030170295	1546
306.141401865367	1584
308.988790893174	1523
311.835198032837	1525
314.680624061635	1549
317.525069755113	1529
320.36853588697	1541
323.211023229178	1549
326.052532551923	1545
328.893064623604	1564
331.732620210885	1526
334.57120007867	1569
337.408804990093	1556
340.245435706565	1551
343.081092987733	1566
345.915777591523	1555
348.749490274145	1582
351.582231790049	1568
354.414002891997	1595
357.244804331021	1587
360.074636856443	1611
362.903501215886	1620
365.731398155265	1603
368.558328418814	1610
371.384292749062	1563
374.209291886869	1632
377.033326571407	1593
379.85639754017	1604
382.678505529009	1586
385.499651272065	1633
388.319835501872	1582
391.139058949258	1594
393.957322343453	1584
396.774626412011	1579
399.590971880847	1585
402.406359474258	1635
405.220789914893	1618
408.034263923801	1609
410.8467822204	1651
413.658345522483	1658
416.468954546242	1648
419.278610006277	1633
422.087312615557	1643
424.895063085503	1611
427.701862125901	1646
430.507710444981	1647
433.312608749366	1618
436.116557744146	1614
438.919558132791	1634
441.721610617238	1636
444.522715897856	1629
447.322874673457	1630
450.122087641299	1602
452.920355497092	1603
455.717678935009	1634
458.514058647681	1624
461.309495326219	1656
464.103989660191	1616
466.89754233765	1634
469.690154045114	1592
472.481825467625	1660
475.272557288674	1639
478.062350190281	1639
480.851204852952	1619
483.639121955683	1610
486.426102176007	1655
489.212146189955	1651
491.997254672093	1654
494.781428295471	1620
497.564667731716	1669
500.346973650958	1648
503.128346721878	1640
505.90878761169	1645
508.688296986151	1635
511.46687550957	1630
514.244523844831	1651
517.021242653354	1647
519.797032595132	1682
522.571894328732	1651
525.345828511279	1666
528.11883579849	1681
530.890916844655	1669
533.662072302668	1698
536.432302823985	1707
539.201609058684	1658
541.96999165542	1653
544.737451261473	1633
547.503988522723	1672
550.26960408366	1681
553.034298587394	1621
555.798072675669	1666
558.560926988819	1699
561.322862165849	1638
564.083878844369	1704
566.843977660654	1674
569.603159249604	1641
572.361424244769	1631
575.118773278369	1715
577.87520698124	1663
580.630725982905	1672
583.385330911566	1692
586.139022394076	1732
588.891801055954	1689
591.643667521406	1675
594.394622413318	1677
597.144666353273	1636
599.893799961512	1669
602.64202385701	1733
605.389338657413	1643
608.135744979089	1690
610.881243437092	1652
613.625834645191	1669
616.369519215881	1667
619.112297760374	1681
621.854170888604	1680
624.595139209225	1689
627.335203329614	1756
630.074363855914	1792
632.81262139299	1775
635.549976544436	1779
638.286429912612	1735
641.021982098635	1672
643.756633702364	1722
646.49038532241	1684
649.223237556176	1657
651.955190999808	1633
654.686246248224	1685
657.416403895135	1689
660.145664533011	1669
662.874028753133	1697
665.601497145537	1683
668.328070299071	1711
671.05374880138	1706
673.778533238885	1671
676.502424196839	1742
679.225422259297	1699
681.947528009099	1672
684.668742027927	1670
687.389064896281	1713
690.108497193465	1663
692.827039497621	1682
695.544692385724	1708
698.261456433585	1714
700.977332215847	1724
703.692320305981	1755
706.406421276337	1720
709.11963569808	1737
711.831964141256	1736
714.54340717474	1658
717.253965366304	1709
719.963639282552	1688
722.672429488961	1702
725.380336549904	1680
728.087361028596	1690
730.793503487166	1703
733.498764486594	1692
736.203144586758	1699
738.906644346447	1707
741.60926432331	1689
744.311005073912	1732
747.011867153727	1721
749.711851117121	1708
752.410957517375	1731
755.109186906677	1711
757.806539836132	1723
760.503016855779	1738
763.198618514551	1658
765.893345360346	1717
768.587197939964	1729
771.28017679914	1740
773.972282482566	1741
776.663515533859	1711
779.353876495581	1714
782.043365909241	1710
784.731984315327	1773
787.419732253235	1739
790.106610261366	1759
792.792618877058	1780
795.477758636618	1793
798.162030075313	1779
800.845433727423	1743
803.52797012615	1722
806.209639803714	1778
808.890443291304	1768
811.570381119098	1758
814.249453816265	1764
816.927661910959	1756
819.60500593036	1784
822.281486400603	1817
824.957103846864	1769
827.631858793316	1814
830.305751763135	1805
832.978783278519	1820
835.650953860677	1818
838.322264029848	1800
840.992714305292	1815
843.662305205289	1874
846.331037247157	1901
848.998910947241	1890
851.665926820933	1881
854.332085382674	1953
856.997387145915	1934
859.661832623191	1930
862.325422326066	1861
864.988156765172	1905
867.650036450181	1836
870.311061889846	1794
872.971233591961	1833
875.630552063409	1839
878.28901781013	1846
880.946631337138	1846
883.603393148533	1831
886.259303747484	1813
888.914363636246	1829
891.568573316155	1850
894.22193328767	1787
896.874444050281	1759
899.526106102625	1787
902.176919942416	1795
904.826886066483	1742
907.476004970747	1761
910.124277150255	1759
912.77170309913	1784
915.418283310642	1793
918.064018277175	1806
920.708908490222	1787
923.352954440405	1734
925.996156617486	1827
928.638515510334	1781
931.280031606966	1721
933.920705394521	1769
936.560537359303	1807
939.199527986737	1778
941.837677761392	1796
944.474987167006	1758
947.111456686438	1812
949.747086801734	1825
952.38187799407	1809
955.015830743792	1797
957.648945530418	1816
960.281222832633	1739
962.91266312826	1755
965.543266894336	1795
968.173034607058	1820
970.801966741779	1823
973.43006377307	1814
976.057326174661	1789
978.683754419471	1820
981.309348979623	1793
983.93411032642	1795
986.558038930361	1839
989.181135261144	1811
991.803399787692	1815
994.424832978086	1827
997.045435299653	1834
999.665207218906	1846
1002.2841492016	1888
1004.90226171266	1818
1007.51954521628	1844
1010.13600017584	1838
1012.75162705397	1822
1015.3664263125	1816
1017.9803984125	1837
1020.5935438143	1867
1023.20586297741	1872
1025.81735636063	1900
1028.42802442196	1798
1031.03786761869	1918
1033.64688640732	1880
1036.2550812436	1888
1038.86245258255	1899
1041.46900087844	1887
1044.07472658479	1860
1046.67963015438	1900
1049.28371203927	1870
1051.88697269075	1835
1054.48941255943	1880
1057.09103209513	1845
1059.691831747	1932
1062.29181196343	1886
1064.89097319211	1917
1067.48931587999	1864
1070.08684047333	1892
1072.68354741766	1889
1075.27943715779	1852
1077.87451013787	1918
1080.46876680127	1905
1083.06220759071	1927
1085.65483294822	1862
1088.24664331509	1947
1090.83763913194	1929
1093.42782083869	1937
1096.01718887459	1902
1098.60574367818	1948
1101.19348568732	1972
1103.78041533919	2008
1106.3665330703	2015
1108.95183931646	1989
1111.53633451284	2032
1114.12001909391	2037
1116.70289349349	2034
1119.2849581447	2052
1121.86621348005	2004
1124.44665993134	1990
1127.02629792973	2005
1129.60512790574	2013
1132.18315028919	1983
1134.76036550929	1983
1137.3367739946	1987
1139.912376173	1980
1142.48717247176	1961
1145.06116331748	1956
1147.63434913616	1957
1150.20673035312	1989
1152.77830739307	1975
1155.34908068007	1959
1157.91905063757	1985
1160.48821768838	1980
1163.05658225471	1947
1165.6241447581	1980
1168.19090561951	1977
1170.75686525927	2043
1173.32202409708	2025
1175.88638255206	2034
1178.44994104269	2025
1181.01269998684	2005
1183.57465980182	1998
1186.13582090427	1955
1188.69618371026	1932
1191.25574863529	2001
1193.8145160942	1900
1196.37248650129	1919
1198.92966027025	1992
1201.48603781416	1934
1204.04161954556	1909
1206.59640587635	1940
1209.15039721788	1937
1211.70359398092	2011
1214.25599657564	1969
1216.80760541166	1980
1219.35842089801	1998
1221.90844344314	1956
1224.45767345496	1997
1227.00611134077	1963
1229.55375750736	1985
1232.10061236092	1998
1234.64667630707	1989
1237.1919497509	2005
1239.73643309692	2065
1242.28012674912	2017
1244.82303111089	2003
1247.36514658511	2020
1249.9064735741	2024
1252.44701247964	2022
1254.98676370294	2073
1257.52572764469	2091
1260.06390470506	2123
1262.60129528365	2087
1265.13789977954	2090
1267.67371859128	2171
1270.20875211688	2095
1272.74300075384	2233
1275.2764648991	2199
1277.80914494911	2233
1280.34104129978	2255
1282.87215434652	2241
1285.40248448419	2304
1287.93203210715	2294
1290.46079760927	2315
1292.98878138385	2272
1295.51598382375	2191
1298.04240532127	2165
1300.56804626822	2192
1303.09290705593	2169
1305.6169880752	2162
1308.14028971632	2214
1310.66281236913	2197
1313.18455642292	2099
1315.70552226653	2149
1318.22571028829	2103
1320.74512087603	2147
1323.26375441711	2120
1325.7816112984	2061
1328.29869190629	2077
1330.81499662666	2145
1333.33052584497	2104
1335.84527994613	2118
1338.35925931464	2145
1340.87246433446	2133
1343.38489538916	2172
1345.89655286177	2140
1348.40743713487	2134
1350.91754859059	2162
1353.42688761059	2150
1355.93545457606	2179
1358.44324986772	2179
1360.95027386588	2155
1363.45652695032	2117
1365.96200950042	2162
1368.4667218951	2188
1370.97066451281	2167
1373.47383773156	2164
1375.97624192891	2151
1378.47787748199	2170
1380.97874476746	2150
1383.47884416157	2169
1385.97817604009	2180
1388.4767407784	2150
1390.9745387514	2143
1393.47157033358	2145
1395.96783589898	2206
1398.46333582124	2171
1400.95807047354	2143
1403.45204022864	2172
1405.94524545889	2124
1408.4376865362	2148
1410.92936383205	2172
1413.42027771752	2186
1415.91042856328	2142
1418.39981673955	2188
1420.88844261615	2160
1423.37630656249	2105
1425.86340894757	2188
1428.34975013999	2203
1430.83533050792	2211
1433.32015041912	2175
1435.80421024098	2155
1438.28751034045	2172
1440.77005108411	2230
1443.25183283812	2232
1445.73285596824	2262
1448.21312083984	2253
1450.69262781791	2204
1453.17137726702	2271
1455.64936955137	2205
1458.12660503477	2258
1460.60308408063	2240
1463.07880705197	2177
1465.55377431145	2272
1468.02798622133	2201
1470.50144314348	2203
1472.97414543941	2243
1475.44609347024	2265
1477.91728759673	2194
1480.38772817924	2235
1482.85741557777	2221
1485.32635015194	2188
1487.79453226103	2228
1490.26196226391	2222
1492.72864051911	2201
1495.1945673848	2213
1497.65974321874	2214
1500.1241683784	2233
1502.58784322083	2255
1505.05076810274	2244
1507.51294338049	2283
1509.97436941009	2254
1512.43504654717	2239
1514.89497514704	2280
1517.35415556462	2239
1519.81258815451	2275
1522.27027327095	2222
1524.72721126784	2298
1527.18340249874	2256
1529.63884731684	2291
1532.09354607502	2238
1534.5474991258	2266
1537.00070682136	2273
1539.45316951355	2297
1541.90488755388	2246
1544.35586129353	2256
1546.80609108336	2282
1549.25557727385	2226
1551.70432021519	2245
1554.15232025725	2305
1556.59957774953	2240
1559.04609304125	2314
1561.49186648127	2310
1563.93689841815	2278
1566.38118920011	2261
1568.82473917506	2327
1571.2675486906	2342
1573.70961809399	2358
1576.15094773219	2344
1578.59153795184	2357
1581.03138909928	2348
1583.47050152051	2373
1585.90887556123	2340
1588.34651156686	2359
1590.78340988246	2343
1593.21957085283	2417
1595.65499482245	2419
1598.08968213547	2453
1600.52363313578	2476
1602.95684816694	2560
1605.38932757224	2763
1607.82107169462	2880
1610.25208087677	3142
1612.68235546107	3414
1615.1118957896	3288
1617.54070220415	2985
1619.96877504621	2698
1622.39611465701	2482
1624.82272137746	2438
1627.24859554818	2396
1629.67373750953	2322
1632.09814760155	2349
1634.52182616404	2333
1636.94477353647	2306
1639.36699005806	2295
1641.78847606776	2335
1644.20923190418	2329
1646.62925790573	2359
1649.04855441048	2328
1651.46712175628	2358
1653.88496028066	2310
1656.3020703209	2348
1658.71845221401	2369
1661.13410629671	2370
1663.54903290547	2417
1665.96323237649	2332
1668.37670504571	2356
1670.78945124877	2386
1673.20147132109	2400
1675.61276559779	2345
1678.02333441377	2452
1680.43317810362	2462
1682.84229700171	2466
1685.25069144213	2446
1687.65836175872	2495
1690.06530828507	2512
1692.47153135451	2434
1694.87703130009	2424
1697.28180845467	2450
1699.6858631508	2506
1702.08919572081	2482
1704.49180649676	2529
1706.89369581049	2546
1709.29486399355	2573
1711.69531137731	2689
1714.09503829282	2719
1716.49404507095	2885
1718.89233204229	2978
1721.28989953721	2955
1723.68674788581	3058
1726.08287741798	3019
1728.47828846338	2999
1730.87298135139	3021
1733.26695641119	2836
1735.66021397173	2851
1738.05275436169	2777
1740.44457790954	2700
1742.83568494354	2599
1745.22607579168	2645
1747.61575078175	2555
1750.00471024128	2548
1752.39295449761	2527
1754.78048387783	2465
1757.16729870881	2444
1759.5533993172	2553
1761.93878602942	2503
1764.32345917168	2494
1766.70741906995	2524
1769.09066604999	2519
1771.47320043735	2488
1773.85502255735	2454
1776.2361327351	2495
1778.61653129548	2501
1780.99621856318	2521
1783.37519486264	2490
1785.75346051813	2566
1788.13101585368	2525
1790.5078611931	2531
1792.88399686002	2518
1795.25942317785	2560
1797.63414046977	2518
1800.00814905878	2527
1802.38144926766	2534
1804.75404141898	2539
1807.12592583514	2570
1809.49710283829	2536
1811.86757275039	2571
1814.23733589322	2558
1816.60639258834	2536
1818.97474315712	2580
1821.34238792073	2588
1823.70932720012	2573
1826.07556131608	2572
1828.44109058918	2574
1830.8059153398	2575
1833.17003588812	2585
1835.53345255413	2532
1837.89616565765	2521
1840.25817551827	2571
1842.61948245541	2617
1844.9800867883	2566
1847.33998883598	2583
1849.69918891729	2581
1852.05768735091	2631
1854.4154844553	2602
1856.77258054875	2572
1859.12897594938	2604
1861.4846709751	2595
1863.83966594366	2589
1866.19396117261	2598
1868.54755697932	2620
1870.90045368099	2632
1873.25265159463	2557
1875.60415103708	2657
1877.95495232501	2646
1880.30505577486	2662
1882.65446170299	2619
1885.00317042548	2646
1887.35118225832	2638
1889.69849751726	2685
1892.04511651792	2660
1894.39103957574	2707
1896.73626700596	2680
1899.08079912368	2707
1901.42463624384	2707
1903.76777868116	2668
1906.11022675025	2683
1908.4519807655	2666
1910.79304104117	2678
1913.13340789134	2769
1915.47308162992	2675
1917.81206257067	2740
1920.15035102718	2687
1922.48794731286	2731
1924.82485174096	2783
1927.16106462461	2713
1929.49658627672	2787
1931.83141701008	2747
1934.1655571373	2670
1936.49900697085	2765
1938.83176682301	2780
1941.16383700594	2728
1943.49521783161	2702
1945.82590961186	2746
1948.15591265835	2741
1950.48522728262	2770
1952.81385379602	2703
1955.14179250976	2745
1957.46904373489	2735
1959.79560778233	2730
1962.12148496284	2710
1964.44667558701	2676
1966.77117996529	2756
1969.09499840799	2727
1971.41813122527	2815
1973.74057872714	2731
1976.06234122345	2778
1978.38341902391	2811
1980.7038124381	2753
1983.02352177543	2849
1985.34254734518	2763
1987.66088945649	2830
1989.97854841833	2805
1992.29552453956	2833
1994.61181812887	2810
1996.92742949483	2755
1999.24235894586	2853
2001.55660679023	2884
2003.87017333608	2787
2006.18305889143	2865
2008.49526376413	2868
2010.80678826189	2888
2013.1176326923	2909
2015.42779736282	2873
2017.73728258075	2854
2020.04608865326	2876
2022.3542158874	2959
2024.66166459008	2935
2026.96843506807	2888
2029.274527628	2997
2031.57994257637	2918
2033.88468021957	2979
2036.18874086383	2933
2038.49212481526	2951
2040.79483237983	2825
2043.0968638634	2981
2045.39821957169	2986
2047.69889981028	2980
2049.99890488462	2974
2052.29823510006	3046
2054.59689076181	2973
2056.89487217492	2929
2059.19217964437	2993
2061.48881347497	3016
2063.7847739714	3010
2066.08006143826	2959
2068.37467618	2971
2070.66861850093	3006
2072.96188870527	3028
2075.25448709707	2969
2077.54641398031	3053
2079.83766965881	3016
2082.12825443629	3023
2084.41816861634	2967
2086.70741250242	2998
2088.99598639789	3004
2091.28389060597	3014
2093.57112542978	2987
2095.85769117232	3070
2098.14358813644	3042
2100.42881662491	2939
2102.71337694037	3030
2104.99726938532	3051
2107.28049426219	3045
2109.56305187325	3012
2111.84494252069	3162
2114.12616650655	3031
2116.40672413278	3086
2118.68661570121	3101
2120.96584151355	3055
2123.24440187138	3042
2125.52229707622	3127
2127.79952742943	3069
2130.07609323227	3152
2132.35199478588	3127
2134.62723239132	3125
2136.90180634949	3137
2139.17571696123	3192
2141.44896452723	3163
2143.72154934809	3188
2145.99347172429	3189
2148.26473195623	3201
2150.53533034415	3137
2152.80526718821	3262
2155.07454278848	3111
2157.3431574449	3206
2159.61111145728	3137
2161.87840512538	3250
2164.1450387488	3250
2166.41101262707	3234
2168.67632705959	3240
2170.94098234567	3224
2173.20497878451	3203
2175.46831667519	3265
2177.73099631672	3245
2179.99301800797	3232
2182.25438204772	3291
2184.51508873466	3273
2186.77513836735	3306
2189.03453124427	3317
2191.29326766378	3225
2193.55134792416	3350
2195.80877232355	3305
2198.06554116004	3304
2200.32165473157	3258
2202.577113336	3302
2204.83191727111	3333
2207.08606683453	3244
2209.33956232384	3330
2211.59240403648	3262
2213.84459226982	3356
2216.09612732112	3345
2218.34700948753	3339
2220.59723906612	3322
2222.84681635385	3374
2225.09574164758	3390
2227.34401524408	3305
2229.59163744002	3326
2231.83860853197	3411
2234.08492881639	3406
2236.33059858968	3315
2238.5756181481	3286
2240.81998778784	3333
2243.06370780499	3348
2245.30677849555	3411
2247.54920015539	3344
2249.79097308033	3293
2252.03209756607	3365
2254.27257390822	3443
2256.51240240228	3411
2258.75158334369	3426
2260.99011702777	3367
2263.22800374976	3391
2265.46524380477	3431
2267.70183748786	3499
2269.93778509399	3455
2272.17308691801	3405
2274.40774325467	3410
2276.64175439866	3438
2278.87512064454	3457
2281.10784228682	3448
2283.33991961987	3442
2285.571352938	3443
2287.80214253541	3392
2290.03228870623	3457
2292.26179174449	3468
2294.4906519441	3488
2296.71886959892	3528
2298.9464450027	3500
2301.1733784491	3506
2303.39967023169	3466
2305.62532064395	3500
2307.85032997926	3496
2310.07469853093	3518
2312.29842659216	3517
2314.52151445608	3533
2316.7439624157	3489
2318.96577076397	3543
2321.18693979374	3471
2323.40746979777	3522
2325.62736106873	3557
2327.8466138992	3531
2330.06522858166	3554
2332.28320540853	3530
2334.50054467212	3492
2336.71724666465	3534
2338.93331167827	3488
2341.14874000501	3535
2343.36353193685	3535
2345.57768776564	3561
2347.79120778319	3539
2350.00409228117	3544
2352.21634155121	3599
2354.42795588482	3547
2356.63893557342	3578
2358.84928090838	3582
2361.05899218094	3597
2363.26806968228	3647
2365.47651370347	3628
2367.68432453552	3595
2369.89150246933	3548
2372.09804779571	3594
2374.30396080541	3619
2376.50924178907	3598
2378.71389103725	3591
2380.91790884042	3645
2383.12129548897	3612
2385.3240512732	3611
2387.52617648332	3531
2389.72767140946	3568
2391.92853634165	3660
2394.12877156985	3595
2396.32837738392	3639
2398.52735407365	3617
2400.72570192873	3641
2402.92342123875	3653
2405.12051229325	3627
2407.31697538167	3565
2409.51281079333	3559
2411.70801881751	3685
2413.90259974339	3601
2416.09655386004	3708
2418.28988145648	3663
2420.48258282162	3635
2422.6746582443	3616
2424.86610801325	3670
2427.05693241713	3644
2429.24713174452	3692
2431.43670628389	3610
2433.62565632365	3689
2435.81398215212	3555
2438.00168405752	3660
2440.18876232799	3703
2442.37521725158	3665
2444.56104911628	3634
2446.74625820994	3686
2448.93084482038	3669
2451.1148092353	3648
2453.29815174233	3630
2455.480872629	3596
2457.66297218275	3664
2459.84445069097	3624
2462.02530844092	3597
2464.2055457198	3613
2466.38516281471	3553
2468.56416001267	3657
2470.74253760061	3638
2472.92029586537	3652
2475.09743509372	3683
2477.27395557232	3600
2479.44985758777	3768
2481.62514142655	3603
2483.79980737508	3620
2485.97385571969	3626
2488.14728674661	3650
2490.32010074198	3691
2492.49229799188	3664
2494.66387878228	3611
2496.83484339905	3742
2499.00519212802	3678
2501.17492525488	3636
2503.34404306528	3741
2505.51254584473	3706
2507.6804338787	3700
2509.84770745254	3703
2512.01436685153	3708
2514.18041236085	3696
2516.34584426561	3729
2518.51066285081	3701
2520.67486840138	3741
2522.83846120214	3762
2525.00144153784	3679
2527.16380969314	3756
2529.32556595261	3740
2531.48671060072	3831
2533.64724392186	3805
2535.80716620033	3776
2537.96647772034	3777
2540.12517876602	3799
2542.2832696214	3779
2544.44075057041	3798
2546.59762189691	3713
2548.75388388466	3779
2550.90953681735	3778
2553.06458097853	3830
2555.21901665172	3832
2557.37284412031	3819
2559.5260636676	3750
2561.67867557684	3745
2563.83068013113	3761
2565.98207761351	3783
2568.13286830695	3700
2570.28305249429	3845
2572.43263045829	3803
2574.58160248163	3685
2576.72996884689	3795
2578.87772983655	3740
2581.02488573303	3793
2583.1714368186	3782
2585.31738337549	3795
2587.46272568582	3766
2589.60746403161	3802
2591.75159869479	3804
2593.89512995722	3790
2596.03805810061	3820
2598.18038340665	3808
2600.32210615686	3839
2602.46322663274	3799
2604.60374511563	3855
2606.74366188683	3741
2608.88297722751	3836
2611.02169141875	3798
2613.15980474156	3869
2615.29731747681	3873
2617.43422990532	3887
2619.57054230779	3791
2621.70625496483	3818
2623.84136815694	3793
2625.97588216456	3843
2628.10979726799	3883
2630.24311374746	3801
2632.3758318831	3953
2634.50795195493	3807
2636.6394742429	3849
2638.77039902682	3852
2640.90072658645	3870
2643.0304572014	3865
2645.15959115123	3879
2647.28812871538	3846
2649.41607017319	3866
2651.5434158039	3890
2653.67016588665	3885
2655.79632070049	3914
2657.92188052436	3878
2660.04684563711	3893
2662.17121631749	3951
2664.29499284413	3928
2666.41817549558	3904
2668.54076455027	3945
2670.66276028656	3875
2672.78416298267	3976
2674.90497291675	3947
2677.02519036682	3981
2679.14481561082	4006
2681.26384892658	3865
2683.38229059182	3947
2685.50014088417	4003
2687.61740008114	3967
2689.73406846017	3995
2691.85014629854	3944
2693.96563387347	3989
2696.08053146206	3968
2698.1948393413	3920
2700.3085577881	3920
2702.42168707924	3964
2704.53422749139	3871
2706.64617930112	3971
2708.75754278492	4036
2710.86831821913	3932
2712.97850588002	4007
2715.08810604372	4023
2717.19711898628	3969
2719.30554498363	4019
2721.41338431158	4117
2723.52063724586	4041
2725.62730406206	4071
2727.73338503569	4044
2729.83888044213	3976
2731.94379055664	4024
2734.04811565441	4044
2736.15185601048	4094
2738.25501189979	4073
2740.35758359718	4095
2742.45957137738	4054
2744.56097551499	4012
2746.6617962845	4104
2748.7620339603	4049
2750.86168881666	4087
2752.96076112774	4051
2755.05925116758	4164
2757.15715921012	4133
2759.25448552917	4071
2761.35123039843	4168
2763.44739409148	4100
2765.5429768818	4114
2767.63797904275	4118
2769.73240084756	4160
2771.82624256934	4079
2773.91950448113	4137
2776.01218685579	4159
2778.10428996609	4110
2780.19581408469	4128
2782.28675948414	4166
2784.37712643683	4161
2786.46691521507	4218
2788.55612609104	4139
2790.64475933678	4183
2792.73281522425	4194
2794.82029402525	4234
2796.90719601149	4148
2798.99352145453	4140
2801.07927062583	4203
2803.16444379672	4170
2805.24904123841	4174
2807.33306322197	4162
2809.41651001838	4156
2811.49938189847	4215
2813.58167913296	4250
2815.66340199243	4164
2817.74455074734	4273
2819.82512566805	4213
2821.90512702475	4165
2823.98455508754	4192
2826.06341012637	4202
2828.14169241109	4225
2830.2194022114	4222
2832.29653979686	4245
2834.37310543694	4302
2836.44909940096	4265
2838.5245219581	4265
2840.59937337744	4284
2842.67365392791	4257
2844.74736387829	4295
2846.82050349727	4252
2848.8930730534	4280
2850.96507281506	4379
2853.03650305056	4330
2855.10736402802	4328
2857.17765601545	4299
2859.24737928074	4301
2861.31653409164	4311
2863.38512071574	4345
2865.45313942054	4390
2867.52059047335	4355
2869.58747414139	4328
2871.65379069173	4343
2873.7195403913	4468
2875.78472350688	4370
2877.84934030515	4407
2879.91339105262	4387
2881.97687601567	4466
2884.03979546053	4500
2886.10214965332	4495
2888.16393886	4509
2890.22516334639	4437
2892.28582337816	4425
2894.34591922087	4461
2896.40545113992	4578
2898.46441940054	4505
2900.52282426787	4455
2902.58066600687	4541
2904.63794488237	4456
2906.69466115906	4409
2908.75081510147	4523
2910.806406974	4493
2912.8614370409	4537
2914.91590556626	4495
2916.96981281404	4539
2919.02315904807	4530
2921.07594453199	4516
2923.12816952932	4490
2925.17983430343	4515
2927.23093911753	4549
2929.28148423469	4595
2931.33146991782	4544
2933.3808964297	4544
2935.42976403294	4606
2937.47807299	4507
2939.5258235632	4575
2941.57301601469	4616
2943.61965060648	4617
2945.66572760042	4639
2947.71124725823	4697
2949.75620984143	4757
2951.80061561143	4720
2953.84446482945	4748
2955.88775775656	4807
2957.9304946537	4756
2959.97267578162	4785
2962.01430140095	4720
2964.05537177211	4852
2966.09588715541	4794
2968.13584781097	4793
2970.17525399875	4731
2972.21410597859	4831
2974.25240401011	4774
2976.29014835283	4768
2978.32733926604	4809
2980.36397700892	4722
2982.40006184049	4770
2984.43559401955	4762
2986.4705738048	4742
2988.50500145473	4719
2990.53887722771	4746
2992.57220138189	4799
2994.6049741753	4764
2996.63719586576	4793
2998.66886671097	4831
3000.69998696843	4895
3002.73055689549	4841
3004.7605767493	4850
3006.79004678688	4857
3008.81896726505	4756
3010.84733844048	4826
3012.87516056966	4835
3014.9024339089	4949
3016.92915871433	4891
3018.95533524196	4832
3020.98096374756	4839
3023.00604448675	4881
3025.030577715	4818
3027.05456368757	4822
3029.07800265956	4973
3031.10089488589	4854
3033.12324062131	4924
3035.14504012038	4890
3037.16629363749	4969
3039.18700142685	4913
3041.20716374249	4908
3043.22678083826	4854
3045.24585296782	5075
3047.26438038468	5033
3049.28236334212	4907
3051.29980209329	5016
3053.31669689111	4909
3055.33304798835	4929
3057.34885563757	4972
3059.36412009117	5038
3061.37884160134	5006
3063.39302042011	5031
3065.40665679931	5178
3067.41975099058	5075
3069.43230324538	5129
3071.44431381495	5070
3073.45578295041	5253
3075.46671090261	5202
3077.47709792227	5308
3079.48694425989	5337
3081.49625016578	5347
3083.50501589008	5324
3085.5132416827	5356
3087.5209277934	5260
3089.52807447169	5166
3091.53468196695	5209
3093.54075052832	5026
3095.54628040476	5137
3097.55127184503	5086
3099.55572509769	5117
3101.55964041111	5090
3103.56301803346	4943
3105.5658582127	5048
3107.56816119661	5064
3109.56992723275	5019
3111.57115656849	5088
3113.571849451	5014
3115.57200612724	5107
3117.57162684397	5035
3119.57071184775	5115
3121.56926138493	5058
3123.56727570166	5040
3125.56475504389	5056
3127.56169965735	5156
3129.55810978757	5122
3131.55398567987	5143
3133.54932757937	5117
3135.54413573099	5183
3137.53841037939	5092
3139.53215176909	5122
3141.52536014435	5137
3143.51803574924	5220
3145.51017882762	5210
3147.50178962311	5198
3149.49286837916	5170
3151.48341533897	5104
3153.47343074553	5115
3155.46291484164	5203
3157.45186786985	5163
3159.44029007252	5196
3161.42818169179	5249
3163.41554296955	5274
3165.40237414753	5261
3167.38867546718	5241
3169.37444716975	5253
3171.35968949631	5255
3173.34440268764	5202
3175.32858698436	5254
3177.31224262682	5240
3179.29536985517	5263
3181.27796890934	5237
3183.26004002902	5169
3185.24158345368	5251
3187.22259942256	5216
3189.2030881747	5220
3191.18304994886	5241
3193.16248498363	5319
3195.14139351733	5238
3197.11977578807	5188
3199.09763203371	5286
3201.07496249191	5364
3203.05176740007	5265
3205.02804699537	5314
3207.00380151475	5289
3208.97903119493	5248
3210.95373627238	5339
3212.92791698335	5407
3214.90157356383	5375
3216.8747062496	5401
3218.84731527619	5370
3220.81940087889	5456
3222.79096329275	5409
3224.76200275259	5400
3226.73251949298	5439
3228.70251374825	5407
3230.67198575251	5432
3232.64093573959	5472
3234.6093639431	5463
3236.57727059641	5519
3238.54465593261	5568
3240.51152018461	5466
3242.47786358502	5507
3244.44368636621	5618
3246.40898876031	5406
3248.37377099923	5538
3250.33803331458	5455
3252.30177593775	5622
3254.26499909987	5488
3256.22770303184	5677
3258.18988796427	5516
3260.15155412755	5562
3262.1127017518	5581
3264.0733310669	5604
3266.03344230246	5560
3267.99303568784	5529
3269.95211145215	5590
3271.91066982422	5613
3273.86871103267	5581
3275.82623530581	5585
3277.7832428717	5667
3279.73973395818	5668
3281.69570879278	5646
3283.6511676028	5623
3285.60611061527	5633
3287.56053805694	5657
3289.51445015432	5750
3291.46784713364	5691
3293.42072922088	5697
3295.37309664173	5534
3297.32494962163	5712
3299.27628838575	5685
3301.227113159	5620
3303.17742416601	5802
3305.12722163114	5741
3307.07650577848	5649
3309.02527683185	5722
3310.9735350148	5795
3312.9212805506	5688
3314.86851366225	5736
3316.81523457249	5706
3318.76144350377	5713
3320.70714067825	5756
3322.65232631783	5650
3324.59700064415	5640
3326.54116387854	5807
3328.48481624207	5677
3330.42795795551	5761
3332.37058923938	5565
3334.31271031389	5752
3336.25432139898	5673
3338.19542271432	5752
3340.13601447927	5727
3342.07609691292	5726
3344.01567023407	5708
3345.95473466124	5760
3347.89329041266	5731
3349.83133770627	5777
3351.76887675973	5748
3353.70590779039	5635
3355.64243101534	5778
3357.57844665135	5755
3359.51395491492	5748
3361.44895602224	5659
3363.38345018922	5719
3365.31743763148	5712
3367.25091856432	5640
3369.18389320278	5699
3371.11636176156	5765
3373.0483244551	5764
3374.97978149754	5776
3376.91073310269	5812
3378.84117948409	5776
3380.77112085498	5852
3382.70055742826	5816
3384.62948941659	5846
3386.55791703227	5810
3388.48584048733	5816
3390.41325999348	5934
3392.34017576214	5801
3394.2665880044	5753
3396.19249693107	5834
3398.11790275263	5835
3400.04280567926	5886
3401.96720592084	5983
3403.89110368692	5933
3405.81449918675	5968
3407.73739262928	5896
3409.65978422311	5787
3411.58167417658	5865
3413.50306269768	5953
3415.42394999408	5906
3417.34433627316	5903
3419.26422174195	5818
3421.18360660721	5897
3423.10249107532	5795
3425.02087535239	5934
3426.93875964421	5880
3428.8561441562	5856
3430.77302909353	5946
3432.68941466097	5936
3434.60530106301	5936
3436.52068850383	6053
3438.43557718726	5948
3440.34996731681	5855
3442.26385909565	5924
3444.17725272664	5914
3446.09014841231	5946
3448.00254635486	5932
3449.91444675614	5873
3451.82584981771	5921
3453.73675574076	5920
3455.64716472616	5805
3457.55707697445	5853
3459.46649268584	5859
3461.37541206018	5884
3463.28383529703	5856
3465.19176259555	5838
3467.09919415464	5881
3469.00613017278	5847
3470.91257084817	5846
3472.81851637863	5760
3474.72396696168	5728
3476.62892279446	5890
3478.53338407379	5865
3480.43735099614	5772
3482.34082375764	5831
3484.24380255404	5853
3486.1462875808	5839
3488.048279033	5860
3489.94977710537	5874
3491.85078199231	5817
3493.75129388783	5851
3495.65131298566	5855
3497.5508394791	5857
3499.44987356115	5819
