201.866871357051	1250
204.754250281454	1234
207.640596790938	1248
210.525911876299	1263
213.410196525689	1265
216.293451724508	1261
219.175678455485	1237
222.056877698662	1230
224.937050431388	1263
227.816197628363	1250
230.694320261602	1258
233.571419300504	1298
236.447495711764	1261
239.322550459507	1267
242.196584505182	1293
245.069598807626	1295
247.941594323078	1290
250.812572005154	1267
253.682532804884	1275
256.551477670699	1253
259.419407548456	1299
262.286323381439	1321
265.152226110364	1285
268.017116673389	1361
270.880996006115	1305
273.743865041622	1331
276.605724710436	1352
279.466575940562	1365
282.326419657496	1335
285.1852567842	1355
288.043088241157	1354
290.899914946349	1305
293.75573781526	1325
296.610557760898	1355
299.464375693817	1341
302.317192522078	1327
305.169009151297	1317
308.019826484655	1305
310.86964542287	1300
313.718466864233	1295
316.566291704614	1359
319.413120837457	1314
322.258955153804	1305
325.103795542291	1347
327.947642889128	1301
330.79049807819	1307
333.632361990927	1322
336.473235506444	1308
339.31311950145	1326
342.152014850322	1351
344.989922425062	1333
347.826843095354	1312
350.662777728528	1343
353.497727189577	1335
356.331692341195	1387
359.164674043732	1388
361.996673155267	1363
364.827690531536	1359
367.65772702602	1365
370.486783489887	1369
373.314860772047	1361
376.14195971912	1378
378.968081175466	1351
381.793225983212	1365
384.617394982201	1390
387.44058901005	1393
390.262808902131	1366
393.08405549161	1386
395.904329609395	1353
398.723632084213	1365
401.541963742569	1407
404.359325408779	1396
407.175717904938	1412
409.991142050982	1395
412.805598664665	1420
415.619088561551	1416
418.43161255505	1374
421.243171456415	1410
424.053766074758	1437
426.863397217017	1446
429.672065688024	1438
432.479772290455	1411
435.286517824879	1401
438.092303089736	1422
440.897128881359	1400
443.70099599399	1444
446.503905219761	1402
449.305857348711	1427
452.106853168796	1426
454.906893465919	1439
457.705979023885	1453
460.504110624439	1417
463.3012890473	1416
466.097515070087	1433
468.892789468424	1391
471.687113015869	1422
474.48048648395	1414
477.272910642198	1443
480.064386258109	1451
482.854914097159	1430
485.644494922839	1438
488.433129496636	1442
491.220818578047	1434
494.007562924584	1421
496.793363291785	1436
499.578220433217	1396
502.362135100473	1474
505.145108043209	1451
507.927140009098	1477
510.708231743909	1459
513.488383991433	1468
516.267597493556	1441
519.04587299022	1472
521.82321121946	1454
524.599612917398	1491
527.375078818233	1516
530.149609654287	1478
532.923206155967	1494
535.695869051804	1481
538.467599068448	1490
541.238396930665	1454
544.008263361364	1442
546.777199081578	1460
549.545204810493	1462
552.312281265436	1482
555.078429161898	1429
557.843649213533	1465
560.607942132156	1442
563.371308627753	1472
566.133749408495	1475
568.895265180756	1464
571.655856649064	1556
574.415524516189	1452
577.174269483075	1481
579.932092248884	1515
582.688993510994	1485
585.444973965023	1507
588.200034304795	1506
590.95417522237	1497
593.70739740807	1525
596.459701550433	1545
599.21108833628	1529
601.961558450668	1516
604.711112576933	1496
607.459751396673	1466
610.207475589748	1510
612.954285834338	1482
615.700182806879	1498
618.445167182101	1494
621.189239633055	1496
623.932400831087	1495
626.674651445839	1480
629.415992145303	1505
632.156423595745	1502
634.895946461813	1438
637.634561406449	1520
640.37226909096	1498
643.109070174978	1519
645.844965316508	1476
648.579955171888	1479
651.314040395846	1499
654.047221641456	1535
656.779499560176	1527
659.510874801828	1535
662.241348014642	1487
664.97091984524	1508
667.699590938606	1543
670.427361938164	1474
673.15423348573	1507
675.880206221526	1541
678.605280784206	1583
681.329457810829	1566
684.05273793692	1569
686.775121796389	1571
689.49661002163	1543
692.217203243454	1574
694.936902091144	1611
697.655707192425	1554
700.373619173493	1501
703.09063865901	1566
705.806766272093	1537
708.522002634378	1556
711.236348365946	1549
713.94980408538	1606
716.662370409762	1544
719.374047954676	1545
722.08483733419	1584
724.794739160909	1570
727.503754045949	1578
730.21188259892	1498
732.919125427998	1539
735.625483139855	1551
738.330956339723	1572
741.035545631374	1559
743.739251617106	1587
746.44207489779	1569
749.144016072852	1603
751.845075740272	1614
754.545254496603	1602
757.244552936976	1621
759.94297165508	1603
762.640511243222	1598
765.337172292249	1626
768.032955391649	1593
770.727861129482	1625
773.421890092413	1638
776.11504286572	1612
778.807320033298	1559
781.49872217765	1593
784.18924987991	1609
786.87890371984	1630
789.567684275826	1627
792.255592124908	1601
794.94262784276	1611
797.628792003703	1625
800.314085180715	1616
802.998507945427	1635
805.682060868145	1609
808.364744517821	1613
811.046559462105	1632
813.727506267311	1654
816.407585498422	1610
819.08679771913	1628
821.765143491822	1645
824.442623377563	1632
827.119237936127	1686
829.794987726003	1705
832.469873304377	1666
835.143895227167	1670
837.817054048985	1709
840.489350323205	1674
843.160784601892	1684
845.831357435894	1663
848.501069374739	1691
851.169920966753	1729
853.837912758987	1699
856.505045297232	1676
859.171319126071	1747
861.836734788823	1663
864.501292827579	1737
867.164993783208	1741
869.827838195361	1703
872.489826602454	1729
875.150959541701	1741
877.811237549104	1709
880.470661159456	1730
883.129230906357	1697
885.786947322205	1704
888.443810938206	1752
891.099822284385	1759
893.754981889586	1748
896.409290281452	1730
899.062747986485	1772
901.715355529999	1750
904.367113436154	1717
907.01802222793	1796
909.668082427172	1746
912.317294554574	1755
914.965659129659	1812
917.613176670835	1746
920.259847695364	1752
922.90567271936	1800
925.550652257825	1778
928.194786824621	1797
930.838076932512	1819
933.480523093109	1837
936.122125816953	1760
938.762885613447	1837
941.402802990899	1805
944.041878456523	1811
946.680112516428	1867
949.31750567563	1832
951.954058438081	1844
954.589771306633	1861
957.224644783048	1852
959.858679368044	1838
962.491875561238	1800
965.12423386121	1838
967.75575476545	1873
970.386438770423	1829
973.016286371501	1841
975.645298063046	1896
978.273474338355	1878
980.900815689674	1906
983.527322608243	1881
986.152995584245	1889
988.777835106834	1929
991.401841664148	1895
994.025015743307	1966
996.647357830407	1844
999.268868410534	1906
1001.88954796777	1960
1004.50939698518	1968
1007.12841594484	1946
1009.74660532783	1961
1012.36396561423	2014
1014.98049728314	2026
1017.59620081267	2004
1020.21107667995	2007
1022.82512536112	1998
1025.43834733138	2029
1028.05074306493	2063
1030.66231303501	2027
1033.27305771392	2086
1035.88297757299	2110
1038.49207308257	2105
1041.10034471211	2077
1043.70779293008	2031
1046.31441820402	2081
1048.92022100052	2135
1051.52520178525	2126
1054.12936102295	2089
1056.73269917742	2179
1059.33521671154	2196
1061.93691408729	2201
1064.53779176571	2200
1067.13785020694	2252
1069.73708987022	2209
1072.33551121386	2234
1074.93311469528	2169
1077.52990077103	2225
1080.12586989674	2296
1082.72102252714	2373
1085.31535911611	2406
1087.90888011663	2336
1090.50158598078	2308
1093.09347715979	2256
1095.68455410403	2281
1098.27481726296	2201
1100.86426708523	2266
1103.45290401857	2255
1106.04072850991	2280
1108.6277410053	2257
1111.21394194993	2247
1113.79933178816	2302
1116.3839109635	2366
1118.96767991862	2389
1121.55063909539	2354
1124.13278893477	2392
1126.71412987696	2397
1129.29466236132	2454
1131.87438682637	2460
1134.45330370982	2370
1137.03141344858	2417
1139.60871647872	2451
1142.18521323554	2469
1144.7609041535	2479
1147.33578966629	2472
1149.90987020676	2441
1152.48314620702	2472
1155.05561809835	2503
1157.62728631125	2453
1160.19815127545	2519
1162.76821341988	2592
1165.33747317271	2554
1167.90593096133	2550
1170.47358721235	2560
1173.04044235163	2540
1175.60649680425	2594
1178.17175099454	2600
1180.73620534607	2587
1183.29986028165	2596
1185.86271622336	2602
1188.42477359249	2626
1190.98603280964	2621
1193.54649429462	2625
1196.10615846653	2644
1198.66502574372	2690
1201.22309654385	2714
1203.78037128378	2748
1206.33685037971	2731
1208.89253424709	2749
1211.44742330063	2742
1214.00151795438	2767
1216.55481862163	2777
1219.10732571497	2793
1221.65903964631	2850
1224.20996082683	2892
1226.760089667	2878
1229.30942657664	2823
1231.85797196483	2871
1234.40572623998	2913
1236.95268980981	2959
1239.49886308136	2972
1242.04424646098	2950
1244.58884035435	3025
1247.13264516647	3026
1249.67566130166	3068
1252.21788916358	3002
1254.75932915524	3194
1257.29998167896	3215
1259.83984713639	3167
1262.37892592857	3238
1264.91721845586	3247
1267.45472511795	3220
1269.9914463139	3346
1272.52738244213	3361
1275.0625339004	3380
1277.59690108587	3414
1280.130484395	3403
1282.66328422367	3465
1285.19530096712	3451
1287.72653501993	3504
1290.25698677608	3619
1292.78665662894	3628
1295.31554497125	3698
1297.8436521951	3674
1300.37097869203	3598
1302.89752485292	3762
1305.42329106805	3666
1307.94827772713	3693
1310.47248521921	3732
1312.99591393279	3759
1315.51856425575	3829
1318.04043657536	3834
1320.56153127836	3853
1323.08184875083	3930
1325.6013893783	3903
1328.12015354572	4064
1330.63814163744	4084
1333.15535403727	4132
1335.67179112839	4203
1338.18745329347	4276
1340.70234091454	4320
1343.21645437314	4335
1345.72979405019	4358
1348.24236032607	4410
1350.75415358059	4431
1353.26517419303	4514
1355.7754225421	4535
1358.28489900594	4512
1360.79360396218	4692
1363.30153778787	4721
1365.80870085955	4676
1368.31509355319	4724
1370.82071624424	4827
1373.32556930762	4830
1375.8296531177	4805
1378.33296804832	4952
1380.83551447282	4940
1383.33729276399	4978
1385.83830329408	5017
1388.33854643489	5082
1390.83802255762	5086
1393.33673203301	5168
1395.83467523128	5214
1398.33185252211	5207
1400.82826427471	5272
1403.32391085777	5286
1405.81879263947	5436
1408.31290998752	5533
1410.80626326908	5571
1413.29885285087	5547
1415.79067909909	5714
1418.28174237944	5659
1420.77204305717	5928
1423.26158149702	5887
1425.75035806323	5965
1428.2383731196	6109
1430.72562702942	6178
1433.21212015554	6173
1435.69785286028	6347
1438.18282550555	6563
1440.66703845275	6510
1443.15049206284	6718
1445.6331866963	6762
1448.11512271316	6906
1450.59630047298	6905
1453.07672033486	6987
1455.55638265748	7044
1458.03528779902	7159
1460.51343611725	7114
1462.99082796946	7284
1465.46746371252	7332
1467.94334370285	7480
1470.41846829642	7484
1472.89283784878	7631
1475.36645271503	7713
1477.83931324983	7889
1480.31141980743	7873
1482.78277274164	8028
1485.25337240583	7893
1487.72321915297	8012
1490.19231333557	8098
1492.66065530578	8198
1495.12824541525	8354
1497.5950840153	8574
1500.06117145678	8475
1502.52650809014	8638
1504.99109426543	8637
1507.45493033227	8683
1509.91801663992	8821
1512.38035353717	8959
1514.84194137248	9039
1517.30278049386	9208
1519.76287124894	9244
1522.22221398497	9374
1524.68080904876	9548
1527.13865678681	9556
1529.59575754514	9737
1532.05211166945	9714
1534.50771950503	9814
1536.96258139678	10112
1539.41669768924	10090
1541.87006872656	10290
1544.32269485252	10394
1546.77457641051	10355
1549.22571374357	10576
1551.67610719434	10665
1554.12575710513	10787
1556.57466381785	10764
1559.02282767408	10921
1561.47024901499	11072
1563.91692818144	11115
1566.3628655139	11201
1568.80806135249	11429
1571.252516037	11455
1573.6962299068	11624
1576.13920330099	11771
1578.58143655828	11889
1581.02293001704	12057
1583.46368401528	11941
1585.90369889071	12171
1588.34297498065	12272
1590.7815126221	12141
1593.21931215173	12335
1595.65637390588	12418
1598.09269822053	12426
1600.52828543135	12498
1602.96313587367	12620
1605.3972498825	12589
1607.83062779252	12565
1610.26326993808	12653
1612.69517665322	12729
1615.12634827165	12781
1617.55678512676	12833
1619.98648755163	12800
1622.41545587902	12878
1624.84369044138	12824
1627.27119157085	13052
1629.69795959924	13021
1632.12399485808	13289
1634.54929767859	13158
1636.97386839165	13161
1639.39770732789	13385
1641.8208148176	13258
1644.24319119078	13414
1646.66483677715	13291
1649.0857519061	13499
1651.50593690677	13475
1653.92539210795	13539
1656.3441178382	13661
1658.76211442575	13660
1661.17938219855	13826
1663.59592148428	13888
1666.01173261032	13911
1668.42681590377	14011
1670.84117169145	13984
1673.25480029991	13922
1675.66770205541	13997
1678.07987728393	14112
1680.49132631119	14341
1682.90204946263	14252
1685.31204706342	14332
1687.72131943846	14433
1690.1298669124	14390
1692.53768980957	14536
1694.94478845411	14420
1697.35116316982	14546
1699.75681428031	14511
1702.16174210887	14359
1704.56594697858	14504
1706.96942921222	14659
1709.37218913235	14626
1711.77422706125	14513
1714.17554332098	14577
1716.5761382333	14581
1718.97601211977	14658
1721.37516530169	14673
1723.77359810006	14484
1726.17131083572	14701
1728.56830382922	14667
1730.96457740087	14736
1733.36013187075	14566
1735.75496755868	14658
1738.14908478428	14451
1740.54248386689	14720
1742.93516512565	14487
1745.32712887946	14636
1747.71837544697	14546
1750.10890514662	14578
1752.49871829661	14609
1754.88781521492	14677
1757.27619621929	14631
1759.66386162726	14693
1762.05081175612	14880
1764.43704692297	14859
1766.82256744465	14697
1769.20737363782	14672
1771.59146581887	14726
1773.97484430405	14934
1776.35750940932	14890
1778.73946145048	15028
1781.12070074309	14779
1783.50122760249	15081
1785.88104234385	14995
1788.26014528209	15060
1790.63853673196	14975
1793.01621700796	15220
1795.39318642443	15266
1797.76944529549	15275
1800.14499393503	15208
1802.51983265681	15305
1804.8939617743	15466
1807.26738160085	15414
1809.64009244957	15355
1812.01209463339	15243
1814.38338846504	15526
1816.75397425706	15159
1819.12385232181	15406
1821.49302297142	15407
1823.86148651789	15464
1826.22924327299	15314
1828.59629354831	15666
1830.96263765526	15407
1833.32827590507	15553
1835.69320860877	15568
1838.05743607724	15430
1840.42095862113	15587
1842.78377655097	15663
1845.14589017707	15420
1847.50729980956	15553
1849.86800575843	15521
1852.22800833346	15656
1854.58730784427	15657
1856.94590460032	15883
1859.30379891087	15701
1861.66099108503	15791
1864.01748143175	15899
1866.37327025978	16026
1868.72835787773	15699
1871.08274459403	15947
1873.43643071697	15932
1875.78941655464	16033
1878.14170241498	15945
1880.4932886058	16168
1882.84417543469	16366
1885.19436320915	16260
1887.54385223646	16239
1889.89264282378	16301
1892.24073527809	16478
1894.58812990625	16611
1896.93482701493	16717
1899.28082691067	16688
1901.62612989984	16886
1903.97073628868	16826
1906.31464638326	16918
1908.6578604895	16930
1911.00037891321	16985
1913.34220196	17094
1915.68332993537	17224
1918.02376314468	17203
1920.36350189311	17182
1922.70254648573	17291
1925.04089722744	17206
1927.37855442303	17294
1929.71551837715	17339
1932.05178939426	17326
1934.38736777876	17531
1936.72225383484	17319
1939.0564478666	17599
1941.38995017799	17612
1943.72276107283	17541
1946.05488085479	17428
1948.38630982744	17486
1950.71704829419	17842
1953.04709655832	17539
1955.376454923	17749
1957.70512369126	17784
1960.03310316599	17804
1962.36039364999	17831
1964.68699544589	17744
1967.01290885622	17981
1969.33813418338	18138
1971.66267172965	18076
1973.98652179718	18189
1976.309684688	18168
1978.63216070402	18212
1980.95395014705	18544
1983.27505331873	18300
1985.59547052063	18653
1987.9152020542	18651
1990.23424822074	18583
1992.55260932146	18685
1994.87028565746	18890
1997.18727752968	18826
1999.503585239	19163
2001.81920908618	19134
2004.13414937184	19260
2006.44840639651	19374
2008.7619804606	19561
2011.07487186442	19593
2013.38708090815	19846
2015.6986078919	19887
2018.00945311564	19884
2020.31961687923	20103
2022.62909948246	20276
2024.93790122498	20211
2027.24602240636	20517
2029.55346332604	20586
2031.86022428337	20580
2034.16630557761	20899
2036.47170750791	20697
2038.77643037331	21075
2041.08047447275	21052
2043.38384010509	21116
2045.68652756907	21036
2047.98853716335	21309
2050.28986918648	21320
2052.59052393692	21695
2054.89050171302	21451
2057.18980281306	21728
2059.4884275352	21665
2061.78637617753	21717
2064.08364903802	21880
2066.38024641457	21948
2068.67616860497	21930
2070.97141590694	21869
2073.26598861809	22081
2075.55988703595	21938
2077.85311145796	22075
2080.14566218145	22183
2082.43753950371	22176
2084.72874372188	22210
2087.01927513307	22555
2089.30913403428	22566
2091.59832072241	22436
2093.88683549429	22543
2096.17467864666	22649
2098.46185047619	22501
2100.74835127944	22733
2103.03418135292	23022
2105.31934099303	22584
2107.6038304961	22905
2109.88765015838	23026
2112.17080027602	23026
2114.45328114513	23284
2116.7350930617	23088
2119.01623632165	23204
2121.29671122085	23157
2123.57651805505	23367
2125.85565711996	23372
2128.13412871117	23471
2130.41193312424	23501
2132.68907065462	23365
2134.96554159771	23643
2137.24134624881	23728
2139.51648490317	23756
2141.79095785593	23540
2144.0647654022	23794
2146.33790783698	23772
2148.61038545524	23686
2150.88219855182	23833
2153.15334742154	23810
2155.42383235911	24194
2157.6936536592	23916
2159.9628116164	23800
2162.23130652522	23987
2164.49913868011	23732
2166.76630837544	23914
2169.03281590552	23754
2171.2986615646	23956
2173.56384564685	23743
2175.82836844637	23607
2178.0922302572	23764
2180.35543137332	23544
2182.61797208862	23755
2184.87985269695	23614
2187.14107349208	23455
2189.40163476773	23639
2191.66153681753	23506
2193.92077993507	23346
2196.17936441386	23265
2198.43729054735	23259
2200.69455862894	23052
2202.95116895194	23128
2205.20712180962	23160
2207.46241749519	23093
2209.71705630179	22995
2211.97103852248	23041
2214.2243644503	22880
2216.47703437819	22866
2218.72904859905	22634
2220.98040740571	22642
2223.23111109095	22588
2225.4811599475	22408
2227.73055426799	22504
2229.97929434504	22362
2232.22738047118	22012
2234.47481293889	22181
2236.72159204058	22233
2238.96771806864	22136
2241.21319131536	21965
2243.458012073	21771
2245.70218063374	21851
2247.94569728973	21933
2250.18856233304	21684
2252.4307760557	21318
2254.67233874967	21550
2256.91325070687	21325
2259.15351221915	21298
2261.39312357831	21094
2263.63208507611	21009
2265.87039700422	20981
2268.1080596543	21024
2270.34507331792	20887
2272.5814382866	20622
2274.81715485183	20720
2277.05222330502	20762
2279.28664393755	20570
2281.52041704072	20432
2283.75354290581	20442
2285.98602182401	20252
2288.21785408648	20173
2290.44903998434	19964
2292.67957980862	19907
2294.90947385033	19716
2297.1387224004	19892
2299.36732574975	19791
2301.59528418921	19572
2303.82259800958	19600
2306.04926750158	19426
2308.27529295593	19290
2310.50067466325	19205
2312.72541291412	19298
2314.9495079991	19118
2317.17296020866	19199
2319.39576983323	19162
2321.61793716322	18894
2323.83946248894	18889
2326.06034610069	18690
2328.28058828871	18659
2330.50018934317	18491
2332.7191495542	18325
2334.93746921192	18418
2337.15514860633	18203
2339.37218802743	18162
2341.58858776516	17972
2343.80434810941	18065
2346.01946935001	17957
2348.23395177675	18044
2350.44779567939	17827
2352.66100134759	17484
2354.87356907101	17658
2357.08549913925	17605
2359.29679184185	17366
2361.50744746829	17441
2363.71746630804	17358
2365.92684865048	17059
2368.13559478499	16991
2370.34370500083	17199
2372.55117958727	17105
2374.75801883352	16922
2376.96422302874	16748
2379.16979246202	16774
2381.37472742243	16641
2383.57902819898	16518
2385.78269508063	16418
2387.98572835629	16434
2390.18812831482	16387
2392.38989524505	16404
2394.59102943573	16277
2396.79153117559	16164
2398.9914007533	16173
2401.19063845748	16193
2403.38924457672	15860
2405.58721939951	15882
2407.78456321435	15797
2409.98127630966	15808
2412.17735897382	15685
2414.37281149517	15536
2416.56763416198	15614
2418.76182726249	15591
2420.95539108487	15491
2423.14832591726	15386
2425.34063204776	15443
2427.53230976439	15262
2429.72335935513	15300
2431.91378110795	15187
2434.10357531071	15090
2436.29274225125	15116
2438.48128221739	14923
2440.66919549683	14937
2442.8564823773	14705
2445.04314314641	14819
2447.22917809176	14804
2449.4145875009	14741
2451.59937166131	14750
2453.78353086044	14612
2455.96706538568	14662
2458.14997552436	14438
2460.33226156379	14377
2462.51392379119	14442
2464.69496249376	14312
2466.87537795862	14334
2469.05517047288	14119
2471.23434032357	14064
2473.41288779767	14231
2475.59081318211	13924
2477.76811676378	13944
2479.9447988295	13923
2482.12085966605	13836
2484.29629956016	13850
2486.4711187985	13862
2488.64531766769	13718
2490.8188964543	13708
2492.99185544484	13692
2495.16419492579	13640
2497.33591518353	13587
2499.50701650444	13526
2501.67749917482	13547
2503.84736348091	13450
2506.01660970891	13415
2508.18523814496	13304
2510.35324907514	13369
2512.52064278551	13347
2514.68741956201	13377
2516.85357969058	13454
2519.01912345709	13256
2521.18405114735	13258
2523.34836304711	13298
2525.51205944208	13242
2527.6751406179	13201
2529.83760686016	13117
2531.99945845439	13132
2534.16069568606	13081
2536.3213188406	13106
2538.48132820336	12949
2540.64072405965	13032
2542.79950669471	13095
2544.95767639373	12972
2547.11523344184	12866
2549.27217812411	12891
2551.42851072555	12858
2553.58423153111	12828
2555.73934082569	12647
2557.89383889412	12667
2560.04772602118	12783
2562.20100249158	12666
2564.35366858996	12588
2566.50572460093	12551
2568.65717080901	12509
2570.80800749867	12491
2572.95823495433	12362
2575.10785346031	12303
2577.25686330093	12229
2579.40526476038	12204
2581.55305812282	12259
2583.70024367237	12090
2585.84682169303	12025
2587.99279246879	12158
2590.13815628354	12218
2592.28291342112	12166
2594.42706416531	12221
2596.5706087998	11989
2598.71354760826	12061
2600.85588087425	12069
2602.99760888127	11981
2605.13873191278	11908
2607.27925025214	11769
2609.41916418269	11946
2611.55847398764	11906
2613.69717995017	11854
2615.83528235339	12004
2617.97278148034	12028
2620.10967761398	11970
2622.2459710372	11923
2624.38166203284	11850
2626.51675088365	11955
2628.65123787231	11677
2630.78512328145	11865
2632.9184073936	11785
2635.05109049124	11802
2637.18317285676	11780
2639.31465477248	11922
2641.44553652067	11906
2643.5758183835	11827
2645.70550064309	11826
2647.83458358144	11886
2649.96306748053	12003
2652.09095262223	11936
2654.21823928836	11937
2656.34492776063	11832
2658.47101832071	11819
2660.59651125015	11932
2662.72140683047	11796
2664.84570534309	11860
2666.96940706934	11703
2669.0925122905	11691
2671.21502128773	11810
2673.33693434215	11863
2675.45825173479	11970
2677.57897374658	11842
2679.69910065839	11818
2681.818632751	11734
2683.93757030511	11834
2686.05591360133	11849
2688.17366292021	11798
2690.29081854218	11815
2692.40738074762	11814
2694.52334981681	11801
2696.63872602995	11803
2698.75350966713	11830
2700.86770100841	11919
2702.98130033371	11701
2705.09430792289	11933
2707.20672405571	11788
2709.31854901185	11865
2711.42978307091	11852
2713.54042651238	11930
2715.65047961567	12035
2717.7599426601	11965
2719.86881592491	11939
2721.97709968924	11866
2724.08479423213	11918
2726.19189983255	11908
2728.29841676934	11891
2730.4043453213	12108
2732.5096857671	11885
2734.61443838532	11903
2736.71860345444	11935
2738.82218125286	11962
2740.92517205889	12046
2743.02757615072	11967
2745.12939380646	12103
2747.23062530411	12005
2749.33127092159	12083
2751.4313309367	12001
2753.53080562716	12225
2755.62969527058	12148
2757.72800014448	11962
2759.82572052625	12122
2761.92285669323	12232
2764.0194089226	12204
2766.11537749147	12055
2768.21076267686	12091
2770.30556475566	11971
2772.39978400465	12274
2774.49342070054	12128
2776.58647511991	12317
2778.67894753923	12312
2780.77083823487	12432
2782.8621474831	12263
2784.95287556007	12176
2787.04302274184	12284
2789.13258930433	12279
2791.22157552338	12266
2793.30998167471	12354
2795.39780803392	12465
2797.4850548765	12408
2799.57172247786	12415
2801.65781111324	12332
2803.74332105781	12464
2805.82825258661	12428
2807.91260597457	12512
2809.9963814965	12475
2812.07957942711	12346
2814.16220004096	12497
2816.24424361252	12433
2818.32571041614	12524
2820.40660072604	12605
2822.48691481631	12752
2824.56665296098	12681
2826.64581543388	12691
2828.72440250876	12850
2830.80241445925	12889
2832.87985155885	12810
2834.95671408093	13114
2837.03300229875	13175
2839.10871648544	13367
2841.18385691399	13664
2843.25842385729	13910
2845.33241758808	13955
2847.40583837898	14413
2849.4786865025	14476
2851.550962231	14366
2853.6226658367	14258
2855.69379759173	14318
2857.76435776806	14143
2859.83434663753	14203
2861.90376447184	14094
2863.97261154259	14028
2866.0408881212	13975
2868.10859447901	14123
2870.17573088717	14189
2872.24229761673	14189
2874.30829493859	14414
2876.37372312352	14333
2878.43858244215	14619
2880.50287316496	14686
2882.56659556231	14972
2884.62974990439	14670
2886.69233646129	14710
2888.75435550293	14716
2890.81580729909	14708
2892.87669211941	14696
2894.93701023339	14762
2896.99676191039	14826
2899.05594741961	14914
2901.1145670301	14719
2903.1726210108	14649
2905.23010963045	14791
2907.28703315768	14739
2909.34339186096	14817
2911.39918600861	14687
2913.45441586879	14659
2915.50908170952	14583
2917.56318379867	14796
2919.61672240395	14919
2921.66969779291	14750
2923.72211023295	15053
2925.77395999134	14897
2927.82524733515	15029
2929.87597253132	14784
2931.92613584663	14920
2933.97573754769	14788
2936.02477790097	14650
2938.07325717276	14584
2940.1211756292	14692
2942.16853353626	14681
2944.21533115976	14765
2946.26156876536	14557
2948.30724661853	14595
2950.3523649846	14507
2952.39692412872	14479
2954.44092431587	14548
2956.48436581089	14584
2958.52724887843	14442
2960.56957378296	14690
2962.6113407888	14394
2964.65255016011	14695
2966.69320216083	14701
2968.73329705479	14644
2970.77283510559	14535
2972.81181657671	14565
2974.8502417314	14839
2976.88811083279	14788
2978.92542414378	14715
2980.96218192713	14831
2982.99838444541	14884
2985.034031961	14819
2987.06912473612	14815
2989.1036630328	14892
2991.13764711288	14998
2993.17107723804	14910
2995.20395366974	14955
2997.23627666931	15134
2999.26804649782	15088
3001.29926341624	15202
3003.32992768528	15201
3005.3600395655	15160
3007.38959931726	15139
3009.41860720076	15220
3011.44706347595	15303
3013.47496840263	15300
3015.50232224041	15411
3017.5291252487	15521
3019.5553776867	15407
3021.58107981344	15423
3023.60623188773	15456
3025.63083416822	15608
3027.65488691331	15597
3029.67839038125	15698
3031.70134483007	15388
3033.72375051759	15641
3035.74560770144	15581
3037.76691663907	15613
3039.78767758768	15702
3041.80789080431	15578
3043.82755654577	15770
3045.84667506867	15660
3047.8652466294	15810
3049.88327148418	15597
3051.90074988899	15628
3053.91768209961	15672
3055.9340683716	15542
3057.94990896033	15636
3059.96520412095	15889
3061.97995410838	15739
3063.99415917734	15799
3066.00781958234	15590
3068.02093557766	15658
3070.03350741738	15416
3072.04553535535	15567
3074.05701964521	15626
3076.06796054036	15747
3078.078358294	15398
3080.08821315912	15549
3082.09752538846	15709
3084.10629523454	15339
3086.11452294967	15614
3088.12220878592	15515
3090.12935299515	15596
3092.13595582898	15499
3094.1420175388	15554
3096.14753837579	15456
3098.15251859088	15600
3100.15695843477	15654
3102.16085815793	15555
3104.16421801061	15655
3106.16703824282	15516
3108.16931910432	15451
3110.17106084464	15503
3112.17226371308	15592
3114.17292795872	15619
3116.17305383034	15559
3118.17264157657	15423
3120.17169144571	15561
3122.17020368587	15439
3124.16817854492	15414
3126.16561627044	15506
3128.16251710982	15774
3130.15888131017	15622
3132.15470911837	15662
3134.15000078104	15718
3136.14475654455	15528
3138.13897665502	15668
3140.13266135835	15516
3142.12581090014	15568
3144.11842552577	15662
3146.11050548036	15712
3148.10205100875	15478
3150.09306235557	15789
3152.08353976515	15538
3154.07348348158	15533
3156.06289374869	15668
3158.05177081006	15651
3160.04011490899	15492
3162.02792628852	15763
3164.01520519145	15479
3166.00195186029	15622
3167.98816653728	15619
3169.97384946442	15596
3171.95900088344	15669
3173.94362103577	15604
3175.92771016259	15702
3177.91126850484	15533
3179.89429630312	15677
3181.87679379782	15359
3183.85876122903	15751
3185.84019883657	15720
3187.82110685997	15580
3189.80148553851	15435
3191.78133511116	15746
3193.76065581664	15440
3195.73944789337	15849
3197.7177115795	15640
3199.6954471129	15754
3201.67265473114	15710
3203.64933467153	15570
3205.62548717107	15773
3207.60111246648	15820
3209.57621079421	15669
3211.55078239041	15632
3213.52482749093	15611
3215.49834633133	15801
3217.4713391469	15889
3219.44380617262	15670
3221.41574764317	15800
3223.38716379296	15548
3225.35805485607	15764
3227.32842106631	15822
3229.29826265718	15968
3231.26757986187	15969
3233.2363729133	15934
3235.20464204405	16093
3237.17238748643	15909
3239.13960947243	16045
3241.10630823374	16032
3243.07248400174	15961
3245.03813700748	16099
3247.00326748177	16002
3248.96787565503	15920
3250.93196175742	16151
3252.89552601877	16065
3254.8585686686	16078
3256.82108993612	16170
3258.78309005022	16111
3260.74456923948	16189
3262.70552773215	16262
3264.66596575617	16178
3266.62588353916	16187
3268.58528130843	16131
3270.54415929094	16109
3272.50251771336	16109
3274.46035680201	16122
3276.4176767829	16255
3278.37447788171	16132
3280.33076032379	16188
3282.28652433416	16130
3284.24177013751	16226
3286.1964979582	16210
3288.15070802027	16331
3290.10440054741	16216
3292.05757576298	16185
3294.01023389001	16168
3295.96237515119	16355
3297.91399976887	16318
3299.86510796506	16344
3301.81569996142	16208
3303.76577597932	16223
3305.7153362397	16285
3307.66438096324	16359
3309.61291037024	16222
3311.56092468064	16237
3313.50842411404	16086
3315.45540888971	16320
3317.40187922656	16280
3319.34783534315	16302
3321.29327745768	16196
3323.23820578801	15988
3325.18262055164	16134
3327.1265219657	16244
3329.06991024699	16163
3331.01278561194	16201
3332.95514827662	16315
3334.89699845674	16442
3336.83833636766	16377
3338.77916222434	16104
3340.71947624143	16259
3342.65927863317	16371
3344.59856961346	16191
3346.53734939584	16337
3348.47561819344	16124
3350.41337621906	16158
3352.35062368513	16084
3354.28736080368	16283
3356.22358778637	16190
3358.15930484452	16531
3360.09451218904	16524
3362.02921003047	16403
3363.96339857898	16312
3365.89707804436	16524
3367.83024863602	16354
3369.76291056299	16369
3371.69506403389	16388
3373.62670925699	16373
3375.55784644016	16452
3377.4884757909	16447
3379.41859751629	16680
3381.34821182305	16599
3383.27731891749	16581
3385.20591900555	16660
3387.13401229276	16727
3389.06159898426	16744
3390.9886792848	16807
3392.91525339872	16860
3394.84132152998	16813
3396.76688388213	16908
3398.69194065833	17022
3400.61649206133	16762
3402.54053829348	16987
3404.46407955672	16776
3406.3871160526	16766
3408.30964798225	17076
3410.23167554639	17032
3412.15319894535	17044
3414.07421837904	17043
3415.99473404695	16892
3417.91474614817	17029
3419.83425488136	17185
3421.75326044479	17184
3423.67176303631	16968
3425.58976285332	17192
3427.50726009282	17092
3429.42425495143	17030
3431.34074762528	17163
3433.25673831012	17005
3435.17222720127	16991
3437.08721449362	17105
3439.00170038164	17021
3440.91568505936	17171
3442.82916872039	17027
3444.74215155791	17131
3446.65463376468	16955
3448.566615533	17079
3450.47809705476	17150
3452.3890785214	17109
3454.29956012393	17263
3456.20954205293	16982
3458.11902449853	17143
3460.02800765041	17055
3461.93649169784	17239
3463.84447682962	17147
3465.75196323412	16995
3467.65895109925	17125
3469.56544061249	17050
3471.47143196086	17038
3473.37692533093	17072
3475.28192090884	16916
3477.18641888026	17240
3479.09041943039	17126
3480.99392274402	17083
3482.89692900545	17101
3484.79943839853	16985
3486.70145110666	16951
3488.60296731277	16884
3490.50398719933	17026
3492.40451094836	17004
3494.30453874141	17030
3496.20407075956	17142
3498.10310718342	17149
3500.00164819315	17090