200.090469251518	7863.5
202.974751419362	7860.5
205.858021632263	7857
208.740280737522	7858
211.621529580443	7829
214.501769004371	7899.5
217.380999850626	7882.5
220.25922295859	7859
223.136439165646	7860.5
226.012649307235	7940
228.88785421682	7838.5
231.762054725918	7996.5
234.635251664113	7915
237.507445859021	8003.5
240.378638136346	7966.5
243.248829319855	8017
246.11802023137	8115
248.986211690826	8084
251.853404516227	8015
254.719599523654	8019
257.584797527335	8046
260.44899933954	8072
263.312205770682	8141
266.174417629303	8021
269.035635722015	8123.5
271.895860853609	8080
274.755093826978	8031.5
277.613335443144	8195
280.470586501309	8118.5
283.326847798766	8083
286.182120131019	8160.5
289.036404291684	8179.5
291.889701072574	8204
294.742011263643	8157.5
297.593335653048	8144.5
300.443675027094	8110
303.293030170295	8137.5
306.141401865367	8192.5
308.988790893174	8065.5
311.835198032837	8155.5
314.680624061635	8159
317.525069755113	8159.5
320.36853588697	8050.5
323.211023229178	8062
326.052532551923	8189
328.893064623604	8139.5
331.732620210885	8126.5
334.57120007867	8139.5
337.408804990093	8116
340.245435706565	8136
343.081092987733	8208.5
345.915777591523	8166.5
348.749490274145	8222
351.582231790049	8308.5
354.414002891997	8273.5
357.244804331021	8350
360.074636856443	8358.5
362.903501215886	8374
365.731398155265	8263
368.558328418814	8296
371.384292749062	8310.5
374.209291886869	8327.5
377.033326571407	8371.5
379.85639754017	8356.5
382.678505529009	8315.5
385.499651272065	8311.5
388.319835501872	8315.5
391.139058949258	8254
393.957322343453	8218
396.774626412011	8174
399.590971880847	8255.5
402.406359474258	8305.5
405.220789914893	8318
408.034263923801	8254.5
410.8467822204	8299.5
413.658345522483	8320
416.468954546242	8369.5
419.278610006277	8360.5
422.087312615557	8395.5
424.895063085503	8358.5
427.701862125901	8485.5
430.507710444981	8433
433.312608749366	8364
436.116557744146	8419
438.919558132791	8432.5
441.721610617238	8362
444.522715897856	8461.5
447.322874673457	8452.5
450.122087641299	8310.5
452.920355497092	8324
455.717678935009	8254
458.514058647681	8275.5
461.309495326219	8369
464.103989660191	8305
466.89754233765	8261
469.690154045114	8257.5
472.481825467625	8254.5
475.272557288674	8332
478.062350190281	8333.5
480.851204852952	8314
483.639121955683	8233
486.426102176007	8264.5
489.212146189955	8312.5
491.997254672093	8293
494.781428295471	8330
497.564667731716	8409.5
500.346973650958	8326.5
503.128346721878	8347.5
505.90878761169	8417
508.688296986151	8430.5
511.46687550957	8333
514.244523844831	8435.5
517.021242653354	8422
519.797032595132	8415.5
522.571894328732	8309.5
525.345828511279	8326
528.11883579849	8394.5
530.890916844655	8400
533.662072302668	8312
536.432302823985	8323
539.201609058684	8283.5
541.96999165542	8280
544.737451261473	8221
547.503988522723	8178
550.26960408366	8243
553.034298587394	8187.5
555.798072675669	8144
558.560926988819	8115.5
561.322862165849	8263.5
564.083878844369	8253.5
566.843977660654	8223
569.603159249604	8154.5
572.361424244769	8182
575.118773278369	8233.5
577.87520698124	8347
580.630725982905	8252.5
583.385330911566	8293.5
586.139022394076	8294.5
588.891801055954	8227.5
591.643667521406	8297.5
594.394622413318	8266.5
597.144666353273	8270.5
599.893799961512	8338
602.64202385701	8327.5
605.389338657413	8234
608.135744979089	8190
610.881243437092	8199.5
613.625834645191	8101.5
616.369519215881	8130
619.112297760374	8074.5
621.854170888604	8034
624.595139209225	8016.5
627.335203329614	8135
630.074363855914	8126.5
632.81262139299	8032.5
635.549976544436	7954.5
638.286429912612	7920
641.021982098635	8052.5
643.756633702364	7984
646.49038532241	8039.5
649.223237556176	7996.5
651.955190999808	7901
654.686246248224	8099.5
657.416403895135	7981
660.145664533011	8051.5
662.874028753133	8042
665.601497145537	8094
668.328070299071	8049
671.05374880138	8051
673.778533238885	8078
676.502424196839	8080.5
679.225422259297	8123.5
681.947528009099	7996.5
684.668742027927	8005.5
687.389064896281	7961.5
690.108497193465	8011
692.827039497621	8024
695.544692385724	8019
698.261456433585	7975
700.977332215847	8024
703.692320305981	7896.5
706.406421276337	7953
709.11963569808	8013
711.831964141256	7967
714.54340717474	7967
717.253965366304	7966.5
719.963639282552	8019
722.672429488961	7808.5
725.380336549904	7943
728.087361028596	7971
730.793503487166	7843.5
733.498764486594	8002
736.203144586758	8026
738.906644346447	7931.5
741.60926432331	7963.5
744.311005073912	7922.5
747.011867153727	7958.5
749.711851117121	7866.5
752.410957517375	8022
755.109186906677	8066
757.806539836132	7996
760.503016855779	7961.5
763.198618514551	7935
765.893345360346	7878
768.587197939964	7867.5
771.28017679914	7965
773.972282482566	7880
776.663515533859	7835.5
779.353876495581	7794.5
782.043365909241	7845.5
784.731984315327	7785
787.419732253235	7791
790.106610261366	7841
792.792618877058	7791.5
795.477758636618	7841.5
798.162030075313	7787.5
800.845433727423	7746.5
803.52797012615	7649.5
806.209639803714	7832
808.890443291304	7803
811.570381119098	7790
814.249453816265	7772.5
816.927661910959	7737
819.60500593036	7744
822.281486400603	7780.5
824.957103846864	7774.5
827.631858793316	7881.5
830.305751763135	7795
832.978783278519	7820.5
835.650953860677	7889.5
838.322264029848	7843
840.992714305292	7832
843.662305205289	7854.5
846.331037247157	7796
848.998910947241	7811.5
851.665926820933	7806
854.332085382674	7916
856.997387145915	7811
859.661832623191	7893
862.325422326066	7870.5
864.988156765172	7726
867.650036450181	7811.5
870.311061889846	7819.5
872.971233591961	7633.5
875.630552063409	7696.5
878.28901781013	7779.5
880.946631337138	7708
883.603393148533	7729.5
886.259303747484	7717.5
888.914363636246	7787
891.568573316155	7756
894.22193328767	7622
896.874444050281	7717
899.526106102625	7713
902.176919942416	7731
904.826886066483	7749.5
907.476004970747	7825
910.124277150255	7748
912.77170309913	7803.5
915.418283310642	7854.5
918.064018277175	7804
920.708908490222	7840.5
923.352954440405	7784
925.996156617486	7932
928.638515510334	7946.5
931.280031606966	7895.5
933.920705394521	7887.5
936.560537359303	7819
939.199527986737	7766.5
941.837677761392	7834.5
944.474987167006	7845
947.111456686438	7804
949.747086801734	7867
952.38187799407	7839
955.015830743792	7782
957.648945530418	7841
960.281222832633	7803.5
962.91266312826	7839.5
965.543266894336	7836
968.173034607058	7745
970.801966741779	7821
973.43006377307	7787.5
976.057326174661	7817
978.683754419471	7743.5
981.309348979623	7868.5
983.93411032642	7776.5
986.558038930361	7714.5
989.181135261144	7726
991.803399787692	7765
994.424832978086	7671.5
997.045435299653	7725.5
999.665207218906	7719.5
1002.2841492016	7704.5
1004.90226171266	7793.5
1007.51954521628	7858
1010.13600017584	7712.5
1012.75162705397	7726
1015.3664263125	7750
1017.9803984125	7804
1020.5935438143	7798
1023.20586297741	7776
1025.81735636063	7793
1028.42802442196	7858
1031.03786761869	7848.5
1033.64688640732	7789
1036.2550812436	7843
1038.86245258255	7928
1041.46900087844	7950.5
1044.07472658479	7978
1046.67963015438	7844
1049.28371203927	7897.5
1051.88697269075	7928.5
1054.48941255943	7940
1057.09103209513	8066
1059.691831747	8099
1062.29181196343	8054
1064.89097319211	8197
1067.48931587999	8061
1070.08684047333	8123
1072.68354741766	7982.5
1075.27943715779	7944.5
1077.87451013787	7942.5
1080.46876680127	7972.5
1083.06220759071	7934
1085.65483294822	7837
1088.24664331509	7903.5
1090.83763913194	7908
1093.42782083869	7847
1096.01718887459	7960
1098.60574367818	7813.5
1101.19348568732	7830.5
1103.78041533919	7889.5
1106.3665330703	7896
1108.95183931646	7891
1111.53633451284	7985
1114.12001909391	7976.5
1116.70289349349	8081.5
1119.2849581447	8127
1121.86621348005	8262.5
1124.44665993134	8344.5
1127.02629792973	8350.5
1129.60512790574	8256
1132.18315028919	8162.5
1134.76036550929	8069.5
1137.3367739946	7931.5
1139.912376173	7996
1142.48717247176	7968
1145.06116331748	7949.5
1147.63434913616	7955
1150.20673035312	7970
1152.77830739307	8123
1155.34908068007	7939
1157.91905063757	8030.5
1160.48821768838	7989
1163.05658225471	7974
1165.6241447581	8028.5
1168.19090561951	8022
1170.75686525927	8019.5
1173.32202409708	8031.5
1175.88638255206	8046.5
1178.44994104269	7939
1181.01269998684	7997
1183.57465980182	7923.5
1186.13582090427	7896.5
1188.69618371026	7941
1191.25574863529	7949
1193.8145160942	7929
1196.37248650129	8028
1198.92966027025	7985
1201.48603781416	7946
1204.04161954556	7815.5
1206.59640587635	7940.5
1209.15039721788	7871
1211.70359398092	7931.5
1214.25599657564	7903.5
1216.80760541166	7868.5
1219.35842089801	7839
1221.90844344314	7915.5
1224.45767345496	7933
1227.00611134077	7915
1229.55375750736	7994
1232.10061236092	7929.5
1234.64667630707	8019.5
1237.1919497509	8016
1239.73643309692	8016
1242.28012674912	7981
1244.82303111089	8072.5
1247.36514658511	8016.5
1249.9064735741	8059
1252.44701247964	8196.5
1254.98676370294	8124.5
1257.52572764469	8207.5
1260.06390470506	8103.5
1262.60129528365	8249
1265.13789977954	8201
1267.67371859128	8330.5
1270.20875211688	8379.5
1272.74300075384	8230.5
1275.2764648991	8273.5
1277.80914494911	8341
1280.34104129978	8336.5
1282.87215434652	8341.5
1285.40248448419	8259
1287.93203210715	8308.5
1290.46079760927	8241.5
1292.98878138385	8253
1295.51598382375	8327
1298.04240532127	8394.5
1300.56804626822	8431.5
1303.09290705593	8348
1305.6169880752	8374.5
1308.14028971632	8501
1310.66281236913	8387.5
1313.18455642292	8363.5
1315.70552226653	8362.5
1318.22571028829	8461
1320.74512087603	8433.5
1323.26375441711	8437
1325.7816112984	8494.5
1328.29869190629	8435.5
1330.81499662666	8526.5
1333.33052584497	8497.5
1335.84527994613	8584.5
1338.35925931464	8571.5
1340.87246433446	8566.5
1343.38489538916	8542
1345.89655286177	8641
1348.40743713487	8590.5
1350.91754859059	8606.5
1353.42688761059	8559
1355.93545457606	8681
1358.44324986772	8726.5
1360.95027386588	8696.5
1363.45652695032	8622
1365.96200950042	8739.5
1368.4667218951	8738.5
1370.97066451281	8757
1373.47383773156	8622.5
1375.97624192891	8778
1378.47787748199	8633
1380.97874476746	8723.5
1383.47884416157	8643.5
1385.97817604009	8443.5
1388.4767407784	8463.5
1390.9745387514	8415.5
1393.47157033358	8441
1395.96783589898	8436.5
1398.46333582124	8444
1400.95807047354	8359
1403.45204022864	8406
1405.94524545889	8320.5
1408.4376865362	8378
1410.92936383205	8424.5
1413.42027771752	8355
1415.91042856328	8394
1418.39981673955	8352
1420.88844261615	8415
1423.37630656249	8392
1425.86340894757	8473.5
1428.34975013999	8557
1430.83533050792	8653
1433.32015041912	8709.5
1435.80421024098	8785
1438.28751034045	8951.5
1440.77005108411	9023
1443.25183283812	9070
1445.73285596824	9108
1448.21312083984	8895.5
1450.69262781791	8766.5
1453.17137726702	8842
1455.64936955137	8813.5
1458.12660503477	8740
1460.60308408063	8791
1463.07880705197	8722
1465.55377431145	8871.5
1468.02798622133	8841
1470.50144314348	8689
1472.97414543941	8735
1475.44609347024	8766
1477.91728759673	8809.5
1480.38772817924	8781
1482.85741557777	8600.5
1485.32635015194	8646.5
1487.79453226103	8598.5
1490.26196226391	8646
1492.72864051911	8594
1495.1945673848	8538.5
1497.65974321874	8541.5
1500.1241683784	8545.5
1502.58784322083	8566.5
1505.05076810274	8529
1507.51294338049	8504
1509.97436941009	8494.5
1512.43504654717	8598
1514.89497514704	8500
1517.35415556462	8543
1519.81258815451	8616.5
1522.27027327095	8498.5
1524.72721126784	8578
1527.18340249874	8582
1529.63884731684	8569
1532.09354607502	8612
1534.5474991258	8658
1537.00070682136	8598.5
1539.45316951355	8589.5
1541.90488755388	8704
1544.35586129353	8690.5
1546.80609108336	8678.5
1549.25557727385	8666.5
1551.70432021519	8672
1554.15232025725	8778.5
1556.59957774953	8801.5
1559.04609304125	8879
1561.49186648127	8856.5
1563.93689841815	8775.5
1566.38118920011	8898
1568.82473917506	8824
1571.2675486906	8849
1573.70961809399	8945
1576.15094773219	8977
1578.59153795184	8938.5
1581.03138909928	8870
1583.47050152051	9025
1585.90887556123	9085.5
1588.34651156686	9101
1590.78340988246	9145.5
1593.21957085283	9187.5
1595.65499482245	9240.5
1598.08968213547	9367
1600.52363313578	9131
1602.95684816694	9140
1605.38932757224	9046
1607.82107169462	8998.5
1610.25208087677	8819.5
1612.68235546107	8893.5
1615.1118957896	8896
1617.54070220415	8844.5
1619.96877504621	8874.5
1622.39611465701	8873.5
1624.82272137746	8951.5
1627.24859554818	8824.5
1629.67373750953	8926.5
1632.09814760155	8965.5
1634.52182616404	9037
1636.94477353647	9070.5
1639.36699005806	8922.5
1641.78847606776	8974
1644.20923190418	8897
1646.62925790573	8740
1649.04855441048	8691
1651.46712175628	8727.5
1653.88496028066	8767.5
1656.3020703209	8849
1658.71845221401	8737.5
1661.13410629671	8755
1663.54903290547	8826
1665.96323237649	8785.5
1668.37670504571	8796
1670.78945124877	8706.5
1673.20147132109	8806
1675.61276559779	8879
1678.02333441377	8771
1680.43317810362	8837.5
1682.84229700171	8896.5
1685.25069144213	8956
1687.65836175872	8893.5
1690.06530828507	8890
1692.47153135451	8975.5
1694.87703130009	8848
1697.28180845467	8963.5
1699.6858631508	8965
1702.08919572081	8957.5
1704.49180649676	8946
1706.89369581049	8951.5
1709.29486399355	8993.5
1711.69531137731	8897.5
1714.09503829282	8942
1716.49404507095	8847.5
1718.89233204229	8857.5
1721.28989953721	8971.5
1723.68674788581	8892
1726.08287741798	8936.5
1728.47828846338	8876
1730.87298135139	8851.5
1733.26695641119	8920.5
1735.66021397173	8960.5
1738.05275436169	8840.5
1740.44457790954	8911
1742.83568494354	8899
1745.22607579168	9001
1747.61575078175	8858
1750.00471024128	8976
1752.39295449761	8913.5
1754.78048387783	8869
1757.16729870881	8947
1759.5533993172	8891.5
1761.93878602942	8963
1764.32345917168	9003
1766.70741906995	9018.5
1769.09066604999	8994.5
1771.47320043735	9047
1773.85502255735	9020.5
1776.2361327351	9070
1778.61653129548	9124.5
1780.99621856318	9103
1783.37519486264	9128
1785.75346051813	9173.5
1788.13101585368	9114
1790.5078611931	9181.5
1792.88399686002	9234
1795.25942317785	9182.5
1797.63414046977	9210
1800.00814905878	9171
1802.38144926766	9236
1804.75404141898	9224.5
1807.12592583514	9220
1809.49710283829	9308.5
1811.86757275039	9281.5
1814.23733589322	9374.5
1816.60639258834	9211
1818.97474315712	9280
1821.34238792073	9350
1823.70932720012	9361
1826.07556131608	9332
1828.44109058918	9175.5
1830.8059153398	9262.5
1833.17003588812	9260
1835.53345255413	9286.5
1837.89616565765	9307
1840.25817551827	9301.5
1842.61948245541	9366.5
1844.9800867883	9362.5
1847.33998883598	9351.5
1849.69918891729	9300.5
1852.05768735091	9489
1854.4154844553	9276.5
1856.77258054875	9335.5
1859.12897594938	9325
1861.4846709751	9351
1863.83966594366	9293.5
1866.19396117261	9323.5
1868.54755697932	9349
1870.90045368099	9400
1873.25265159463	9420.5
1875.60415103708	9517.5
1877.95495232501	9481.5
1880.30505577486	9534.5
1882.65446170299	9568
1885.00317042548	9628.5
1887.35118225832	9601.5
1889.69849751726	9655.5
1892.04511651792	9652.5
1894.39103957574	9835.5
1896.73626700596	9754
1899.08079912368	9754
1901.42463624384	9820.5
1903.76777868116	9761.5
1906.11022675025	9846.5
1908.4519807655	9973.5
1910.79304104117	9976
1913.13340789134	9963.5
1915.47308162992	9863
1917.81206257067	9936.5
1920.15035102718	9969.5
1922.48794731286	10010.5
1924.82485174096	9961
1927.16106462461	10095.5
1929.49658627672	10035.5
1931.83141701008	9927.5
1934.1655571373	9935.5
1936.49900697085	9964
1938.83176682301	9852.5
1941.16383700594	9980.5
1943.49521783161	9961.5
1945.82590961186	10083
1948.15591265835	9993.5
1950.48522728262	9977.5
1952.81385379602	10011
1955.14179250976	10015.5
1957.46904373489	9984.5
1959.79560778233	10032
1962.12148496284	10112
1964.44667558701	10050.5
1966.77117996529	9987
1969.09499840799	10047
1971.41813122527	10038.5
1973.74057872714	10156.5
1976.06234122345	10108.5
1978.38341902391	10105
1980.7038124381	10081.5
1983.02352177543	10123
1985.34254734518	10164
1987.66088945649	10187.5
1989.97854841833	10328
1992.29552453956	10270
1994.61181812887	10220.5
1996.92742949483	10318.5
1999.24235894586	10409.5
2001.55660679023	10342
2003.87017333608	10377.5
2006.18305889143	10364.5
2008.49526376413	10443
2010.80678826189	10483
2013.1176326923	10525.5
2015.42779736282	10452.5
2017.73728258075	10585
2020.04608865326	10624.5
2022.3542158874	10600
2024.66166459008	10584.5
2026.96843506807	10709
2029.274527628	10764.5
2031.57994257637	10799
2033.88468021957	10755
2036.18874086383	10773.5
2038.49212481526	10745
2040.79483237983	10858.5
2043.0968638634	10880.5
2045.39821957169	10884.5
2047.69889981028	10858.5
2049.99890488462	10910
2052.29823510006	10900
2054.59689076181	10974
2056.89487217492	10895.5
2059.19217964437	10765
2061.48881347497	10934
2063.7847739714	10950.5
2066.08006143826	10988.5
2068.37467618	10873.5
2070.66861850093	10833.5
2072.96188870527	11045
2075.25448709707	10897.5
2077.54641398031	11015
2079.83766965881	10868
2082.12825443629	10950
2084.41816861634	11049
2086.70741250242	11007.5
2088.99598639789	11110
2091.28389060597	11016
2093.57112542978	10878.5
2095.85769117232	11153
2098.14358813644	11057
2100.42881662491	11061
2102.71337694037	11146.5
2104.99726938532	11057
2107.28049426219	11042.5
2109.56305187325	11244
2111.84494252069	11195.5
2114.12616650655	11335.5
2116.40672413278	11265.5
2118.68661570121	11223.5
2120.96584151355	11346.5
2123.24440187138	11320
2125.52229707622	11417
2127.79952742943	11250
2130.07609323227	11390.5
2132.35199478588	11529
2134.62723239132	11484
2136.90180634949	11565
2139.17571696123	11565.5
2141.44896452723	11568.5
2143.72154934809	11592
2145.99347172429	11581.5
2148.26473195623	11565.5
2150.53533034415	11717.5
2152.80526718821	11790.5
2155.07454278848	11761.5
2157.3431574449	11886.5
2159.61111145728	11887.5
2161.87840512538	11825.5
2164.1450387488	11912
2166.41101262707	11871.5
2168.67632705959	11847
2170.94098234567	11821.5
2173.20497878451	11776.5
2175.46831667519	11972
2177.73099631672	11916.5
2179.99301800797	11929
2182.25438204772	11980
2184.51508873466	12056
2186.77513836735	11921.5
2189.03453124427	11971
2191.29326766378	11973.5
2193.55134792416	12031
2195.80877232355	12209
2198.06554116004	12093
2200.32165473157	12027
2202.577113336	12151.5
2204.83191727111	12227
2207.08606683453	12160
2209.33956232384	12136
2211.59240403648	12169
2213.84459226982	12090
2216.09612732112	12173
2218.34700948753	12144
2220.59723906612	12157.5
2222.84681635385	12256
2225.09574164758	12240.5
2227.34401524408	12316.5
2229.59163744002	12260.5
2231.83860853197	12337.5
2234.08492881639	12293.5
2236.33059858968	12294
2238.5756181481	12469
2240.81998778784	12402
2243.06370780499	12373.5
2245.30677849555	12482.5
2247.54920015539	12503.5
2249.79097308033	12440
2252.03209756607	12458.5
2254.27257390822	12287
2256.51240240228	12465.5
2258.75158334369	12616
2260.99011702777	12499.5
2263.22800374976	12516.5
2265.46524380477	12474
2267.70183748786	12513
2269.93778509399	12656
2272.17308691801	12455
2274.40774325467	12635.5
2276.64175439866	12626
2278.87512064454	12718.5
2281.10784228682	12822.5
2283.33991961987	12660
2285.571352938	12668
2287.80214253541	12733
2290.03228870623	12673.5
2292.26179174449	12879
2294.4906519441	12776
2296.71886959892	12887.5
2298.9464450027	12796.5
2301.1733784491	12860.5
2303.39967023169	12889.5
2305.62532064395	12901.5
2307.85032997926	12909.5
2310.07469853093	12900.5
2312.29842659216	12882
2314.52151445608	13021.5
2316.7439624157	12833
2318.96577076397	12918.5
2321.18693979374	12859.5
2323.40746979777	13015
2325.62736106873	13001.5
2327.8466138992	13056
2330.06522858166	12980.5
2332.28320540853	13050.5
2334.50054467212	13123.5
2336.71724666465	13072.5
2338.93331167827	13007
2341.14874000501	13028
2343.36353193685	13015
2345.57768776564	13078.5
2347.79120778319	13071.5
2350.00409228117	13040.5
2352.21634155121	13216
2354.42795588482	13142
2356.63893557342	13135.5
2358.84928090838	13063.5
2361.05899218094	13094
2363.26806968228	13083
2365.47651370347	13308.5
2367.68432453552	13193
2369.89150246933	13158
2372.09804779571	13085.5
2374.30396080541	13180
2376.50924178907	13131.5
2378.71389103725	13123.5
2380.91790884042	13208.5
2383.12129548897	13163
2385.3240512732	13154
2387.52617648332	13117.5
2389.72767140946	13169.5
2391.92853634165	13179
2394.12877156985	13117.5
2396.32837738392	13257.5
2398.52735407365	13261.5
2400.72570192873	13233.5
2402.92342123875	13035
2405.12051229325	13174
2407.31697538167	13192
2409.51281079333	13219.5
2411.70801881751	13126
2413.90259974339	13292.5
2416.09655386004	13400.5
2418.28988145648	13243
2420.48258282162	13208.5
2422.6746582443	13239.5
2424.86610801325	13428.5
2427.05693241713	13218.5
2429.24713174452	13292
2431.43670628389	13275
2433.62565632365	13248.5
2435.81398215212	13147.5
2438.00168405752	13257.5
2440.18876232799	13343
2442.37521725158	13290.5
2444.56104911628	13343.5
2446.74625820994	13300.5
2448.93084482038	13236.5
2451.1148092353	13291
2453.29815174233	13268
2455.480872629	13192.5
2457.66297218275	13292
2459.84445069097	13095.5
2462.02530844092	13250.5
2464.2055457198	13147
2466.38516281471	13091
2468.56416001267	13148.5
2470.74253760061	13122.5
2472.92029586537	13254
2475.09743509372	13180.5
2477.27395557232	13183.5
2479.44985758777	13282.5
2481.62514142655	13215
2483.79980737508	13217.5
2485.97385571969	13230.5
2488.14728674661	13316.5
2490.32010074198	13279.5
2492.49229799188	13285.5
2494.66387878228	13202
2496.83484339905	13362.5
2499.00519212802	13354.5
2501.17492525488	13390
2503.34404306528	13398.5
2505.51254584473	13415.5
2507.6804338787	13423
2509.84770745254	13376
2512.01436685153	13427.5
2514.18041236085	13395.5
2516.34584426561	13437.5
2518.51066285081	13464
2520.67486840138	13502
2522.83846120214	13454.5
2525.00144153784	13498.5
2527.16380969314	13542.5
2529.32556595261	13642
2531.48671060072	13638.5
2533.64724392186	13658.5
2535.80716620033	13606
2537.96647772034	13590.5
2540.12517876602	13636
2542.2832696214	13675
2544.44075057041	13729
2546.59762189691	13604.5
2548.75388388466	13644.5
2550.90953681735	13627
2553.06458097853	13694
2555.21901665172	13772.5
2557.37284412031	13726.5
2559.5260636676	13681.5
2561.67867557684	13772.5
2563.83068013113	13695
2565.98207761351	13609.5
2568.13286830695	13638.5
2570.28305249429	13620.5
2572.43263045829	13704
2574.58160248163	13417.5
2576.72996884689	13566.5
2578.87772983655	13535.5
2581.02488573303	13609
2583.1714368186	13629
2585.31738337549	13479.5
2587.46272568582	13552.5
2589.60746403161	13654
2591.75159869479	13637
2593.89512995722	13609
2596.03805810061	13582.5
2598.18038340665	13792.5
2600.32210615686	13673.5
2602.46322663274	13600
2604.60374511563	13537
2606.74366188683	13488.5
2608.88297722751	13599
2611.02169141875	13679
2613.15980474156	13804.5
2615.29731747681	13690.5
2617.43422990532	13712
2619.57054230779	13713.5
2621.70625496483	13842
2623.84136815694	13811
2625.97588216456	13862
2628.10979726799	13885
2630.24311374746	13896.5
2632.3758318831	13899.5
2634.50795195493	13825
2636.6394742429	13899.5
2638.77039902682	13921
2640.90072658645	13944
2643.0304572014	13964.5
2645.15959115123	13956
2647.28812871538	14125.5
2649.41607017319	13997
2651.5434158039	14016
2653.67016588665	13993
2655.79632070049	13953
2657.92188052436	14074.5
2660.04684563711	14118
2662.17121631749	14089
2664.29499284413	14162.5
2666.41817549558	14133
2668.54076455027	14123.5
2670.66276028656	14180.5
2672.78416298267	14308.5
2674.90497291675	14165.5
2677.02519036682	14268
2679.14481561082	14328.5
2681.26384892658	14240.5
2683.38229059182	14370
2685.50014088417	14265
2687.61740008114	14206.5
2689.73406846017	14342.5
2691.85014629854	14387.5
2693.96563387347	14279.5
2696.08053146206	14412
2698.1948393413	14296.5
2700.3085577881	14288
2702.42168707924	14393
2704.53422749139	14296.5
2706.64617930112	14360.5
2708.75754278492	14487.5
2710.86831821913	14418
2712.97850588002	14452
2715.08810604372	14375.5
2717.19711898628	14543.5
2719.30554498363	14498
2721.41338431158	14419.5
2723.52063724586	14587.5
2725.62730406206	14506
2727.73338503569	14719.5
2729.83888044213	14515.5
2731.94379055664	14623.5
2734.04811565441	14722.5
2736.15185601048	14688.5
2738.25501189979	14693.5
2740.35758359718	14652.5
2742.45957137738	14715.5
2744.56097551499	14771.5
2746.6617962845	14711.5
2748.7620339603	14681
2750.86168881666	14785.5
2752.96076112774	14763
2755.05925116758	14879.5
2757.15715921012	14773
2759.25448552917	14825
2761.35123039843	14789.5
2763.44739409148	14822
2765.5429768818	14778.5
2767.63797904275	14790.5
2769.73240084756	14873
2771.82624256934	14913
2773.91950448113	14949
2776.01218685579	14895
2778.10428996609	14957.5
2780.19581408469	14790
2782.28675948414	14980.5
2784.37712643683	14984
2786.46691521507	14972
2788.55612609104	14824.5
2790.64475933678	15070
2792.73281522425	14927
2794.82029402525	14967.5
2796.90719601149	15034.5
2798.99352145453	14917.5
2801.07927062583	15070
2803.16444379672	15161
2805.24904123841	15120
2807.33306322197	15141
2809.41651001838	15196
2811.49938189847	15154
2813.58167913296	15300
2815.66340199243	15255
2817.74455074734	15298
2819.82512566805	15361.5
2821.90512702475	15253.5
2823.98455508754	15269
2826.06341012637	15243
2828.14169241109	15337.5
2830.2194022114	15590
2832.29653979686	15563
2834.37310543694	15684.5
2836.44909940096	15696.5
2838.5245219581	15699
2840.59937337744	15771.5
2842.67365392791	15924.5
2844.74736387829	16163.5
2846.82050349727	16355.5
2848.8930730534	16683.5
2850.96507281506	16837.5
2853.03650305056	17027
2855.10736402802	17049
2857.17765601545	17114
2859.24737928074	17061
2861.31653409164	17350.5
2863.38512071574	17165
2865.45313942054	17395
2867.52059047335	17385
2869.58747414139	17618
2871.65379069173	17553
2873.7195403913	17766.5
2875.78472350688	17458.5
2877.84934030515	17538.5
2879.91339105262	17478
2881.97687601567	17573
2884.03979546053	17381.5
2886.10214965332	17511.5
2888.16393886	17538.5
2890.22516334639	17716
2892.28582337816	17791
2894.34591922087	18035
2896.40545113992	18126
2898.46441940054	18299.5
2900.52282426787	18340.5
2902.58066600687	18538
2904.63794488237	18653
2906.69466115906	18245.5
2908.75081510147	18415
2910.806406974	18461.5
2912.8614370409	18441.5
2914.91590556626	18386
2916.96981281404	18392
2919.02315904807	18338.5
2921.07594453199	18492.5
2923.12816952932	18517
2925.17983430343	18618
2927.23093911753	18608.5
2929.28148423469	18586
2931.33146991782	18382
2933.3808964297	18250
2935.42976403294	18274
2937.47807299	18143
2939.5258235632	17870
2941.57301601469	17865.5
2943.61965060648	17654
2945.66572760042	17484
2947.71124725823	17591
2949.75620984143	17592.5
2951.80061561143	17411.5
2953.84446482945	17401.5
2955.88775775656	17366.5
2957.9304946537	17197
2959.97267578162	17214.5
2962.01430140095	17153
2964.05537177211	17081
2966.09588715541	17030.5
2968.13584781097	17100.5
2970.17525399875	17128
2972.21410597859	16923.5
2974.25240401011	16959
2976.29014835283	16912.5
2978.32733926604	17094.5
2980.36397700892	17007.5
2982.40006184049	16929.5
2984.43559401955	17100.5
2986.4705738048	17124.5
2988.50500145473	16978
2990.53887722771	17121.5
2992.57220138189	17126.5
2994.6049741753	17035.5
2996.63719586576	17205.5
2998.66886671097	17190
3000.69998696843	17465
3002.73055689549	17391
3004.7605767493	17395.5
3006.79004678688	17395.5
3008.81896726505	17391.5
3010.84733844048	17305.5
3012.87516056966	17498.5
3014.9024339089	17421.5
3016.92915871433	17636
3018.95533524196	17623
3020.98096374756	17702
3023.00604448675	17756
3025.030577715	17723.5
3027.05456368757	17797.5
3029.07800265956	17784
3031.10089488589	17905
3033.12324062131	17867.5
3035.14504012038	17936
3037.16629363749	17915
3039.18700142685	18137.5
3041.20716374249	17942
3043.22678083826	17755.5
3045.24585296782	18083.5
3047.26438038468	17901.5
3049.28236334212	18091
3051.29980209329	18253.5
3053.31669689111	17872.5
3055.33304798835	18000
3057.34885563757	18161.5
3059.36412009117	18125
3061.37884160134	18113
3063.39302042011	18204
3065.40665679931	18212.5
3067.41975099058	18251.5
3069.43230324538	18183
3071.44431381495	18118
3073.45578295041	18305.5
3075.46671090261	18353
3077.47709792227	18339.5
3079.48694425989	18196
3081.49625016578	18444.5
3083.50501589008	18313
3085.5132416827	18429
3087.5209277934	18255.5
3089.52807447169	18377.5
3091.53468196695	18458.5
3093.54075052832	18374
3095.54628040476	18310.5
3097.55127184503	18437.5
3099.55572509769	18368
3101.55964041111	18387
3103.56301803346	18350.5
3105.5658582127	18430.5
3107.56816119661	18573
3109.56992723275	18568
3111.57115656849	18476.5
3113.571849451	18461.5
3115.57200612724	18556.5
3117.57162684397	18582.5
3119.57071184775	18821
3121.56926138493	18849.5
3123.56727570166	18894
3125.56475504389	18894
3127.56169965735	18834
3129.55810978757	18935
3131.55398567987	18953
3133.54932757937	18953
3135.54413573099	19277
3137.53841037939	19021
3139.53215176909	19165.5
3141.52536014435	19170
3143.51803574924	19157.5
3145.51017882762	19248.5
3147.50178962311	19329.5
3149.49286837916	19186.5
3151.48341533897	19208
3153.47343074553	19423
3155.46291484164	19317
3157.45186786985	19395
3159.44029007252	19376.5
3161.42818169179	19448
3163.41554296955	19397.5
3165.40237414753	19556
3167.38867546718	19515.5
3169.37444716975	19450
3171.35968949631	19554
3173.34440268764	19472.5
3175.32858698436	19642
3177.31224262682	19677
3179.29536985517	19724.5
3181.27796890934	19530
3183.26004002902	19655.5
3185.24158345368	19839
3187.22259942256	19808.5
3189.2030881747	19759.5
3191.18304994886	19851
3193.16248498363	19998.5
3195.14139351733	19898.5
3197.11977578807	19957.5
3199.09763203371	19988.5
3201.07496249191	20102.5
3203.05176740007	20114
3205.02804699537	20003
3207.00380151475	20055
3208.97903119493	20004
3210.95373627238	20284.5
3212.92791698335	20341.5
3214.90157356383	20158
3216.8747062496	20423.5
3218.84731527619	20429.5
3220.81940087889	20533.5
3222.79096329275	20518
3224.76200275259	20488
3226.73251949298	20643.5
3228.70251374825	20684.5
3230.67198575251	20655
3232.64093573959	20788.5
3234.6093639431	20900.5
3236.57727059641	20955.5
3238.54465593261	21075
3240.51152018461	21053
3242.47786358502	20916.5
3244.44368636621	21092.5
3246.40898876031	21080.5
3248.37377099923	21250.5
3250.33803331458	21271.5
3252.30177593775	21390
3254.26499909987	21423.5
3256.22770303184	21581.5
3258.18988796427	21450
3260.15155412755	21278
3262.1127017518	21369.5
3264.0733310669	21357
3266.03344230246	21469
3267.99303568784	21587
3269.95211145215	21509.5
3271.91066982422	21824
3273.86871103267	21762.5
3275.82623530581	21758.5
3277.7832428717	21795.5
3279.73973395818	21741.5
3281.69570879278	21874
3283.6511676028	22011
3285.60611061527	22075
3287.56053805694	22225
3289.51445015432	22018.5
3291.46784713364	22132
3293.42072922088	22124.5
3295.37309664173	22266.5
3297.32494962163	22308
3299.27628838575	22237
3301.227113159	22553.5
3303.17742416601	22385
3305.12722163114	22523
3307.07650577848	22458
3309.02527683185	22479
3310.9735350148	22379
3312.9212805506	22543.5
3314.86851366225	22364.5
3316.81523457249	22474.5
3318.76144350377	22432
3320.70714067825	22434.5
3322.65232631783	22322.5
3324.59700064415	22364
3326.54116387854	22340
3328.48481624207	22346
3330.42795795551	22397
3332.37058923938	22255
3334.31271031389	22432
3336.25432139898	22365.5
3338.19542271432	22438.5
3340.13601447927	22332.5
3342.07609691292	22263.5
3344.01567023407	22288.5
3345.95473466124	22441
3347.89329041266	22526
3349.83133770627	22359
3351.76887675973	22276
3353.70590779039	22337
3355.64243101534	22429
3357.57844665135	22512.5
3359.51395491492	22534.5
3361.44895602224	22327.5
3363.38345018922	22615.5
3365.31743763148	22507.5
3367.25091856432	22547.5
3369.18389320278	22620
3371.11636176156	22784
3373.0483244551	22658
3374.97978149754	22875.5
3376.91073310269	22771.5
3378.84117948409	22835
3380.77112085498	22980
3382.70055742826	23013.5
3384.62948941659	22859
3386.55791703227	22862
3388.48584048733	23062.5
3390.41325999348	23130.5
3392.34017576214	23208.5
3394.2665880044	23143
3396.19249693107	23171
3398.11790275263	23162.5
3400.04280567926	23399.5
3401.96720592084	23426
3403.89110368692	23264
3405.81449918675	23575.5
3407.73739262928	23484
3409.65978422311	23501.5
3411.58167417658	23683.5
3413.50306269768	23573.5
3415.42394999408	23642
3417.34433627316	23629
3419.26422174195	23671.5
3421.18360660721	23815.5
3423.10249107532	23465.5
3425.02087535239	23624
3426.93875964421	23748.5
3428.8561441562	23741
3430.77302909353	23676.5
3432.68941466097	23704.5
3434.60530106301	23814.5
3436.52068850383	23802.5
3438.43557718726	23875
3440.34996731681	23610.5
3442.26385909565	23668
3444.17725272664	23614.5
3446.09014841231	23805.5
3448.00254635486	23443.5
3449.91444675614	23929.5
3451.82584981771	23824
3453.73675574076	23816
3455.64716472616	23696
3457.55707697445	23598.5
3459.46649268584	23726.5
3461.37541206018	23902.5
3463.28383529703	23793.5
3465.19176259555	23674.5
3467.09919415464	23798.5
3469.00613017278	23614.5
3470.91257084817	23733.5
3472.81851637863	23705.5
3474.72396696168	23800
3476.62892279446	23764.5
3478.53338407379	23934.5
3480.43735099614	23710.5
3482.34082375764	23813
3484.24380255404	23801
3486.1462875808	23853.5
3488.048279033	23999
3489.94977710537	23912
3491.85078199231	23938.5
3493.75129388783	23951.5
3495.65131298566	23934
3497.5508394791	24077
3499.44987356115	23974