201.866871357053	663.75
204.754250281456	661.25
207.640596790939	660
210.525911876301	669.75
213.41019652569	662.5
216.293451724511	663
219.175678455486	669.75
222.056877698663	668.5
224.937050431391	662.25
227.816197628365	668.25
230.694320261604	665.5
233.571419300504	659.5
236.447495711765	666
239.322550459507	660.5
242.196584505184	665.5
245.069598807628	660.75
247.94159432308	658.75
250.812572005157	662
253.682532804885	659.25
256.551477670701	659.5
259.419407548458	669
262.286323381442	666.5
265.152226110364	661.5
268.017116673389	668
270.880996006118	664.75
273.743865041624	667
276.605724710438	664.5
279.466575940565	659.75
282.326419657499	670
285.185256784201	664
288.04308824116	669.25
290.899914946356	662.25
293.75573781526	668.75
296.610557760899	676.5
299.464375693819	673.25
302.317192522079	667.75
305.169009151297	669
308.019826484655	666
310.869645422872	669
313.718466864235	674
316.566291704615	667.75
319.41312083746	669
322.258955153805	667.25
325.103795542294	669
327.947642889129	668.25
330.79049807819	669
333.63236199093	670.5
336.473235506447	672.5
339.313119501453	669.25
342.152014850323	672.25
344.989922425064	672
347.826843095356	676.25
350.662777728529	677.5
353.497727189577	675.5
356.331692341196	668.25
359.164674043732	669.75
361.996673155267	671.5
364.827690531538	682.5
367.657727026021	683.75
370.486783489887	678.25
373.314860772046	680.5
376.14195971912	681
378.968081175469	677.25
381.793225983214	679
384.617394982201	675.5
387.44058901005	680.5
390.262808902134	677.75
393.084055491614	678.75
395.904329609395	681.5
398.723632084216	685.75
401.541963742572	673.5
404.359325408781	680
407.17571790494	681.5
409.991142050985	682.5
412.805598664665	674
415.619088561551	682.25
418.431612555051	679
421.243171456419	674.25
424.05376607476	688
426.86339721702	679.75
429.672065688025	683.75
432.479772290455	692.25
435.28651782488	682
438.092303089737	671.25
440.897128881362	686.25
443.700995993992	683.75
446.503905219761	680
449.305857348711	686.75
452.106853168798	682.25
454.906893465921	683.25
457.705979023886	687.75
460.504110624441	685
463.301289047302	686.25
466.09751507009	687.25
468.892789468424	684.75
471.687113015869	682
474.480486483952	687.25
477.272910642201	685
480.064386258111	688
482.854914097161	676.75
485.644494922841	680.5
488.433129496637	693.75
491.22081857805	683
494.007562924587	689
496.793363291787	682.25
499.578220433219	686.25
502.362135100475	682.5
505.145108043209	689.75
507.927140009101	689
510.70823174391	694.75
513.488383991435	689
516.267597493556	693.5
519.045872990221	685.75
521.823211219462	688
524.5996129174	696.5
527.375078818234	690
530.149609654287	693.75
532.923206155968	694.75
535.695869051803	683
538.46759906845	686.75
541.238396930667	688
544.008263361365	684.25
546.777199081581	680
549.545204810496	686
552.312281265439	690.5
555.078429161901	677.25
557.843649213536	683.25
560.607942132158	685.5
563.371308627753	682.75
566.133749408497	678
568.895265180758	692.25
571.655856649067	687.5
574.415524516192	684
577.174269483075	690.5
579.932092248886	693.25
582.688993510996	681.5
585.444973965024	693.5
588.200034304796	695
590.954175222372	690.75
593.707397408072	687.75
596.459701550436	683.5
599.211088336284	689
601.961558450671	690
604.711112576934	689.25
607.459751396673	685.75
610.207475589751	693
612.954285834339	688
615.70018280688	689
618.445167182103	685.75
621.189239633057	679
623.932400831087	688.75
626.674651445839	683.5
629.415992145303	685.25
632.156423595745	682.5
634.895946461815	684.5
637.634561406448	688.25
640.372269090962	686.5
643.109070174981	686
645.84496531651	687.25
648.579955171891	691
651.314040395848	684
654.047221641459	681.5
656.779499560178	686.25
659.510874801831	686.75
662.241348014646	691.75
664.970919845243	685.5
667.699590938608	689
670.427361938164	685.75
673.154233485732	690.75
675.880206221526	684.5
678.605280784208	684.75
681.329457810832	692.5
684.052737936921	686
686.77512179639	681.25
689.496610021632	690
692.217203243456	688.5
694.936902091147	685.5
697.655707192428	679.25
700.373619173495	687.75
703.090638659013	680.25
705.806766272093	684
708.522002634379	692.75
711.236348365948	683
713.949804085381	692
716.662370409764	684
719.374047954676	683.25
722.084837334191	692.5
724.79473916091	687.75
727.50375404595	691.25
730.21188259892	692
732.919125427998	691.75
735.625483139858	690.5
738.330956339726	690
741.035545631373	698.5
743.739251617109	695.5
746.44207489779	687.25
749.144016072856	698.25
751.845075740273	698.5
754.545254496604	685.5
757.244552936979	691.75
759.942971655083	696
762.640511243225	706.5
765.337172292252	696.5
768.032955391651	694
770.727861129485	692.75
773.421890092416	691
776.11504286572	689.25
778.807320033299	698.5
781.49872217765	696.5
784.189249879911	691.5
786.87890371984	693.5
789.567684275826	685.5
792.255592124909	702.75
794.942627842762	701.75
797.628792003709	695.25
800.314085180718	684.75
802.998507945429	696.75
805.682060868145	692.25
808.364744517821	703.5
811.046559462106	694.25
813.727506267312	697
816.407585498422	694
819.086797719131	699.5
821.765143491823	697.75
824.442623377565	692.75
827.119237936129	690.75
829.794987726006	700
832.469873304377	688
835.143895227169	697.25
837.817054048985	687.5
840.489350323206	688.75
843.160784601894	696
845.831357435894	698.5
848.501069374742	697.5
851.169920966756	699.25
853.837912758989	695.5
856.505045297233	701.75
859.171319126073	698
861.836734788825	693
864.501292827581	695.5
867.164993783208	705.75
869.827838195363	698.75
872.489826602455	695.25
875.150959541702	701.5
877.811237549104	697.5
880.470661159458	694.75
883.129230906359	696.5
885.786947322208	696
888.443810938208	692.25
891.099822284387	692
893.754981889586	691.75
896.409290281453	699.25
899.062747986487	697
901.715355530001	699.75
904.367113436154	699
907.018022227933	709
909.668082427173	693
912.317294554575	699.75
914.965659129661	698.25
917.613176670838	696.25
920.259847695365	694
922.90567271936	701.25
925.550652257826	693.75
928.194786824624	701.75
930.838076932514	698.25
933.480523093111	698.75
936.122125816956	694.5
938.762885613448	695.25
941.402802990899	703
944.041878456524	699
946.680112516429	697.25
949.317505675633	694.25
951.954058438084	693.5
954.589771306634	699.75
957.224644783051	689.75
959.858679368047	699.75
962.491875561238	697.75
965.124233861212	698.5
967.755754765453	694.5
970.386438770423	703
973.016286371502	699.75
975.645298063046	691.25
978.273474338357	695.25
980.900815689675	691.5
983.527322608245	688.25
986.152995584248	696.75
988.777835106835	701.75
991.401841664151	695.5
994.025015743307	698.75
996.64735783041	700.25
999.268868410535	701.75
1001.88954796777	698.75
1004.50939698518	698
1007.12841594484	699
1009.74660532783	703
1012.36396561423	706
1014.98049728314	699
1017.59620081267	706.25
1020.21107667995	704
1022.82512536112	700.25
1025.43834733138	703
1028.05074306492	707.5
1030.66231303501	704.25
1033.27305771392	709.25
1035.88297757299	714
1038.49207308257	710.75
1041.10034471211	706.25
1043.70779293008	699.25
1046.31441820402	712.25
1048.92022100052	702.25
1051.52520178525	713.5
1054.12936102295	729.25
1056.73269917742	747
1059.33521671154	775.5
1061.93691408729	779
1064.53779176572	771
1067.13785020694	743
1069.73708987022	718.75
1072.33551121386	721.25
1074.93311469528	730.75
1077.52990077103	713.25
1080.12586989674	713.5
1082.72102252715	718.75
1085.31535911612	722.75
1087.90888011663	716.75
1090.50158598078	713
1093.09347715979	718.25
1095.68455410403	715.75
1098.27481726296	705.75
1100.86426708523	709.5
1103.45290401857	714
1106.04072850991	710.5
1108.6277410053	717.75
1111.21394194993	713.25
1113.79933178816	707.5
1116.3839109635	722.5
1118.96767991862	729.5
1121.55063909539	733.75
1124.13278893477	775.75
1126.71412987696	782.5
1129.29466236132	778
1131.87438682637	755.75
1134.45330370982	752.25
1137.03141344858	734.75
1139.60871647873	720.75
1142.18521323554	723
1144.7609041535	708.75
1147.33578966629	712.75
1149.90987020677	707.25
1152.48314620702	704.5
1155.05561809835	714.75
1157.62728631126	705.75
1160.19815127545	713
1162.76821341988	713
1165.33747317271	714.5
1167.90593096133	714
1170.47358721235	710.75
1173.04044235163	721.25
1175.60649680425	705.25
1178.17175099454	709.25
1180.73620534607	702.75
1183.29986028165	699.75
1185.86271622336	707.75
1188.42477359249	710.75
1190.98603280964	703.5
1193.54649429462	705
1196.10615846653	707
1198.66502574373	709.25
1201.22309654385	702.5
1203.78037128379	706.5
1206.33685037971	702.75
1208.89253424709	700.75
1211.44742330063	705
1214.00151795439	697.25
1216.55481862163	708.75
1219.10732571498	710
1221.65903964631	705.25
1224.20996082683	701.25
1226.760089667	704.75
1229.30942657664	713.25
1231.85797196483	713.5
1234.40572623998	711.75
1236.95268980981	709.25
1239.49886308136	712
1242.04424646099	702.25
1244.58884035435	706.25
1247.13264516647	714
1249.67566130166	709.75
1252.21788916359	712.75
1254.75932915524	718
1257.29998167896	712.25
1259.8398471364	713.75
1262.37892592858	719.25
1264.91721845586	725
1267.45472511795	719.75
1269.9914463139	726.25
1272.52738244213	724
1275.06253390041	721
1277.59690108587	725.25
1280.130484395	726.5
1282.66328422368	734.5
1285.19530096712	736.75
1287.72653501993	768
1290.25698677609	781.5
1292.78665662895	845.25
1295.31554497125	858.75
1297.84365219511	821.25
1300.37097869203	783.25
1302.89752485292	762.75
1305.42329106806	753.25
1307.94827772713	748.75
1310.47248521921	742
1312.99591393279	745.25
1315.51856425575	728.5
1318.04043657537	729
1320.56153127836	733.5
1323.08184875083	732.25
1325.6013893783	731.5
1328.12015354572	735.5
1330.63814163744	728.75
1333.15535403727	727.75
1335.67179112839	725
1338.18745329347	728.75
1340.70234091455	734
1343.21645437314	728.5
1345.72979405019	728.75
1348.24236032607	738
1350.75415358059	743.75
1353.26517419303	721.75
1355.7754225421	741.5
1358.28489900594	734.75
1360.79360396218	743.75
1363.30153778788	747.75
1365.80870085955	737.75
1368.31509355319	743.75
1370.82071624425	747.75
1373.32556930762	736.25
1375.8296531177	743.25
1378.33296804833	742.75
1380.83551447282	736
1383.33729276399	738.5
1385.83830329408	730
1388.33854643489	737.25
1390.83802255762	737.5
1393.33673203302	729.25
1395.83467523128	733.25
1398.33185252212	741
1400.82826427472	742.75
1403.32391085777	736.25
1405.81879263948	740
1408.31290998752	742.75
1410.80626326908	760.75
1413.29885285087	768.75
1415.79067909909	781.75
1418.28174237944	768.25
1420.77204305717	776
1423.26158149702	782.75
1425.75035806323	786.5
1428.2383731196	799.25
1430.72562702943	807.75
1433.21212015554	826
1435.69785286029	848
1438.18282550555	869.25
1440.66703845276	846.25
1443.15049206284	847
1445.6331866963	836.5
1448.11512271316	838
1450.59630047298	823.5
1453.07672033486	841.5
1455.55638265748	827
1458.03528779902	834
1460.51343611725	834.25
1462.99082796946	831.5
1465.46746371252	820
1467.94334370285	827.75
1470.41846829642	806.25
1472.89283784878	803.75
1475.36645271503	786.75
1477.83931324984	794.75
1480.31141980743	781.25
1482.78277274164	790.75
1485.25337240583	782
1487.72321915297	789.25
1490.19231333557	794.25
1492.66065530577	791.25
1495.12824541525	789.25
1497.5950840153	791.75
1500.06117145678	789.5
1502.52650809014	792
1504.99109426543	799.5
1507.45493033228	798.5
1509.91801663992	795.5
1512.38035353717	812.25
1514.84194137248	796.75
1517.30278049386	812
1519.76287124895	806
1522.22221398497	808.5
1524.68080904877	806
1527.13865678681	808.5
1529.59575754514	817.5
1532.05211166946	818
1534.50771950503	813.75
1536.96258139678	823.75
1539.41669768925	817.25
1541.87006872656	825.5
1544.32269485252	831.5
1546.77457641051	827.25
1549.22571374357	827.25
1551.67610719434	838.5
1554.12575710513	832.75
1556.57466381786	826.75
1559.02282767408	838
1561.470249015	834.75
1563.91692818144	846.75
1566.3628655139	864.75
1568.80806135249	841.25
1571.252516037	854
1573.6962299068	860.25
1576.139203301	866.5
1578.58143655828	870
1581.02293001704	864
1583.46368401528	863
1585.90369889071	863.25
1588.34297498065	862
1590.7815126221	871.5
1593.21931215174	869.25
1595.65637390588	876
1598.09269822053	868.5
1600.52828543135	880.25
1602.96313587367	880
1605.3972498825	879.75
1607.83062779252	889.5
1610.26326993808	884.75
1612.69517665322	891.25
1615.12634827165	885
1617.55678512676	894.5
1619.98648755164	881.25
1622.41545587903	890
1624.84369044138	889.75
1627.27119157085	892.5
1629.69795959924	898.25
1632.12399485809	897.25
1634.54929767859	899
1636.97386839165	904.25
1639.39770732789	904.75
1641.8208148176	909.25
1644.24319119078	905
1646.66483677715	913.75
1649.08575190611	917.25
1651.50593690677	921.25
1653.92539210795	924
1656.3441178382	921.5
1658.76211442575	922.5
1661.17938219855	926.5
1663.59592148428	921.75
1666.01173261033	921
1668.42681590377	927.5
1670.84117169145	933
1673.25480029991	924.75
1675.66770205541	934.5
1678.07987728393	943.25
1680.49132631119	943
1682.90204946263	952
1685.31204706342	944.25
1687.72131943847	944.75
1690.1298669124	949.25
1692.53768980957	960.25
1694.94478845411	957.25
1697.35116316982	961.5
1699.75681428031	965
1702.16174210887	953.25
1704.56594697858	970.75
1706.96942921222	984.75
1709.37218913235	968.5
1711.77422706126	973.25
1714.17554332098	961
1716.57613823331	976.5
1718.97601211977	968
1721.37516530169	970.25
1723.77359810006	971.25
1726.17131083573	983
1728.56830382922	972
1730.96457740087	972.25
1733.36013187075	960.25
1735.75496755868	975.5
1738.14908478428	986.5
1740.54248386689	987
1742.93516512566	999.75
1745.32712887946	988
1747.71837544697	981.5
1750.10890514662	993.25
1752.49871829661	982.5
1754.88781521492	995.25
1757.27619621929	1001.5
1759.66386162726	1008
1762.05081175613	993
1764.43704692297	1007.25
1766.82256744465	1003
1769.20737363782	1012.75
1771.59146581888	995
1773.97484430405	1007
1776.35750940932	1025
1778.73946145048	1023.75
1781.12070074309	1022.25
1783.50122760249	1019.5
1785.88104234385	1043
1788.26014528209	1027.75
1790.63853673197	1042.5
1793.01621700796	1051.5
1795.39318642444	1042
1797.76944529549	1045.25
1800.14499393504	1043
1802.51983265681	1053.75
1804.8939617743	1055
1807.26738160085	1058.5
1809.64009244957	1060
1812.01209463339	1048.5
1814.38338846504	1074.25
1816.75397425706	1065.5
1819.12385232181	1069.5
1821.49302297142	1067.5
1823.86148651789	1081
1826.22924327299	1066.75
1828.59629354831	1073
1830.96263765526	1075.75
1833.32827590507	1110
1835.69320860877	1104
1838.05743607724	1096.75
1840.42095862113	1083.25
1842.78377655097	1101.5
1845.14589017707	1097.25
1847.50729980956	1106.25
1849.86800575843	1101.75
1852.22800833346	1104.75
1854.58730784427	1102.5
1856.94590460032	1121.5
1859.30379891087	1129.75
1861.66099108503	1129.5
1864.01748143175	1130.75
1866.37327025978	1141.5
1868.72835787773	1136.25
1871.08274459404	1137.5
1873.43643071697	1139.25
1875.78941655464	1142.25
1878.14170241499	1146.25
1880.4932886058	1147.5
1882.84417543469	1159
1885.19436320915	1162.25
1887.54385223646	1166.25
1889.89264282378	1189.75
1892.24073527809	1180.5
1894.58812990625	1196
1896.93482701494	1182
1899.28082691067	1198.25
1901.62612989985	1199.5
1903.97073628868	1206.75
1906.31464638326	1220.5
1908.6578604895	1217
1911.00037891321	1236.5
1913.34220196001	1213.75
1915.68332993538	1224.25
1918.02376314468	1233.75
1920.36350189311	1244.25
1922.70254648573	1237.5
1925.04089722744	1252.75
1927.37855442304	1253.25
1929.71551837715	1260.5
1932.05178939427	1263.5
1934.38736777876	1275.5
1936.72225383484	1265.75
1939.0564478666	1250.5
1941.38995017799	1271
1943.72276107283	1289.5
1946.05488085479	1272
1948.38630982744	1279.25
1950.71704829419	1276
1953.04709655832	1296
1955.376454923	1300.25
1957.70512369126	1291.25
1960.03310316599	1301.25
1962.36039364999	1302.5
1964.68699544589	1316.25
1967.01290885622	1325
1969.33813418338	1321
1971.66267172965	1333
1973.98652179718	1332
1976.309684688	1339.25
1978.63216070402	1350.25
1980.95395014705	1371.75
1983.27505331873	1360.75
1985.59547052064	1369.25
1987.9152020542	1375.5
1990.23424822074	1385.25
1992.55260932146	1394
1994.87028565746	1407
1997.18727752968	1396.5
1999.50358523901	1400
2001.81920908618	1416
2004.13414937184	1410.25
2006.44840639651	1428.75
2008.7619804606	1436.75
2011.07487186442	1466.75
2013.38708090815	1468.25
2015.6986078919	1471
2018.00945311564	1472.75
2020.31961687924	1498
2022.62909948247	1488
2024.93790122499	1506.25
2027.24602240636	1520.5
2029.55346332604	1529.75
2031.86022428337	1523.75
2034.16630557761	1542.5
2036.47170750791	1530
2038.77643037331	1559
2041.08047447275	1556.25
2043.38384010509	1547.25
2045.68652756907	1566.25
2047.98853716335	1583.25
2050.28986918648	1600.75
2052.59052393692	1597
2054.89050171302	1630.5
2057.18980281307	1614
2059.4884275352	1620.25
2061.78637617753	1614.5
2064.08364903802	1650
2066.38024641457	1644.25
2068.67616860497	1660.5
2070.97141590694	1660.5
2073.26598861809	1649.75
2075.55988703595	1665.5
2077.85311145796	1678.75
2080.14566218145	1680.5
2082.43753950371	1699.75
2084.72874372188	1710
2087.01927513307	1705.75
2089.30913403428	1720
2091.59832072241	1736.75
2093.88683549429	1712.5
2096.17467864666	1757.75
2098.46185047619	1751.25
2100.74835127944	1776.25
2103.03418135292	1783.5
2105.31934099303	1777.5
2107.6038304961	1807.25
2109.88765015838	1811.75
2112.17080027602	1818.5
2114.45328114513	1830.5
2116.7350930617	1858.25
2119.01623632165	1839.25
2121.29671122085	1861.75
2123.57651805505	1862.75
2125.85565711996	1885.5
2128.13412871117	1870.75
2130.41193312424	1901.5
2132.68907065462	1908.5
2134.96554159771	1947
2137.24134624881	1937.5
2139.51648490317	1953.25
2141.79095785594	1980
2144.0647654022	1955.75
2146.33790783698	1974.5
2148.61038545524	1964.25
2150.88219855182	2022.5
2153.15334742154	2011.75
2155.42383235911	2034.5
2157.69365365921	2055.75
2159.9628116164	2053
2162.23130652522	2056.25
2164.49913868011	2080.5
2166.76630837544	2095.5
2169.03281590553	2091.75
2171.29866156461	2116.5
2173.56384564685	2094.25
2175.82836844637	2131.75
2178.0922302572	2150
2180.35543137332	2159
2182.61797208862	2147.75
2184.87985269695	2145
2187.14107349208	2157.75
2189.40163476773	2201.5
2191.66153681753	2171
2193.92077993507	2191.5
2196.17936441386	2210.25
2198.43729054735	2228.75
2200.69455862894	2224.5
2202.95116895194	2252.75
2205.20712180963	2230.25
2207.4624174952	2229.25
2209.71705630179	2279.75
2211.97103852248	2261.5
2214.22436445031	2277.25
2216.47703437819	2295.5
2218.72904859905	2284.25
2220.98040740571	2328.5
2223.23111109096	2353
2225.4811599475	2316.25
2227.730554268	2316
2229.97929434505	2346
2232.22738047118	2357.25
2234.47481293889	2344.25
2236.72159204058	2385.5
2238.96771806864	2363
2241.21319131537	2371.25
2243.458012073	2389.25
2245.70218063374	2396.75
2247.94569728973	2420
2250.18856233304	2440.5
2252.4307760557	2433
2254.67233874967	2428.5
2256.91325070687	2436.75
2259.15351221915	2465.25
2261.39312357831	2433.5
2263.63208507611	2458.75
2265.87039700422	2473.5
2268.1080596543	2457.25
2270.34507331792	2470.5
2272.5814382866	2506.5
2274.81715485183	2501.75
2277.05222330502	2502.5
2279.28664393755	2540.25
2281.52041704073	2496.5
2283.75354290581	2515.75
2285.98602182401	2510.75
2288.21785408649	2512.75
2290.44903998434	2541.25
2292.67957980862	2570.25
2294.90947385033	2572.25
2297.1387224004	2591.25
2299.36732574976	2578.25
2301.59528418921	2585.5
2303.82259800958	2586
2306.04926750158	2591.75
2308.27529295593	2604.75
2310.50067466325	2626.5
2312.72541291412	2614.25
2314.9495079991	2620.25
2317.17296020866	2648
2319.39576983324	2624
2321.61793716322	2651.25
2323.83946248895	2636
2326.0603461007	2656.5
2328.28058828871	2605.5
2330.50018934317	2656.75
2332.7191495542	2645.5
2334.93746921192	2634.75
2337.15514860633	2637.25
2339.37218802743	2659
2341.58858776516	2640
2343.80434810941	2660.75
2346.01946935001	2668.25
2348.23395177676	2667.25
2350.44779567939	2674
2352.66100134759	2675.5
2354.87356907102	2691.75
2357.08549913925	2666.25
2359.29679184185	2675.25
2361.50744746829	2724
2363.71746630804	2698.25
2365.92684865049	2683.75
2368.13559478499	2698.25
2370.34370500083	2676.25
2372.55117958727	2693.25
2374.75801883353	2706.75
2376.96422302874	2692.75
2379.16979246202	2687
2381.37472742244	2663.75
2383.57902819898	2686.75
2385.78269508063	2676
2387.98572835629	2657.5
2390.18812831482	2676
2392.38989524505	2678.5
2394.59102943573	2671.25
2396.79153117559	2687.25
2398.9914007533	2685.5
2401.19063845748	2676.25
2403.38924457672	2703.5
2405.58721939951	2664.25
2407.78456321435	2694.25
2409.98127630966	2688.25
2412.17735897383	2682
2414.37281149518	2673
2416.56763416198	2681.5
2418.76182726249	2683.5
2420.95539108487	2677
2423.14832591726	2665.75
2425.34063204776	2658.25
2427.53230976439	2660.75
2429.72335935513	2685.25
2431.91378110795	2642.5
2434.10357531071	2664.5
2436.29274225126	2652.5
2438.48128221739	2662.5
2440.66919549684	2668.25
2442.8564823773	2641
2445.04314314641	2629
2447.22917809176	2653.75
2449.4145875009	2658.75
2451.59937166131	2624.25
2453.78353086044	2631
2455.96706538567	2644.5
2458.14997552437	2622.75
2460.33226156379	2667.5
2462.51392379119	2615.25
2464.69496249376	2593.25
2466.87537795862	2602.5
2469.05517047288	2596.5
2471.23434032358	2575.5
2473.41288779767	2620
2475.59081318212	2601.25
2477.76811676378	2598
2479.9447988295	2575.5
2482.12085966605	2553.75
2484.29629956016	2572.5
2486.4711187985	2572.25
2488.64531766769	2559
2490.8188964543	2546.75
2492.99185544484	2563.75
2495.16419492579	2580.75
2497.33591518353	2552.25
2499.50701650444	2536
2501.67749917482	2543
2503.84736348091	2531.25
2506.01660970891	2534.25
2508.18523814496	2525
2510.35324907515	2516
2512.52064278551	2536
2514.68741956201	2533.5
2516.85357969058	2531.25
2519.01912345709	2528
2521.18405114735	2522.75
2523.34836304711	2508.5
2525.51205944209	2487
2527.6751406179	2475.5
2529.83760686016	2510
2531.99945845439	2489
2534.16069568607	2515.75
2536.3213188406	2523.75
2538.48132820336	2491
2540.64072405965	2502.75
2542.79950669471	2488.5
2544.95767639373	2507
2547.11523344184	2474.25
2549.27217812411	2467.25
2551.42851072555	2475
2553.58423153111	2460
2555.7393408257	2446.25
2557.89383889413	2459.5
2560.04772602119	2438
2562.20100249158	2442.75
2564.35366858996	2455.75
2566.50572460093	2419.5
2568.65717080901	2412.75
2570.80800749867	2422
2572.95823495433	2402
2575.10785346031	2395.5
2577.25686330093	2357
2579.40526476038	2373.25
2581.55305812282	2391.25
2583.70024367237	2342.5
2585.84682169303	2363.25
2587.99279246879	2329.5
2590.13815628354	2329
2592.28291342112	2353
2594.42706416531	2326
2596.57060879981	2300
2598.71354760826	2327.5
2600.85588087425	2298.25
2602.99760888127	2325.5
2605.13873191278	2283
2607.27925025215	2294.75
2609.41916418269	2279.5
2611.55847398764	2302.75
2613.69717995017	2270.25
2615.8352823534	2281.75
2617.97278148034	2297.25
2620.10967761398	2275
2622.2459710372	2275.25
2624.38166203284	2276.25
2626.51675088365	2270.25
2628.65123787232	2255
2630.78512328145	2243
2632.9184073936	2245
2635.05109049124	2258.5
2637.18317285676	2227.5
2639.31465477249	2250.5
2641.44553652067	2237
2643.5758183835	2230.5
2645.70550064309	2211.5
2647.83458358144	2202.75
2649.96306748053	2214
2652.09095262224	2233.5
2654.21823928836	2194.25
2656.34492776063	2186.25
2658.47101832071	2188.75
2660.59651125015	2214.75
2662.72140683047	2201.5
2664.84570534309	2183
2666.96940706935	2172.75
2669.0925122905	2171.75
2671.21502128773	2154.5
2673.33693434216	2161
2675.45825173479	2172
2677.57897374658	2152.5
2679.6991006584	2154.25
2681.81863275101	2126.25
2683.93757030512	2154.75
2686.05591360133	2120.25
2688.17366292021	2147.25
2690.29081854218	2122.25
2692.40738074762	2126.25
2694.52334981681	2131
2696.63872602995	2081.75
2698.75350966714	2119.75
2700.86770100842	2126
2702.98130033372	2119
2705.09430792289	2092.25
2707.20672405572	2087.25
2709.31854901185	2124.75
2711.42978307091	2102.5
2713.54042651238	2093.75
2715.65047961567	2121.5
2717.7599426601	2114.75
2719.86881592492	2119
2721.97709968924	2103.25
2724.08479423213	2057
2726.19189983255	2078
2728.29841676935	2045.25
2730.40434532131	2067.25
2732.5096857671	2073.75
2734.61443838532	2037.75
2736.71860345444	2010.25
2738.82218125287	2025.75
2740.92517205889	2020.75
2743.02757615073	1995.75
2745.12939380646	1974.25
2747.23062530411	1999
2749.33127092159	2006
2751.4313309367	1987.25
2753.53080562717	1982.5
2755.62969527058	2007.5
2757.72800014448	1969.5
2759.82572052625	1956.75
2761.92285669323	1964.75
2764.0194089226	1966
2766.11537749147	1964.5
2768.21076267686	1953.5
2770.30556475566	1919.5
2772.39978400465	1955.25
2774.49342070054	1903.25
2776.58647511991	1954
2778.67894753923	1959.25
2780.77083823487	1939.75
2782.8621474831	1923.25
2784.95287556007	1925
2787.04302274184	1918.5
2789.13258930433	1926.75
2791.22157552338	1895
2793.30998167471	1934.25
2795.39780803392	1917.25
2797.48505487651	1908.5
2799.57172247786	1869.5
2801.65781111324	1907
2803.74332105781	1877.25
2805.82825258661	1889
2807.91260597457	1871.25
2809.9963814965	1882.25
2812.07957942711	1899.25
2814.16220004096	1879.5
2816.24424361252	1865
2818.32571041614	1867.25
2820.40660072604	1896.5
2822.48691481632	1905.5
2824.56665296098	1899
2826.64581543388	1902
2828.72440250876	1908.75
2830.80241445925	1963.25
2832.87985155885	1990.5
2834.95671408094	2081.75
2837.03300229875	2211.25
2839.10871648544	2313.75
2841.18385691399	2492.5
2843.25842385729	2645.5
2845.33241758808	2754
2847.40583837899	2813
2849.4786865025	2702.5
2851.550962231	2652.5
2853.6226658367	2601
2855.69379759174	2522
2857.76435776806	2455.25
2859.83434663753	2437.5
2861.90376447184	2365.5
2863.97261154259	2320.25
2866.04088812121	2329.75
2868.10859447901	2299.25
2870.17573088717	2320.75
2872.24229761673	2327.25
2874.30829493859	2428
2876.37372312353	2486.25
2878.43858244215	2657.75
2880.50287316496	2756
2882.56659556231	2700
2884.6297499044	2570.75
2886.69233646129	2468.75
2888.75435550293	2397.25
2890.81580729909	2409.25
2892.87669211941	2342
2894.9370102334	2349.75
2896.99676191039	2300
2899.05594741961	2317
2901.11456703011	2263.25
2903.1726210108	2217.5
2905.23010963045	2219.25
2907.28703315768	2196.25
2909.34339186096	2143.25
2911.39918600861	2122.5
2913.45441586879	2105.25
2915.50908170953	2102
2917.56318379867	2080.5
2919.61672240395	2077
2921.66969779291	2072.25
2923.72211023296	2034.75
2925.77395999134	2061
2927.82524733515	2052.5
2929.87597253133	2029
2931.92613584663	2018.25
2933.9757375477	2004.75
2936.02477790097	1933
2938.07325717276	1929.5
2940.1211756292	1889.75
2942.16853353626	1860.5
2944.21533115977	1833.25
2946.26156876536	1782.75
2948.30724661853	1741
2950.3523649846	1743
2952.39692412872	1717
2954.44092431587	1714
2956.4843658109	1715
2958.52724887843	1678.25
2960.56957378296	1694
2962.6113407888	1684.25
2964.65255016011	1679.5
2966.69320216083	1672
2968.73329705479	1672
2970.77283510559	1664.25
2972.81181657671	1658.75
2974.85024173141	1649.75
2976.88811083279	1632.5
2978.92542414379	1640
2980.96218192714	1646.25
2982.99838444541	1628.5
2985.034031961	1632.25
2987.06912473612	1635.75
2989.1036630328	1641.25
2991.13764711289	1623
2993.17107723804	1608.5
2995.20395366975	1620.75
2997.23627666931	1617.25
2999.26804649782	1593.25
3001.29926341624	1601.25
3003.32992768528	1613
3005.3600395655	1614.5
3007.38959931727	1618.75
3009.41860720076	1604
3011.44706347595	1613.25
3013.47496840263	1625.5
3015.50232224042	1597.25
3017.5291252487	1571.75
3019.5553776867	1624.75
3021.58107981344	1591.25
3023.60623188773	1615.25
3025.63083416822	1595.25
3027.65488691331	1591
3029.67839038125	1597.5
3031.70134483007	1579.5
3033.72375051759	1592.25
3035.74560770145	1592
3037.76691663907	1598.75
3039.78767758768	1599.5
3041.80789080431	1590
3043.82755654577	1596
3045.84667506867	1583.75
3047.8652466294	1578.5
3049.88327148418	1563
3051.90074988899	1582
3053.91768209961	1558.75
3055.93406837161	1578.25
3057.94990896033	1569
3059.96520412095	1568.75
3061.97995410838	1567.5
3063.99415917734	1562.5
3066.00781958234	1579.5
3068.02093557766	1548
3070.03350741738	1541
3072.04553535535	1561.75
3074.05701964521	1557.25
3076.06796054036	1547.25
3078.07835829401	1518
3080.08821315912	1543.75
3082.09752538846	1554.25
3084.10629523454	1524
3086.11452294967	1549.5
3088.12220878592	1539.25
3090.12935299515	1522.25
3092.13595582898	1529.75
3094.1420175388	1530.5
3096.1475383758	1515.5
3098.15251859088	1518.5
3100.15695843477	1512.75
3102.16085815793	1512.5
3104.16421801062	1511.25
3106.16703824282	1507.25
3108.16931910432	1521.5
3110.17106084464	1512.5
3112.17226371308	1517
3114.17292795872	1521.5
3116.17305383034	1527
3118.17264157657	1522.75
3120.17169144571	1493.25
3122.17020368587	1503.25
3124.16817854492	1527.25
3126.16561627044	1513.75
3128.16251710982	1531.25
3130.15888131017	1489.75
3132.15470911837	1513.5
3134.15000078104	1507.25
3136.14475654455	1495.75
3138.13897665502	1517.5
3140.13266135835	1514
3142.12581090015	1512.75
3144.11842552578	1528.5
3146.11050548036	1517
3148.10205100875	1497.5
3150.09306235557	1521.5
3152.08353976515	1490.75
3154.07348348158	1514.5
3156.06289374869	1522.5
3158.05177081006	1490
3160.04011490899	1501.25
3162.02792628852	1504
3164.01520519145	1499.5
3166.00195186029	1513.5
3167.98816653728	1493
3169.97384946442	1492.75
3171.95900088344	1509.25
3173.94362103577	1500.5
3175.9277101626	1490
3177.91126850484	1501
3179.89429630312	1486.5
3181.87679379782	1497
3183.85876122904	1507.75
3185.84019883657	1488.25
3187.82110685997	1495.5
3189.80148553851	1492.25
3191.78133511116	1499.75
3193.76065581664	1497.75
3195.73944789337	1482.75
3197.7177115795	1499.5
3199.6954471129	1487
3201.67265473114	1494.5
3203.64933467153	1495.25
3205.62548717107	1497.25
3207.60111246649	1517.5
3209.57621079422	1484
3211.55078239041	1497.5
3213.52482749093	1483.5
3215.49834633133	1498
3217.4713391469	1519
3219.44380617262	1504.5
3221.41574764318	1505.5
3223.38716379296	1499
3225.35805485607	1515.5
3227.32842106631	1499
3229.29826265718	1490
3231.26757986187	1512.75
3233.2363729133	1514.5
3235.20464204405	1514.25
3237.17238748644	1512.5
3239.13960947243	1520.25
3241.10630823374	1517.75
3243.07248400174	1532
3245.03813700748	1516
3247.00326748177	1512
3248.96787565503	1515
3250.93196175742	1537.5
3252.89552601877	1512
3254.8585686686	1524
3256.82108993612	1526.5
3258.78309005022	1529.75
3260.74456923948	1505.25
3262.70552773215	1520.5
3264.66596575617	1490
3266.62588353916	1529
3268.58528130843	1515
3270.54415929094	1494
3272.50251771336	1514.75
3274.46035680202	1523
3276.4176767829	1536.75
3278.37447788171	1533.5
3280.33076032379	1541
3282.28652433416	1521.75
3284.24177013751	1526.75
3286.1964979582	1506
3288.15070802027	1525.5
3290.10440054741	1511.25
3292.05757576298	1527.25
3294.01023389001	1519.25
3295.96237515119	1524.25
3297.91399976887	1516.25
3299.86510796506	1528.75
3301.81569996143	1535.25
3303.76577597932	1520
3305.71533623971	1529.5
3307.66438096325	1541
3309.61291037024	1534
3311.56092468063	1531.25
3313.50842411404	1531.75
3315.45540888971	1525.25
3317.40187922656	1520
3319.34783534315	1523.25
3321.29327745768	1504.25
3323.23820578801	1510.5
3325.18262055164	1533.25
3327.1265219657	1523.25
3329.06991024699	1514
3331.01278561194	1511.25
3332.95514827663	1531.75
3334.89699845675	1521.25
3336.83833636766	1541
3338.77916222434	1514.75
3340.71947624143	1522.25
3342.65927863317	1540.75
3344.59856961347	1520.5
3346.53734939584	1552.25
3348.47561819344	1525.25
3350.41337621907	1518
3352.35062368513	1523.25
3354.28736080368	1539.25
3356.22358778637	1525.75
3358.15930484452	1542.5
3360.09451218904	1535.5
3362.02921003047	1542
3363.96339857899	1541.75
3365.89707804437	1531.5
3367.83024863603	1548
3369.76291056299	1525.5
3371.69506403389	1527.75
3373.62670925699	1552.5
3375.55784644016	1537
3377.4884757909	1550
3379.41859751629	1572.75
3381.34821182305	1542.5
3383.27731891749	1547.75
3385.20591900555	1562.25
3387.13401229276	1571.75
3389.06159898426	1555.5
3390.9886792848	1560.75
3392.91525339872	1570.5
3394.84132152998	1567.5
3396.76688388213	1589.5
3398.69194065834	1568.5
3400.61649206133	1580.5
3402.54053829348	1598.5
3404.46407955672	1579.75
3406.3871160526	1565.75
3408.30964798225	1583.25
3410.23167554639	1594.75
3412.15319894535	1600.25
3414.07421837904	1580.25
3415.99473404695	1592.75
3417.91474614817	1628
3419.83425488136	1597.25
3421.7532604448	1598
3423.67176303631	1595.5
3425.58976285332	1576.25
3427.50726009283	1599.25
3429.42425495143	1590
3431.34074762528	1617
3433.25673831012	1594.25
3435.17222720127	1598.75
3437.08721449362	1604.25
3439.00170038164	1605.25
3440.91568505936	1617.25
3442.8291687204	1601.5
3444.74215155792	1588.25
3446.65463376469	1600
3448.566615533	1605.75
3450.47809705476	1607.75
3452.3890785214	1617.5
3454.29956012393	1625
3456.20954205293	1616.25
3458.11902449853	1611
3460.02800765042	1600.25
3461.93649169784	1636.75
3463.84447682962	1640.5
3465.75196323412	1632
3467.65895109925	1616.75
3469.56544061249	1630.25
3471.47143196086	1639.5
3473.37692533094	1609.25
3475.28192090884	1639
3477.18641888026	1638.75
3479.09041943039	1643.25
3480.99392274402	1638.5
3482.89692900545	1641
3484.79943839853	1640
3486.70145110666	1645.75
3488.60296731277	1653.5
3490.50398719933	1635.75
3492.40451094836	1636.75
3494.30453874141	1638.25
3496.20407075956	1640.75
3498.10310718342	1660.75
3500.00164819315	1648