201.866871357051	1489.75
204.754250281454	1508
207.640596790938	1516.75
210.525911876299	1503
213.410196525689	1501.5
216.293451724508	1537
219.175678455485	1530.25
222.056877698662	1522.25
224.937050431388	1528
227.816197628363	1540.75
230.694320261602	1526
233.571419300504	1528
236.447495711764	1547.75
239.322550459507	1563.25
242.196584505182	1582.25
245.069598807626	1560
247.941594323078	1571
250.812572005154	1576.5
253.682532804884	1561
256.551477670699	1585.75
259.419407548456	1582
262.286323381439	1594.75
265.152226110364	1577.5
268.017116673389	1570
270.880996006115	1573.75
273.743865041622	1594
276.605724710436	1584
279.466575940562	1580.75
282.326419657496	1581.75
285.1852567842	1588.75
288.043088241157	1585
290.899914946349	1603.25
293.75573781526	1602.75
296.610557760898	1599.5
299.464375693817	1608.5
302.317192522078	1612
305.169009151297	1633.75
308.019826484655	1606.5
310.86964542287	1602.25
313.718466864233	1617.5
316.566291704614	1614
319.413120837457	1612.5
322.258955153804	1598.75
325.103795542291	1606.5
327.947642889128	1605.75
330.79049807819	1595.5
333.632361990927	1613.25
336.473235506444	1629.75
339.31311950145	1610.5
342.152014850322	1610.75
344.989922425062	1635.75
347.826843095354	1641.5
350.662777728528	1639.5
353.497727189577	1638.75
356.331692341195	1643.25
359.164674043732	1641
361.996673155267	1650.5
364.827690531536	1655.5
367.65772702602	1669
370.486783489887	1654.75
373.314860772047	1667.5
376.14195971912	1654.75
378.968081175466	1658.75
381.793225983212	1666.25
384.617394982201	1670.5
387.44058901005	1685.25
390.262808902131	1671.25
393.08405549161	1674.25
395.904329609395	1708.25
398.723632084213	1711.5
401.541963742569	1700.25
404.359325408779	1699
407.175717904938	1689
409.991142050982	1698
412.805598664665	1663.25
415.619088561551	1688
418.43161255505	1678.25
421.243171456415	1658.75
424.053766074758	1711.5
426.863397217017	1696
429.672065688024	1687.25
432.479772290455	1695
435.286517824879	1714.25
438.092303089736	1714.75
440.897128881359	1707.25
443.70099599399	1721.5
446.503905219761	1719.25
449.305857348711	1718.5
452.106853168796	1724.75
454.906893465919	1729.25
457.705979023885	1728
460.504110624439	1719
463.3012890473	1715.25
466.097515070087	1708.25
468.892789468424	1721.5
471.687113015869	1700.5
474.48048648395	1722.75
477.272910642198	1703.75
480.064386258109	1718.25
482.854914097159	1723.75
485.644494922839	1730.5
488.433129496636	1749.75
491.220818578047	1739.25
494.007562924584	1727
496.793363291785	1734.25
499.578220433217	1726.25
502.362135100473	1729
505.145108043209	1738
507.927140009098	1748.5
510.708231743909	1772
513.488383991433	1768.5
516.267597493556	1760.25
519.04587299022	1767.5
521.82321121946	1760
524.599612917398	1773.25
527.375078818233	1781.25
530.149609654287	1767.5
532.923206155967	1772.5
535.695869051804	1764.75
538.467599068448	1762.75
541.238396930665	1769
544.008263361364	1747
546.777199081578	1754.25
549.545204810493	1756
552.312281265436	1758.75
555.078429161898	1758
557.843649213533	1770.25
560.607942132156	1749.25
563.371308627753	1751.75
566.133749408495	1753.5
568.895265180756	1776
571.655856649064	1766.25
574.415524516189	1770
577.174269483075	1799.75
579.932092248884	1770
582.688993510994	1789
585.444973965023	1772.5
588.200034304795	1810.25
590.95417522237	1794.5
593.70739740807	1793.5
596.459701550433	1800.25
599.21108833628	1783
601.961558450668	1783.25
604.711112576933	1812.25
607.459751396673	1756.5
610.207475589748	1767.25
612.954285834338	1763.25
615.700182806879	1769.25
618.445167182101	1768.75
621.189239633055	1789.5
623.932400831087	1775.75
626.674651445839	1770
629.415992145303	1797.25
632.156423595745	1784.75
634.895946461813	1787.75
637.634561406449	1773
640.37226909096	1782
643.109070174978	1785.75
645.844965316508	1799.75
648.579955171888	1777
651.314040395846	1786.75
654.047221641456	1771
656.779499560176	1796
659.510874801828	1800
662.241348014642	1795.5
664.97091984524	1796
667.699590938606	1815.75
670.427361938164	1817.25
673.15423348573	1804.5
675.880206221526	1830.5
678.605280784206	1819.5
681.329457810829	1845.75
684.05273793692	1816.75
686.775121796389	1845.25
689.49661002163	1830.5
692.217203243454	1845.75
694.936902091144	1818.5
697.655707192425	1840.5
700.373619173493	1811.5
703.09063865901	1805.75
705.806766272093	1796.5
708.522002634378	1828.25
711.236348365946	1814.5
713.94980408538	1789
716.662370409762	1813.75
719.374047954676	1794.75
722.08483733419	1800.75
724.794739160909	1837
727.503754045949	1808
730.21188259892	1811
732.919125427998	1828.5
735.625483139855	1833.25
738.330956339723	1823
741.035545631374	1831.25
743.739251617106	1856.25
746.44207489779	1840.75
749.144016072852	1857
751.845075740272	1860
754.545254496603	1876.5
757.244552936976	1847.25
759.94297165508	1842.75
762.640511243222	1854.25
765.337172292249	1868
768.032955391649	1847.25
770.727861129482	1865.25
773.421890092413	1867.75
776.11504286572	1866.5
778.807320033298	1866
781.49872217765	1857.25
784.18924987991	1840.5
786.87890371984	1856.25
789.567684275826	1854.5
792.255592124908	1847
794.94262784276	1856.25
797.628792003703	1865
800.314085180715	1852
802.998507945427	1930.75
805.682060868145	1938
808.364744517821	1991.25
811.046559462105	1986.25
813.727506267311	1938.5
816.407585498422	1920.75
819.08679771913	1894.75
821.765143491822	1912.25
824.442623377563	1916.5
827.119237936127	1932.25
829.794987726003	1918
832.469873304377	1926
835.143895227167	1930.75
837.817054048985	1963
840.489350323205	1957.75
843.160784601892	1956
845.831357435894	1934
848.501069374739	1907.5
851.169920966753	1940.25
853.837912758987	1930
856.505045297232	1923.75
859.171319126071	1928.5
861.836734788823	1953
864.501292827579	1946.75
867.164993783208	1922.5
869.827838195361	1919.5
872.489826602454	1913.75
875.150959541701	1920
877.811237549104	1914.75
880.470661159456	1942.25
883.129230906357	1922
885.786947322205	1895.5
888.443810938206	1940
891.099822284385	1924.25
893.754981889586	1943.5
896.409290281452	1945.75
899.062747986485	1935.75
901.715355529999	1934
904.367113436154	1959.75
907.01802222793	1977.5
909.668082427172	1951.25
912.317294554574	1959
914.965659129659	1980
917.613176670835	1964
920.259847695364	1982
922.90567271936	1970
925.550652257825	1987.75
928.194786824621	2006.5
930.838076932512	1998.75
933.480523093109	1998.75
936.122125816953	1993
938.762885613447	1984
941.402802990899	1998.75
944.041878456523	2036.25
946.680112516428	2018
949.31750567563	2025.5
951.954058438081	2024.75
954.589771306633	2031.5
957.224644783048	2019.25
959.858679368044	2037.75
962.491875561238	2004.75
965.12423386121	2070
967.75575476545	2063.5
970.386438770423	2107.75
973.016286371501	2104
975.645298063046	2084.25
978.273474338355	2070.75
980.900815689674	2064
983.527322608243	2063.5
986.152995584245	2042.25
988.777835106834	2075.25
991.401841664148	2050.25
994.025015743307	2056.5
996.647357830407	2068.25
999.268868410534	2096
1001.88954796777	2079.25
1004.50939698518	2079
1007.12841594484	2080.75
1009.74660532783	2090.5
1012.36396561423	2115.75
1014.98049728314	2116.5
1017.59620081267	2096.75
1020.21107667995	2116.5
1022.82512536112	2123.75
1025.43834733138	2144.75
1028.05074306493	2127.75
1030.66231303501	2149.25
1033.27305771392	2153.75
1035.88297757299	2157.5
1038.49207308257	2149.75
1041.10034471211	2111.5
1043.70779293008	2171.25
1046.31441820402	2180.25
1048.92022100052	2154.5
1051.52520178525	2185
1054.12936102295	2179.75
1056.73269917742	2156.75
1059.33521671154	2221
1061.93691408729	2195.75
1064.53779176571	2214
1067.13785020694	2194.25
1069.73708987022	2219
1072.33551121386	2202.25
1074.93311469528	2176.5
1077.52990077103	2213.5
1080.12586989674	2179.25
1082.72102252714	2231
1085.31535911611	2218.25
1087.90888011663	2246
1090.50158598078	2225.5
1093.09347715979	2223.25
1095.68455410403	2215.5
1098.27481726296	2235.5
1100.86426708523	2269.25
1103.45290401857	2262.5
1106.04072850991	2247.5
1108.6277410053	2291.75
1111.21394194993	2253.25
1113.79933178816	2291.25
1116.3839109635	2292.5
1118.96767991862	2295.75
1121.55063909539	2288.5
1124.13278893477	2305
1126.71412987696	2317.75
1129.29466236132	2351.5
1131.87438682637	2340.25
1134.45330370982	2345
1137.03141344858	2375
1139.60871647872	2351.25
1142.18521323554	2400
1144.7609041535	2379.75
1147.33578966629	2379.75
1149.90987020676	2423.5
1152.48314620702	2396.25
1155.05561809835	2423.5
1157.62728631125	2424.5
1160.19815127545	2480.25
1162.76821341988	2483.75
1165.33747317271	2513.25
1167.90593096133	2491.5
1170.47358721235	2477.75
1173.04044235163	2464.25
1175.60649680425	2481.5
1178.17175099454	2440.25
1180.73620534607	2485
1183.29986028165	2459
1185.86271622336	2448.5
1188.42477359249	2457.5
1190.98603280964	2489.5
1193.54649429462	2468.25
1196.10615846653	2519.5
1198.66502574372	2493.75
1201.22309654385	2504.75
1203.78037128378	2518
1206.33685037971	2514.25
1208.89253424709	2506.5
1211.44742330063	2520
1214.00151795438	2528.75
1216.55481862163	2544
1219.10732571497	2569.25
1221.65903964631	2571.25
1224.20996082683	2608.25
1226.760089667	2617.25
1229.30942657664	2583.75
1231.85797196483	2629.75
1234.40572623998	2616
1236.95268980981	2626.5
1239.49886308136	2668
1242.04424646098	2656.25
1244.58884035435	2688.5
1247.13264516647	2698
1249.67566130166	2748.25
1252.21788916358	2740.5
1254.75932915524	2762.75
1257.29998167896	2768
1259.83984713639	2775.25
1262.37892592857	2794.25
1264.91721845586	2816
1267.45472511795	2826.75
1269.9914463139	2845
1272.52738244213	2871.75
1275.0625339004	2878.25
1277.59690108587	2889.5
1280.130484395	2902.5
1282.66328422367	2917.25
1285.19530096712	2939.25
1287.72653501993	2952.25
1290.25698677608	2971.5
1292.78665662894	3042.5
1295.31554497125	3010.75
1297.8436521951	3038.5
1300.37097869203	3063
1302.89752485292	3051.5
1305.42329106805	3075.25
1307.94827772713	3067.75
1310.47248521921	3119.25
1312.99591393279	3134.75
1315.51856425575	3141.5
1318.04043657536	3135.25
1320.56153127836	3170.5
1323.08184875083	3245.75
1325.6013893783	3240
1328.12015354572	3285.75
1330.63814163744	3306.25
1333.15535403727	3327.25
1335.67179112839	3379
1338.18745329347	3351.25
1340.70234091454	3383
1343.21645437314	3382
1345.72979405019	3409
1348.24236032607	3425
1350.75415358059	3478
1353.26517419303	3523.25
1355.7754225421	3540.75
1358.28489900594	3596.25
1360.79360396218	3631
1363.30153778787	3634.75
1365.80870085955	3631.25
1368.31509355319	3635.25
1370.82071624424	3652.5
1373.32556930762	3678.5
1375.8296531177	3698.25
1378.33296804832	3706.75
1380.83551447282	3705.75
1383.33729276399	3743
1385.83830329408	3756
1388.33854643489	3793
1390.83802255762	3742.5
1393.33673203301	3810.5
1395.83467523128	3837.25
1398.33185252211	3857.75
1400.82826427471	3900.25
1403.32391085777	3893.5
1405.81879263947	3963.25
1408.31290998752	3963.5
1410.80626326908	3985
1413.29885285087	3990.75
1415.79067909909	4044.5
1418.28174237944	4104.25
1420.77204305717	4120
1423.26158149702	4135
1425.75035806323	4253.75
1428.2383731196	4222.25
1430.72562702942	4285.25
1433.21212015554	4321.25
1435.69785286028	4411.75
1438.18282550555	4481.25
1440.66703845275	4490.25
1443.15049206284	4521
1445.6331866963	4569
1448.11512271316	4643.5
1450.59630047298	4760.75
1453.07672033486	4728.25
1455.55638265748	4772.75
1458.03528779902	4840.5
1460.51343611725	4884.5
1462.99082796946	4925.25
1465.46746371252	4947
1467.94334370285	5008
1470.41846829642	4967.25
1472.89283784878	5018
1475.36645271503	5098.5
1477.83931324983	5061.75
1480.31141980743	5130.75
1482.78277274164	5232.25
1485.25337240583	5219.5
1487.72321915297	5233.75
1490.19231333557	5305.25
1492.66065530578	5313
1495.12824541525	5348.5
1497.5950840153	5390.25
1500.06117145678	5418
1502.52650809014	5475.5
1504.99109426543	5516
1507.45493033227	5597.25
1509.91801663992	5594
1512.38035353717	5639.25
1514.84194137248	5734.25
1517.30278049386	5750
1519.76287124894	5823
1522.22221398497	5822.25
1524.68080904876	5901
1527.13865678681	5955.5
1529.59575754514	6049
1532.05211166945	6036
1534.50771950503	6099
1536.96258139678	6210.25
1539.41669768924	6232.25
1541.87006872656	6283.5
1544.32269485252	6377.25
1546.77457641051	6359
1549.22571374357	6411.25
1551.67610719434	6543.75
1554.12575710513	6575.75
1556.57466381785	6629.75
1559.02282767408	6626.75
1561.47024901499	6733.25
1563.91692818144	6824.5
1566.3628655139	6872.5
1568.80806135249	6944.25
1571.252516037	6978.25
1573.6962299068	7038.5
1576.13920330099	7084.25
1578.58143655828	7082
1581.02293001704	7200
1583.46368401528	7225.25
1585.90369889071	7259.25
1588.34297498065	7333
1590.7815126221	7364.5
1593.21931215173	7430.75
1595.65637390588	7419.75
1598.09269822053	7430.25
1600.52828543135	7574
1602.96313587367	7522.75
1605.3972498825	7546.75
1607.83062779252	7529.5
1610.26326993808	7640.25
1612.69517665322	7675.25
1615.12634827165	7717
1617.55678512676	7663.25
1619.98648755163	7644.75
1622.41545587902	7681.75
1624.84369044138	7661.5
1627.27119157085	7706
1629.69795959924	7736.25
1632.12399485808	7778.5
1634.54929767859	7801.25
1636.97386839165	7845.75
1639.39770732789	7812.75
1641.8208148176	7877.75
1644.24319119078	7904.5
1646.66483677715	7933.5
1649.0857519061	8022.5
1651.50593690677	7982.75
1653.92539210795	8114.25
1656.3441178382	8110.5
1658.76211442575	8068
1661.17938219855	8101.25
1663.59592148428	8190
1666.01173261032	8269.25
1668.42681590377	8337.75
1670.84117169145	8306.75
1673.25480029991	8312.5
1675.66770205541	8405
1678.07987728393	8372
1680.49132631119	8465
1682.90204946263	8475.75
1685.31204706342	8488.5
1687.72131943846	8563.25
1690.1298669124	8556.5
1692.53768980957	8691.25
1694.94478845411	8616.5
1697.35116316982	8681.75
1699.75681428031	8645.75
1702.16174210887	8674.5
1704.56594697858	8734.5
1706.96942921222	8811.75
1709.37218913235	8769.5
1711.77422706125	8743.75
1714.17554332098	8817.5
1716.5761382333	8803.75
1718.97601211977	8743.25
1721.37516530169	8816.25
1723.77359810006	8761.75
1726.17131083572	8815.25
1728.56830382922	8818.75
1730.96457740087	8786
1733.36013187075	8745
1735.75496755868	8842.25
1738.14908478428	8844.75
1740.54248386689	8819.75
1742.93516512565	8782.75
1745.32712887946	8795.75
1747.71837544697	8832.5
1750.10890514662	8865.25
1752.49871829661	8906.25
1754.88781521492	8865
1757.27619621929	8922
1759.66386162726	8936.5
1762.05081175612	8862.5
1764.43704692297	8946
1766.82256744465	8945.75
1769.20737363782	9053
1771.59146581887	8973.5
1773.97484430405	9071
1776.35750940932	9061
1778.73946145048	9071.25
1781.12070074309	9145.75
1783.50122760249	9215.5
1785.88104234385	9247
1788.26014528209	9279.5
1790.63853673196	9180.5
1793.01621700796	9291.25
1795.39318642443	9365.25
1797.76944529549	9370.5
1800.14499393503	9356.5
1802.51983265681	9330.75
1804.8939617743	9391.25
1807.26738160085	9474.75
1809.64009244957	9451.75
1812.01209463339	9465.75
1814.38338846504	9563.5
1816.75397425706	9532.25
1819.12385232181	9566
1821.49302297142	9634.75
1823.86148651789	9601
1826.22924327299	9546.5
1828.59629354831	9631
1830.96263765526	9584.75
1833.32827590507	9609
1835.69320860877	9660.25
1838.05743607724	9652.25
1840.42095862113	9701.75
1842.78377655097	9651.25
1845.14589017707	9684
1847.50729980956	9723
1849.86800575843	9700
1852.22800833346	9699.25
1854.58730784427	9764
1856.94590460032	9822.5
1859.30379891087	9853
1861.66099108503	9854.75
1864.01748143175	9988.25
1866.37327025978	9902.5
1868.72835787773	9848.25
1871.08274459403	9969.75
1873.43643071697	9953.75
1875.78941655464	10129.25
1878.14170241498	10072.75
1880.4932886058	10167
1882.84417543469	10265.75
1885.19436320915	10138.5
1887.54385223646	10238.5
1889.89264282378	10355.25
1892.24073527809	10303
1894.58812990625	10403
1896.93482701493	10554.75
1899.28082691067	10428.75
1901.62612989984	10550.75
1903.97073628868	10539
1906.31464638326	10611.75
1908.6578604895	10711.75
1911.00037891321	10702.5
1913.34220196	10811
1915.68332993537	10747
1918.02376314468	10829
1920.36350189311	10862.25
1922.70254648573	10865.5
1925.04089722744	10903
1927.37855442303	10868.5
1929.71551837715	10931.5
1932.05178939426	10970.25
1934.38736777876	10973.25
1936.72225383484	10898.25
1939.0564478666	11078.25
1941.38995017799	10998.25
1943.72276107283	11103
1946.05488085479	11014.75
1948.38630982744	10967
1950.71704829419	11068.25
1953.04709655832	11013.5
1955.376454923	11067.5
1957.70512369126	11006
1960.03310316599	11199.5
1962.36039364999	11027
1964.68699544589	11118.75
1967.01290885622	11178.25
1969.33813418338	11145.75
1971.66267172965	11160.5
1973.98652179718	11215.25
1976.309684688	11291.5
1978.63216070402	11299.25
1980.95395014705	11431.75
1983.27505331873	11324
1985.59547052063	11365
1987.9152020542	11477.25
1990.23424822074	11495.5
1992.55260932146	11472.25
1994.87028565746	11558
1997.18727752968	11546.5
1999.503585239	11730.25
2001.81920908618	11705
2004.13414937184	11745.5
2006.44840639651	11930
2008.7619804606	11920.25
2011.07487186442	11989.25
2013.38708090815	12026
2015.6986078919	12053.25
2018.00945311564	12232.75
2020.31961687923	12200.25
2022.62909948246	12293.5
2024.93790122498	12348.25
2027.24602240636	12428.5
2029.55346332604	12426.25
2031.86022428337	12387.5
2034.16630557761	12490.5
2036.47170750791	12485
2038.77643037331	12516.25
2041.08047447275	12607
2043.38384010509	12531.5
2045.68652756907	12652.5
2047.98853716335	12657.5
2050.28986918648	12730
2052.59052393692	12760.75
2054.89050171302	12730.25
2057.18980281306	12834.75
2059.4884275352	12926.5
2061.78637617753	12889
2064.08364903802	12807
2066.38024641457	12850.25
2068.67616860497	12901
2070.97141590694	12850.75
2073.26598861809	12939.5
2075.55988703595	12877.75
2077.85311145796	12954.5
2080.14566218145	12907.75
2082.43753950371	13035.5
2084.72874372188	12945.75
2087.01927513307	12991.5
2089.30913403428	13048.25
2091.59832072241	13031.25
2093.88683549429	12893
2096.17467864666	13073
2098.46185047619	13179.75
2100.74835127944	13166
2103.03418135292	13216.5
2105.31934099303	13070.25
2107.6038304961	13290.75
2109.88765015838	13268.25
2112.17080027602	13307.5
2114.45328114513	13370.25
2116.7350930617	13393.75
2119.01623632165	13304.5
2121.29671122085	13292.75
2123.57651805505	13463.5
2125.85565711996	13525.25
2128.13412871117	13520
2130.41193312424	13521.5
2132.68907065462	13517.5
2134.96554159771	13537.75
2137.24134624881	13586.25
2139.51648490317	13591.75
2141.79095785593	13653.5
2144.0647654022	13757.75
2146.33790783698	13668.75
2148.61038545524	13598.5
2150.88219855182	13762
2153.15334742154	13683.75
2155.42383235911	13768.5
2157.6936536592	13716.5
2159.9628116164	13662.25
2162.23130652522	13723.25
2164.49913868011	13742.25
2166.76630837544	13741.75
2169.03281590552	13763
2171.2986615646	13739.25
2173.56384564685	13597.75
2175.82836844637	13610
2178.0922302572	13688
2180.35543137332	13591
2182.61797208862	13630.25
2184.87985269695	13520.75
2187.14107349208	13562.25
2189.40163476773	13578
2191.66153681753	13552.25
2193.92077993507	13353.25
2196.17936441386	13408.5
2198.43729054735	13451.75
2200.69455862894	13392
2202.95116895194	13307.5
2205.20712180962	13360.25
2207.46241749519	13252
2209.71705630179	13369.75
2211.97103852248	13249.5
2214.2243644503	13210.25
2216.47703437819	13253.25
2218.72904859905	13152
2220.98040740571	13157.75
2223.23111109095	13133
2225.4811599475	13071.25
2227.73055426799	13141
2229.97929434504	12969.25
2232.22738047118	12955.75
2234.47481293889	13023.25
2236.72159204058	13143.5
2238.96771806864	13008.5
2241.21319131536	12912.25
2243.458012073	12835.5
2245.70218063374	12891
2247.94569728973	12892.5
2250.18856233304	12898.5
2252.4307760557	12716.25
2254.67233874967	12690
2256.91325070687	12707.25
2259.15351221915	12660
2261.39312357831	12670.75
2263.63208507611	12577.25
2265.87039700422	12537
2268.1080596543	12636.25
2270.34507331792	12543.25
2272.5814382866	12503.75
2274.81715485183	12479.5
2277.05222330502	12487
2279.28664393755	12427.25
2281.52041704072	12378.5
2283.75354290581	12341.25
2285.98602182401	12381.25
2288.21785408648	12298.75
2290.44903998434	12292.25
2292.67957980862	12247.75
2294.90947385033	12194.25
2297.1387224004	12208.75
2299.36732574975	12205
2301.59528418921	12154.5
2303.82259800958	12125
2306.04926750158	12009.5
2308.27529295593	11993.75
2310.50067466325	12064.75
2312.72541291412	12005
2314.9495079991	11934.75
2317.17296020866	11968.25
2319.39576983323	11950.25
2321.61793716322	11900.75
2323.83946248894	11879.75
2326.06034610069	11808.75
2328.28058828871	11766.75
2330.50018934317	11727.5
2332.7191495542	11709.5
2334.93746921192	11613.5
2337.15514860633	11609.5
2339.37218802743	11568.75
2341.58858776516	11514
2343.80434810941	11572.75
2346.01946935001	11517.25
2348.23395177675	11436
2350.44779567939	11498.75
2352.66100134759	11405.25
2354.87356907101	11451.75
2357.08549913925	11349.75
2359.29679184185	11294
2361.50744746829	11361.75
2363.71746630804	11300
2365.92684865048	11130.25
2368.13559478499	11155
2370.34370500083	11189
2372.55117958727	11127.75
2374.75801883352	11068.75
2376.96422302874	11014.75
2379.16979246202	10987
2381.37472742243	11014.5
2383.57902819898	11003
2385.78269508063	10858.25
2387.98572835629	10843.75
2390.18812831482	10855.75
2392.38989524505	10852.25
2394.59102943573	10783.25
2396.79153117559	10810.25
2398.9914007533	10675.75
2401.19063845748	10666.5
2403.38924457672	10720.75
2405.58721939951	10688.5
2407.78456321435	10643
2409.98127630966	10579
2412.17735897382	10604.25
2414.37281149517	10571
2416.56763416198	10563
2418.76182726249	10629
2420.95539108487	10495.5
2423.14832591726	10473.25
2425.34063204776	10435
2427.53230976439	10424.5
2429.72335935513	10463.25
2431.91378110795	10347.25
2434.10357531071	10349
2436.29274225125	10407.75
2438.48128221739	10272
2440.66919549683	10340.5
2442.8564823773	10255.5
2445.04314314641	10184.75
2447.22917809176	10217.25
2449.4145875009	10281.75
2451.59937166131	10155.25
2453.78353086044	10101.75
2455.96706538568	10162.75
2458.14997552436	10051.5
2460.33226156379	9963
2462.51392379119	10015.75
2464.69496249376	9866.75
2466.87537795862	9908
2469.05517047288	9940
2471.23434032357	9834
2473.41288779767	9977
2475.59081318211	9846.75
2477.76811676378	9783.5
2479.9447988295	9788.75
2482.12085966605	9673.5
2484.29629956016	9711
2486.4711187985	9707
2488.64531766769	9689
2490.8188964543	9675.75
2492.99185544484	9634.5
2495.16419492579	9677.5
2497.33591518353	9613.75
2499.50701650444	9571.25
2501.67749917482	9611.5
2503.84736348091	9528.75
2506.01660970891	9572.5
2508.18523814496	9529.5
2510.35324907514	9483
2512.52064278551	9538.75
2514.68741956201	9558.75
2516.85357969058	9649.75
2519.01912345709	9597.25
2521.18405114735	9494.25
2523.34836304711	9460.75
2525.51205944208	9504.75
2527.6751406179	9468
2529.83760686016	9581.5
2531.99945845439	9496
2534.16069568606	9549
2536.3213188406	9545.5
2538.48132820336	9426.25
2540.64072405965	9436.5
2542.79950669471	9437.25
2544.95767639373	9514.25
2547.11523344184	9436
2549.27217812411	9444.25
2551.42851072555	9452.25
2553.58423153111	9413
2555.73934082569	9321.75
2557.89383889412	9343
2560.04772602118	9305
2562.20100249158	9260.25
2564.35366858996	9232.25
2566.50572460093	9245
2568.65717080901	9179.25
2570.80800749867	9197.5
2572.95823495433	9151
2575.10785346031	9154.25
2577.25686330093	9087.75
2579.40526476038	9031
2581.55305812282	9118.25
2583.70024367237	8994
2585.84682169303	9045.75
2587.99279246879	8965
2590.13815628354	8953.25
2592.28291342112	8922
2594.42706416531	9001.5
2596.5706087998	8960.5
2598.71354760826	8979.5
2600.85588087425	8899.75
2602.99760888127	8892
2605.13873191278	8929.75
2607.27925025214	8880.5
2609.41916418269	8916.75
2611.55847398764	8879.5
2613.69717995017	8806
2615.83528235339	8927.75
2617.97278148034	8870.5
2620.10967761398	8934.5
2622.2459710372	8878.5
2624.38166203284	8889.75
2626.51675088365	8901.25
2628.65123787231	8840.5
2630.78512328145	8850.75
2632.9184073936	8867.25
2635.05109049124	8864.25
2637.18317285676	8808
2639.31465477248	8884
2641.44553652067	8917.75
2643.5758183835	8853
2645.70550064309	8870.25
2647.83458358144	8949.25
2649.96306748053	8877.75
2652.09095262223	8888.75
2654.21823928836	8954
2656.34492776063	8898.5
2658.47101832071	8837.75
2660.59651125015	8935.25
2662.72140683047	8925.5
2664.84570534309	8841.75
2666.96940706934	8874.5
2669.0925122905	8841.5
2671.21502128773	8893
2673.33693434215	8871.5
2675.45825173479	8845.25
2677.57897374658	8891.75
2679.69910065839	8867.75
2681.818632751	8837
2683.93757030511	8856.25
2686.05591360133	8892.75
2688.17366292021	8883
2690.29081854218	8910.5
2692.40738074762	8805.25
2694.52334981681	8872.5
2696.63872602995	8844.75
2698.75350966713	8849.5
2700.86770100841	8953.5
2702.98130033371	8865.5
2705.09430792289	8795.75
2707.20672405571	8824
2709.31854901185	8835
2711.42978307091	8855
2713.54042651238	8880.25
2715.65047961567	8954.75
2717.7599426601	8902.75
2719.86881592491	8928
2721.97709968924	8925.75
2724.08479423213	8934.25
2726.19189983255	8961.75
2728.29841676934	8906.5
2730.4043453213	8975
2732.5096857671	8975.75
2734.61443838532	8991
2736.71860345444	8910.25
2738.82218125286	8943.5
2740.92517205889	9020.5
2743.02757615072	9026.25
2745.12939380646	8911.75
2747.23062530411	8992
2749.33127092159	9077.25
2751.4313309367	9015.75
2753.53080562716	9057.75
2755.62969527058	9143.5
2757.72800014448	8976.75
2759.82572052625	9065.25
2761.92285669323	9062.25
2764.0194089226	9142
2766.11537749147	9114
2768.21076267686	9168.25
2770.30556475566	9085.75
2772.39978400465	9082
2774.49342070054	9094.25
2776.58647511991	9196
2778.67894753923	9160.5
2780.77083823487	9216.5
2782.8621474831	9106
2784.95287556007	9178
2787.04302274184	9143.25
2789.13258930433	9263
2791.22157552338	9152.5
2793.30998167471	9197.75
2795.39780803392	9229
2797.4850548765	9273.25
2799.57172247786	9214
2801.65781111324	9214
2803.74332105781	9226.75
2805.82825258661	9299
2807.91260597457	9341.25
2809.9963814965	9237.25
2812.07957942711	9311.5
2814.16220004096	9291.25
2816.24424361252	9336.25
2818.32571041614	9324.75
2820.40660072604	9361.75
2822.48691481631	9401.5
2824.56665296098	9400.75
2826.64581543388	9439.75
2828.72440250876	9526.5
2830.80241445925	9551.5
2832.87985155885	9579
2834.95671408093	9628
2837.03300229875	9636.25
2839.10871648544	9714.5
2841.18385691399	9791.75
2843.25842385729	9760.75
2845.33241758808	9719.5
2847.40583837898	9815
2849.4786865025	9838.75
2851.550962231	9869.5
2853.6226658367	9863.25
2855.69379759173	9818.5
2857.76435776806	9902.5
2859.83434663753	9951.5
2861.90376447184	10057.75
2863.97261154259	10004.5
2866.0408881212	10117.5
2868.10859447901	10123.25
2870.17573088717	10174.75
2872.24229761673	10311.25
2874.30829493859	10181.25
2876.37372312352	10287.75
2878.43858244215	10299
2880.50287316496	10323.5
2882.56659556231	10365
2884.62974990439	10423.5
2886.69233646129	10415.25
2888.75435550293	10384
2890.81580729909	10420.75
2892.87669211941	10394.75
2894.93701023339	10416.5
2896.99676191039	10386.75
2899.05594741961	10527.5
2901.1145670301	10479
2903.1726210108	10494.75
2905.23010963045	10629.75
2907.28703315768	10519
2909.34339186096	10577
2911.39918600861	10601
2913.45441586879	10518.25
2915.50908170952	10606
2917.56318379867	10551.25
2919.61672240395	10629.75
2921.66969779291	10571.5
2923.72211023295	10656.25
2925.77395999134	10613
2927.82524733515	10632.25
2929.87597253132	10684.5
2931.92613584663	10614.75
2933.97573754769	10531.75
2936.02477790097	10533.25
2938.07325717276	10509.25
2940.1211756292	10512
2942.16853353626	10528.5
2944.21533115976	10584
2946.26156876536	10581.25
2948.30724661853	10675
2950.3523649846	10683.25
2952.39692412872	10753.25
2954.44092431587	10731.25
2956.48436581089	10782.75
2958.52724887843	10910.25
2960.56957378296	10922
2962.6113407888	11037.75
2964.65255016011	10944
2966.69320216083	11041.25
2968.73329705479	10836.25
2970.77283510559	10802
2972.81181657671	10801.25
2974.8502417314	10767
2976.88811083279	10706.75
2978.92542414378	10712.25
2980.96218192713	10744.5
2982.99838444541	10803.75
2985.034031961	10772.5
2987.06912473612	10798.5
2989.1036630328	10748
2991.13764711288	10755.75
2993.17107723804	10775.5
2995.20395366974	10828
2997.23627666931	10747
2999.26804649782	10833.75
3001.29926341624	10942.75
3003.32992768528	10938.25
3005.3600395655	10910.5
3007.38959931726	10965.25
3009.41860720076	10888.25
3011.44706347595	11050
3013.47496840263	10923.25
3015.50232224041	11086
3017.5291252487	11096.5
3019.5553776867	10959
3021.58107981344	11067.75
3023.60623188773	11089.25
3025.63083416822	11101.25
3027.65488691331	11094.5
3029.67839038125	11033.75
3031.70134483007	11047
3033.72375051759	11133.25
3035.74560770144	11237
3037.76691663907	11181
3039.78767758768	11272
3041.80789080431	11146.5
3043.82755654577	11205
3045.84667506867	11223.5
3047.8652466294	11218.75
3049.88327148418	11230.5
3051.90074988899	11196.75
3053.91768209961	11260.75
3055.9340683716	11111.25
3057.94990896033	11117.5
3059.96520412095	11273.25
3061.97995410838	11186.25
3063.99415917734	11184.5
3066.00781958234	11115.5
3068.02093557766	11182.5
3070.03350741738	11105
3072.04553535535	11247
3074.05701964521	11174.75
3076.06796054036	11084
3078.078358294	11076.75
3080.08821315912	11161
3082.09752538846	11245.25
3084.10629523454	10999
3086.11452294967	11169.25
3088.12220878592	11119.75
3090.12935299515	11118.75
3092.13595582898	11108.75
3094.1420175388	11092.75
3096.14753837579	11219.5
3098.15251859088	11160.5
3100.15695843477	11138
3102.16085815793	11111.75
3104.16421801061	11090.75
3106.16703824282	11142
3108.16931910432	11156.5
3110.17106084464	11092.75
3112.17226371308	11152.25
3114.17292795872	11162
3116.17305383034	11167.5
3118.17264157657	11195
3120.17169144571	11183.75
3122.17020368587	11122.75
3124.16817854492	11203.5
3126.16561627044	11238.75
3128.16251710982	11311.5
3130.15888131017	11291
3132.15470911837	11317.75
3134.15000078104	11249.5
3136.14475654455	11276.75
3138.13897665502	11306
3140.13266135835	11246.75
3142.12581090014	11276.75
3144.11842552577	11296.25
3146.11050548036	11348
3148.10205100875	11318
3150.09306235557	11361
3152.08353976515	11299.25
3154.07348348158	11230.75
3156.06289374869	11280.75
3158.05177081006	11233.75
3160.04011490899	11233.75
3162.02792628852	11383.75
3164.01520519145	11330.75
3166.00195186029	11291.5
3167.98816653728	11313
3169.97384946442	11230.75
3171.95900088344	11257.75
3173.94362103577	11220.25
3175.92771016259	11287.25
3177.91126850484	11348.5
3179.89429630312	11315
3181.87679379782	11177.75
3183.85876122903	11345.5
3185.84019883657	11304.75
3187.82110685997	11337
3189.80148553851	11285
3191.78133511116	11452.75
3193.76065581664	11341
3195.73944789337	11372
3197.7177115795	11337.25
3199.6954471129	11339
3201.67265473114	11426.5
3203.64933467153	11373.5
3205.62548717107	11376.75
3207.60111246648	11477.25
3209.57621079421	11377
3211.55078239041	11436.25
3213.52482749093	11384.25
3215.49834633133	11417.75
3217.4713391469	11531.5
3219.44380617262	11466.5
3221.41574764317	11503.5
3223.38716379296	11506.5
3225.35805485607	11543
3227.32842106631	11546.75
3229.29826265718	11600.25
3231.26757986187	11635
3233.2363729133	11624
3235.20464204405	11687.25
3237.17238748643	11592.25
3239.13960947243	11644
3241.10630823374	11727.5
3243.07248400174	11648
3245.03813700748	11783
3247.00326748177	11733.5
3248.96787565503	11707.75
3250.93196175742	11700.5
3252.89552601877	11654.75
3254.8585686686	11734
3256.82108993612	11831.75
3258.78309005022	11771.5
3260.74456923948	11705.5
3262.70552773215	11787.5
3264.66596575617	11760.25
3266.62588353916	11715.25
3268.58528130843	11707.25
3270.54415929094	11723.75
3272.50251771336	11686.25
3274.46035680201	11820
3276.4176767829	11812.25
3278.37447788171	11720.75
3280.33076032379	11812.75
3282.28652433416	11711
3284.24177013751	11813.5
3286.1964979582	11812.5
3288.15070802027	11771.25
3290.10440054741	11782.5
3292.05757576298	11742
3294.01023389001	11838.75
3295.96237515119	11809.75
3297.91399976887	11841.5
3299.86510796506	11797.75
3301.81569996142	11857.25
3303.76577597932	11709
3305.7153362397	11830.75
3307.66438096324	11827
3309.61291037024	11837.75
3311.56092468064	11852
3313.50842411404	11807.25
3315.45540888971	11882.25
3317.40187922656	11818.5
3319.34783534315	11838.75
3321.29327745768	11800.75
3323.23820578801	11693
3325.18262055164	11731.25
3327.1265219657	11748.25
3329.06991024699	11743.25
3331.01278561194	11776
3332.95514827662	11679.25
3334.89699845674	11792.5
3336.83833636766	11834.75
3338.77916222434	11616.75
3340.71947624143	11678.75
3342.65927863317	11748.5
3344.59856961346	11689.75
3346.53734939584	11736.25
3348.47561819344	11709
3350.41337621906	11726.75
3352.35062368513	11725
3354.28736080368	11753.5
3356.22358778637	11736.75
3358.15930484452	11657
3360.09451218904	11801.25
3362.02921003047	11764.75
3363.96339857898	11766.25
3365.89707804436	11719.25
3367.83024863602	11721.25
3369.76291056299	11667
3371.69506403389	11676
3373.62670925699	11716
3375.55784644016	11726.25
3377.4884757909	11685.25
3379.41859751629	11776
3381.34821182305	11798.5
3383.27731891749	11750.25
3385.20591900555	11855.75
3387.13401229276	11784.25
3389.06159898426	11875.5
3390.9886792848	11885.5
3392.91525339872	11870.5
3394.84132152998	11970.5
3396.76688388213	11883.75
3398.69194065833	11875.75
3400.61649206133	11932.5
3402.54053829348	11934.25
3404.46407955672	11882.75
3406.3871160526	11890.25
3408.30964798225	11950
3410.23167554639	11933.5
3412.15319894535	11961.5
3414.07421837904	11929.5
3415.99473404695	11917.25
3417.91474614817	11976.25
3419.83425488136	11963.5
3421.75326044479	11977.25
3423.67176303631	11914.25
3425.58976285332	11913
3427.50726009282	11949
3429.42425495143	11913.75
3431.34074762528	11895.5
3433.25673831012	11876.25
3435.17222720127	11877.5
3437.08721449362	11890.5
3439.00170038164	11812.5
3440.91568505936	11886
3442.82916872039	11800
3444.74215155791	11829.25
3446.65463376468	11796.5
3448.566615533	11786.75
3450.47809705476	11815.75
3452.3890785214	11821
3454.29956012393	11857
3456.20954205293	11764.5
3458.11902449853	11731.75
3460.02800765041	11743.5
3461.93649169784	11726.5
3463.84447682962	11724.75
3465.75196323412	11620.5
3467.65895109925	11701.5
3469.56544061249	11679.75
3471.47143196086	11617.5
3473.37692533093	11695.75
3475.28192090884	11680.25
3477.18641888026	11779.75
3479.09041943039	11646
3480.99392274402	11664.75
3482.89692900545	11702
3484.79943839853	11566.25
3486.70145110666	11697
3488.60296731277	11625.75
3490.50398719933	11660.5
3492.40451094836	11519.75
3494.30453874141	11584.25
3496.20407075956	11646
3498.10310718342	11617.25
3500.00164819315	11595.75