
200.475549058548	861
203.359249075907	856
206.241936533635	853.75
209.123612299129	867.5
212.004277237673	863.25
214.883932212466	853.75
217.762578084596	866
220.640215713076	861.5
223.516845954837	864.75
226.392469664723	871.5
229.26708769552	861.25
232.14070089794	877.5
235.013310120656	877.5
237.884916210263	879.25
240.755520011335	873
243.625122366404	868.5
246.493724115942	877.25
249.361326098424	888
252.227929150296	887.75
255.093534105978	879.25
257.958141797884	869
260.821753056447	880
263.684368710063	878.5
266.545989585164	887.5
269.406616506196	887.75
272.266250295612	885
275.124891773896	890.25
277.982541759568	890.75
280.839201069171	883.75
283.69487051732	901
286.549550916647	890.25
289.403243077853	899.75
292.255947809714	892
295.10766591904	892.25
297.958398210747	892.75
300.808145487801	902.75
303.656908551278	884.75
306.504688200319	888
309.351485232171	906.75
312.197300442189	898
315.042134623818	896.75
317.885988568629	894.75
320.72886306631	908.25
323.570758904654	899.25
326.411676869615	900.75
329.251617745253	899.75
332.09058231378	897.25
334.928571355551	901.75
337.765585649082	899.25
340.601625971023	891
343.436693096224	899.75
346.270787797657	906.75
349.103910846512	913
351.936063012115	898.75
354.767245062016	910.25
357.597457761927	907.5
360.426701875771	902.75
363.25497816566	914
366.082287391928	920.25
368.908630313104	916.5
371.734007685947	912.25
374.558420265435	928
377.381868804758	925.75
380.204354055371	924
383.02587676694	925
385.846437687393	927.25
388.666037562889	919
391.484677137862	920.75
394.302357154986	931.75
397.119078355226	911
399.934841477789	918.75
402.749647260174	922.25
405.563496438161	930.75
408.376389745808	918.5
411.188327915483	925.25
413.999311677824	924.75
416.809341761793	937.25
419.61841889465	927.5
422.426543801968	936.75
425.233717207637	942.25
428.039939833878	941.25
430.845212401226	944.25
433.64953562856	949.5
436.452910233093	942.75
439.255336930382	933.75
442.056816434335	939.25
444.857349457205	935.75
447.65693670962	937
450.455578900554	939.25
453.253276737363	950.25
456.050030925759	929.25
458.84584216986	933.25
461.640711172138	932.75
464.434638633487	938.25
467.227625253163	933.25
470.019671728842	943.75
472.810778756586	936
475.600947030889	947
478.390177244633	933.25
481.178470089144	947.5
483.965826254145	953
486.752246427819	939.25
489.537731296754	952.5
492.322281545992	959.25
495.105897859008	956.75
497.888580917748	969.5
500.670331402573	961.25
503.451149992328	968.75
506.231037364323	956
509.009994194319	982.25
511.788021156572	961.5
514.565118923787	959.75
517.341288167165	974
520.116529556395	969.75
522.890843759669	981.25
525.664231443643	966.25
528.436693273514	972.25
531.208229912947	970.5
533.978842024138	980
536.7485302678	958
539.517295303154	965.75
542.285137787949	968.25
545.052058378482	969
547.818057729542	976.75
550.583136494504	980
553.347295325253	977.75
556.110534872227	968.75
558.872855784437	982.75
561.63425870943	985.25
564.39474429332	980.25
567.154313180785	982.75
569.912966015068	990.25
572.67070343802	972.25
575.427526090021	971.75
578.183434610073	993.25
580.938429635768	984.75
583.692511803256	976
586.445681747326	997.5
589.197940101341	985.75
591.949287497293	998.25
594.699724565755	991.25
597.449251935952	987.5
600.197870235697	989.5
602.945580091462	998.25
605.692382128313	999.5
608.43827696997	999
611.183265238786	991
613.92734755576	997.5
616.670524540528	997.5
619.412796811394	985.25
622.154164985306	991.75
624.894629677859	1004.75
627.634191503348	986.75
630.372851074691	1001.75
633.110609003535	994.5
635.847465900133	991.5
638.5834223735	990.75
641.31847903127	1004.25
644.052636479799	990.75
646.78589532413	1007.5
649.518256168005	1002.25
652.249719613883	1010
654.9802862629	998.25
657.709956714938	1001.75
660.438731568556	1009
663.166611421075	1019
665.893596868511	1014.75
668.619688505609	1019
671.344886925857	1007.75
674.06919272149	1024
676.792606483454	1013.5
679.515128801468	1021.75
682.236760263971	1026.75
684.95750145819	1021.25
687.677352970088	1015.75
690.396315384383	1018.5
693.114389284579	1022.5
695.831575252931	1012.25
698.547873870488	1019.5
701.26328571705	1026.25
703.977811371216	1023.75
706.691451410374	1036.5
709.404206410691	1032.75
712.116076947135	1043
714.827063593468	1044.75
717.537166922259	1030.5
720.246387504871	1016.25
722.954725911495	1042.75
725.662182711119	1034
728.368758471555	1046.5
731.074453759451	1057.75
733.779269140254	1048
736.483205178258	1051
739.186262436579	1047.25
741.888441477189	1049
744.589742860895	1047.75
747.290167147334	1058.75
749.989714895015	1051.5
752.688386661259	1065
755.386183002312	1059
758.083104473222	1056
760.779151627929	1063
763.474325019226	1071.5
766.168625198792	1069
768.86205271717	1072.25
771.554608123806	1067
774.246291966996	1074.75
776.937104793953	1080.75
779.627047150767	1064.25
782.316119582421	1069.75
785.004322632802	1073.25
787.691656844701	1063.25
790.378122759819	1080.5
793.063720918755	1079.5
795.74845186104	1077.5
798.432316125098	1081
801.115314248287	1081.25
803.797446766894	1082.75
806.478714216137	1088.5
809.159117130155	1084.5
811.838656042029	1094
814.517331483774	1087.25
817.19514398637	1092.5
819.872094079703	1087
822.548182292652	1100.5
825.223409153026	1093.75
827.897775187597	1091.5
830.571280922097	1104.75
833.243926881234	1089.25
835.915713588667	1111.75
838.586641567043	1115.25
841.256711337974	1105.5
843.925923422052	1129.5
846.594278338864	1124.5
849.261776606963	1106.75
851.928418743908	1127.25
854.594205266247	1123.25
857.259136689525	1132
859.923213528287	1128.75
862.586436296082	1136.25
865.24880550546	1135.5
867.910321667994	1118.25
870.570985294264	1153.75
873.230796893869	1135
875.88975697543	1132
878.5478660466	1134.5
881.205124614036	1136.5
883.861533183448	1127.5
886.517092259586	1131.75
889.171802346213	1151
891.825663946165	1145.25
894.478677561296	1153.75
897.130843692517	1139.5
899.782162839801	1142.5
902.432635502166	1146.5
905.082262177682	1137.75
907.73104336351	1162
910.378979555833	1157
913.026071249948	1166.5
915.672318940189	1157
918.317723119977	1168.5
920.96228428181	1162.25
923.606002917288	1177
926.248879517054	1185.75
928.890914570882	1186.5
931.532108567604	1178
934.172461995178	1174.5
936.811975340628	1197.75
939.450649090111	1168
942.088483728854	1178.75
944.725479741231	1198.75
947.361637610698	1196.75
949.996957819825	1193.5
952.63144085032	1212.5
955.26508718299	1210.5
957.897897297789	1195.75
960.529871673774	1201.75
963.161010789143	1203.75
965.791315121223	1202.5
968.420785146496	1211
971.049421340547	1212.75
973.677224178144	1214.25
976.304194133165	1220.5
978.930331678668	1215.75
981.555637286841	1206.25
984.180111429039	1228.75
986.803754575769	1225.25
989.426567196693	1226.75
992.048549760653	1231.25
994.669702735642	1229.5
997.290026588849	1235.75
999.909521786598	1227.25
1002.52818879443	1245.75
1005.14602807703	1255
1007.76304009828	1253.75
1010.37922532126	1248
1012.99458420824	1268
1015.60911722064	1238.75
1018.22282481911	1263.75
1020.8357074635	1273.75
1023.44776561284	1261.5
1026.05899972539	1282.5
1028.66941025859	1267.25
1031.27899766911	1272
1033.8877624128	1283.75
1036.49570494477	1279.5
1039.1028257193	1270.25
1041.70912518995	1287.75
1044.31460380945	1297.75
1046.91926202978	1280.75
1049.52310030213	1291
1052.12611907697	1308.5
1054.72831880395	1311.25
1057.329699932	1311
1059.93026290926	1320.5
1062.53000818313	1310.5
1065.12893620026	1329.75
1067.72704740654	1333.25
1070.32434224711	1336.5
1072.92082116639	1318.75
1075.51648460802	1336.5
1078.11133301493	1323.5
1080.70536682931	1332.25
1083.29858649259	1334.75
1085.89099244551	1331.25
1088.48258512806	1330
1091.07336497949	1322.5
1093.66333243836	1325
1096.2524879425	1343.5
1098.84083192899	1344.75
1101.42836483425	1335
1104.01508709395	1326.5
1106.60099914306	1330.5
1109.18610141586	1350
1111.77039434588	1354.5
1114.35387836603	1346.5
1116.93655390844	1354.75
1119.51842140458	1357.5
1122.09948128525	1345.25
1124.67973398051	1368.25
1127.25917991977	1393
1129.83781953174	1389.25
1132.41565324445	1382
1134.99268148526	1393.75
1137.56890468084	1387
1140.14432325718	1372.75
1142.71893763963	1370.75
1145.29274825285	1387
1147.86575552081	1384.5
1150.43795986686	1404.75
1153.00936171367	1395.75
1155.57996148323	1382.25
1158.14975959691	1394.75
1160.7187564754	1399
1163.28695253876	1393
1165.85434820638	1402.5
1168.42094389704	1391.75
1170.98674002881	1424.5
1173.55173701918	1388.25
1176.11593528499	1404.5
1178.67933524243	1417.25
1181.24193730705	1406.25
1183.8037418938	1399
1186.36474941697	1404
1188.92496029025	1392.75
1191.48437492668	1407.25
1194.0429937387	1396
1196.60081713811	1399.25
1199.15784553612	1417.25
1201.71407934332	1408
1204.26951896966	1420.5
1206.82416482453	1413.75
1209.37801731668	1422
1211.93107685425	1430.5
1214.4833438448	1414.75
1217.03481869529	1417.5
1219.58550181206	1420.5
1222.13539360089	1432.5
1224.68449446692	1446
1227.23280481476	1436
1229.78032504839	1440.5
1232.32705557121	1443.75
1234.87299678605	1448
1237.41814909516	1443.5
1239.96251290019	1443.75
1242.50608860226	1471.25
1245.04887660185	1458
1247.59087729894	1447
1250.13209109286	1483.75
1252.67251838247	1457
1255.21215956601	1474.75
1257.75101504113	1480.25
1260.28908520499	1481.25
1262.82637045415	1497.75
1265.36287118461	1493.75
1267.89858779184	1498
1270.43352067075	1516
1272.96767021569	1507
1275.5010368205	1521.25
1278.03362087842	1496.5
1280.56542278221	1519.5
1283.09644292403	1518.5
1285.62668169556	1543.75
1288.1561394879	1515
1290.68481669165	1552.75
1293.21271369685	1573.75
1295.73983089304	1582.5
1298.2661686692	1584.5
1300.79172741383	1560.5
1303.31650751487	1564
1305.84050935976	1553.5
1308.36373333541	1558.75
1310.88617982822	1587.75
1313.4078492241	1577.75
1315.92874190839	1581
1318.44885826599	1615.75
1320.96819868124	1591.5
1323.48676353801	1595.75
1326.00455321965	1593.25
1328.521568109	1628.75
1331.03780858842	1610.5
1333.55327503978	1636.75
1336.06796784442	1618.5
1338.58188738323	1648.25
1341.09503403658	1651.75
1343.60740818437	1660.5
1346.11901020598	1657.25
1348.62984048037	1663.5
1351.13989938596	1680.25
1353.6491873007	1673.75
1356.15770460209	1679
1358.66545166712	1717.25
1361.17242887233	1705.25
1363.67863659378	1708
1366.18407520705	1706.5
1368.68874508726	1719.25
1371.19264660907	1734.25
1373.69578014668	1740.25
1376.19814607381	1723
1378.69974476373	1736.75
1381.20057658924	1737
1383.7006419227	1738.5
1386.19994113603	1752
1388.69847460065	1766.75
1391.19624268756	1749
1393.69324576732	1755.75
1396.18948421004	1750.5
1398.68495838535	1767
1401.17966866248	1776.75
1403.6736154102	1788
1406.16679899686	1811.5
1408.65921979033	1800
1411.1508781581	1783
1413.64177446718	1807.75
1416.13190908416	1805
1418.62128237524	1854.5
1421.10989470614	1841.75
1423.59774644217	1840.25
1426.08483794823	1863.5
1428.57116958879	1872.25
1431.05674172789	1909
1433.54155472916	1940.25
1436.02560895582	1946
1438.50890477068	1957.5
1440.99144253608	1985.25
1443.47322261404	1980.5
1445.9542453661	2001.75
1448.43451115342	2001.5
1450.91402033676	2023.5
1453.39277327646	2013
1455.87077033246	2028.5
1458.34801186431	2066.75
1460.82449823115	2074.25
1463.30022979173	2096.25
1465.77520690441	2089.5
1468.24942992714	2089
1470.72289921748	2126.75
1473.19561513262	2111.5
1475.66757802934	2123
1478.13878826404	2109.5
1480.60924619276	2150.75
1483.0789521711	2163.25
1485.54790655434	2168.5
1488.01610969734	2182
1490.48356195459	2179.75
1492.95026368022	2214.75
1495.41621522796	2197.75
1497.88141695119	2221
1500.3458692029	2233.25
1502.80957233573	2249.5
1505.27252670192	2273.75
1507.7347326534	2286.75
1510.19619054165	2292.5
1512.65690071788	2278.75
1515.11686353289	2316.5
1517.5760793371	2335.75
1520.0345484806	2366.5
1522.49227131314	2381.5
1524.94924818408	2360.25
1527.40547944245	2398.5
1529.86096543691	2399.75
1532.31570651578	2447.25
1534.76970302704	2421.75
1537.2229553183	2471.75
1539.67546373685	2509.25
1542.1272286296	2485.5
1544.57825034318	2542.5
1547.0285292238	2520.5
1549.4780656174	2561
1551.92685986953	2598
1554.37491232545	2621
1556.82222333005	2623
1559.26879322789	2660.25
1561.71462236323	2732.5
1564.15971107996	2687.5
1566.60405972167	2724.5
1569.0476686316	2726.25
1571.49053815268	2771.5
1573.93266862751	2760.5
1576.37406039838	2818
1578.81471380725	2820.5
1581.25462919573	2833.25
1583.69380690517	2863.5
1586.13224727656	2882
1588.56995065059	2882
1591.00691736765	2905.5
1593.44314776777	2887.5
1595.87864219074	2912
1598.31340097597	2962.75
1600.74742446261	2964
1603.18071298948	2969.75
1605.61326689511	2955.5
1608.04508651771	2989.25
1610.47617219521	2997.25
1612.90652426521	3024.5
1615.33614306503	3023.75
1617.7650289317	3016.5
1620.19318220193	3018
1622.62060321214	3051.25
1625.04729229848	3062
1627.47324979677	3097.5
1629.89847604256	3099
1632.32297137112	3101.5
1634.74673611742	3084.75
1637.16977061614	3123
1639.59207520166	3148.75
1642.01365020812	3110.5
1644.43449596933	3188.5
1646.85461281884	3200.75
1649.27400108993	3207.25
1651.69266111558	3220.75
1654.11059322849	3272.5
1656.52779776111	3297.5
1658.9442750456	3293
1661.36002541383	3314.25
1663.77504919742	3352.5
1666.18934672772	3384
1668.60291833579	3384
1671.01576435243	3449.25
1673.42788510819	3468.75
1675.83928093333	3496.75
1678.24995215785	3538.25
1680.65989911149	3499.5
1683.06912212375	3579.5
1685.47762152383	3595
1687.88539764068	3621.25
1690.29245080301	3632.25
1692.69878133927	3702
1695.10438957763	3687.25
1697.50927584602	3679
1699.91344047213	3789.75
1702.31688378338	3733.5
1704.71960610694	3774.25
1707.12160776972	3820
1709.52288909843	3838
1711.92345041946	3854.5
1714.32329205902	3865.5
1716.72241434301	3893.5
1719.12081759716	3922.25
1721.51850214689	3930.5
1723.91546831742	3923.25
1726.31171643371	3999.25
1728.70724682049	4000.25
1731.10205980225	4061.75
1733.49615570323	4045
1735.88953484746	4070
1738.28219755871	4085
1740.67414416053	4110.5
1743.06537497623	4170
1745.4558903289	4172.25
1747.84569054139	4206
1750.23477593633	4207
1752.6231468361	4246
1755.01080356288	4271.75
1757.3977464386	4323
1759.783975785	4300.75
1762.16949192355	4342.75
1764.55429517554	4357
1766.93838586201	4455.75
1769.32176430379	4459.25
1771.70443082149	4502.25
1774.08638573552	4519.75
1776.46762936603	4546.75
1778.84816203299	4602.25
1781.22798405614	4585
1783.60709575502	4654.25
1785.98549744894	4696.75
1788.363189457	4704
1790.74017209811	4724.5
1793.11644569094	4786.25
1795.49201055396	4839.75
1797.86686700545	4842.5
1800.24101536348	4872
1802.61445594588	4948.25
1804.98718907032	4907
1807.35921505424	4966.5
1809.73053421488	4977
1812.10114686928	5069.25
1814.47105333431	5063.25
1816.84025392657	5099.25
1819.20874896252	5131.5
1821.57653875842	5174.25
1823.9436236303	5199.25
1826.31000389401	5198.5
1828.67567986522	5287.25
1831.0406518594	5273.25
1833.40492019179	5274
1835.7684851775	5277.5
1838.1313471314	5295.5
1840.49350636819	5387
1842.85496320238	5427
1845.21571794829	5438
1847.57577092004	5453
1849.9351224316	5516.75
1852.29377279671	5511
1854.65172232894	5632.25
1857.00897134171	5626.75
1859.36552014821	5641.25
1861.72136906146	5668.25
1864.07651839433	5672.75
1866.43096845946	5700.5
1868.78471956935	5790.25
1871.13777203631	5745
1873.49012617247	5832.75
1875.84178228977	5837.75
1878.19274070001	5908.75
1880.54300171478	5979.5
1882.89256564551	5973
1885.24143280346	6060.25
1887.58960349972	6103.75
1889.93707804519	6105.5
1892.28385675061	6137.75
1894.62993992657	6210
1896.97532788346	6233
1899.32002093153	6218
1901.66401938082	6348
1904.00732354126	6345.75
1906.34993372257	6345.25
1908.69185023433	6429.75
1911.03307338592	6455
1913.37360348663	6576.75
1915.7134408455	6584.25
1918.05258577147	6502.75
1920.3910385733	6571
1922.72879955958	6577.75
1925.06586903876	6646.25
1927.4022473191	6674.5
1929.73793470875	6676.25
1932.07293151565	6693.75
1934.40723804763	6698.5
1936.74085461234	6739
1939.07378151727	6779
1941.40601906977	6778.75
1943.73756757704	6861.5
1946.06842734612	6834.75
1948.39859868389	6863.25
1950.7280818971	6878.25
1953.05687729233	6893.5
1955.38498517601	6948
1957.71240585444	7013.75
1960.03913963377	6960.25
1962.36518681997	6975.25
1964.69054771891	7023.25
1967.01522263627	7063.25
1969.33921187762	7069.75
1971.66251574837	7128.75
1973.98513455379	7103.75
1976.30706859901	7213.75
1978.62831818899	7325
1980.94888362858	7276
1983.2687652225	7299.75
1985.58796327528	7327
1987.90647809136	7389.5
1990.224309975	7467.5
1992.54145923038	7513.25
1994.85792616145	7480.75
1997.17371107212	7518
1999.4888142661	7578
2001.80323604699	7640.5
2004.11697671825	7658
2006.4300365832	7760
2008.74241594504	7839
2011.05411510683	7810.5
2013.36513437149	7895
2015.6754740418	7945.5
2017.98513442044	7933.5
2020.29411580994	8081.25
2022.60241851269	8084.75
2024.91004283098	8043.75
2027.21698906692	8241.75
2029.52325752256	8231.75
2031.82884849977	8319.25
2034.1337623003	8387.25
2036.4379992258	8410.5
2038.74155957777	8470.75
2041.04444365759	8488.5
2043.34665176652	8548.25
2045.64818420569	8587.75
2047.9490412761	8666
2050.24922327865	8706.75
2052.54873051409	8743.25
2054.84756328307	8816.25
2057.14572188611	8753.25
2059.44320662359	8841.5
2061.74001779581	8866
2064.03615570292	8924.75
2066.33162064497	9054
2068.62641292185	9079
2070.9205328334	9023.5
2073.21398067927	9110.5
2075.50675675905	9142
2077.79886137218	9177.25
2080.090294818	9222.25
2082.38105739572	9255.5
2084.67114940445	9256.75
2086.96057114319	9319.75
2089.24932291079	9374.75
2091.53740500603	9406.25
2093.82481772755	9433.5
2096.11156137388	9431.5
2098.39763624345	9492
2100.68304263458	9580.25
2102.96778084545	9591
2105.25185117417	9648.5
2107.5352539187	9658.75
2109.81798937692	9686.5
2112.1000578466	9753.25
2114.38145962537	9805
2116.66219501079	9814.25
2118.94226430028	9786.25
2121.22166779118	9809.25
2123.50040578071	9935
2125.77847856598	10006.75
2128.05588644399	10036.25
2130.33262971165	9978.5
2132.60870866575	10034.75
2134.88412360298	10156.75
2137.15887481995	10127.25
2139.43296261311	10141.75
2141.70638727887	10140
2143.97914911348	10239
2146.25124841312	10238.75
2148.52268547387	10217.25
2150.79346059169	10282.75
2153.06357406245	10368
2155.33302618192	10386.5
2157.60181724576	10312.5
2159.86994754953	10357.75
2162.1374173887	10399.25
2164.40422705864	10348
2166.6703768546	10432.25
2168.93586707177	10452
2171.20069800519	10400.75
2173.46486994985	10425
2175.72838320061	10335
2177.99123805226	10378.5
2180.25343479946	10388.5
2182.5149737368	10358
2184.77585515876	10399.5
2187.03607935974	10334
2189.295646634	10291.25
2191.55455727578	10376.75
2193.81281157915	10269.5
2196.07040983813	10273.25
2198.32735234663	10367.75
2200.58363939848	10243.25
2202.83927128737	10187.5
2205.09424830697	10195.25
2207.34857075081	10195.25
2209.60223891231	10173
2211.85525308485	10170.25
2214.10761356169	10121.25
2216.35932063598	10070.75
2218.61037460082	10112.25
2220.86077574918	10005.75
2223.11052437395	9991
2225.35962076795	10003
2227.60806522389	9955
2229.85585803439	9962.5
2232.10299949198	9813
2234.34948988911	9878.75
2236.59532951813	9789.25
2238.84051867131	9751.75
2241.08505764082	9838.75
2243.32894671876	9773
2245.57218619713	9721.75
2247.81477636783	9666.75
2250.05671752269	9650.75
2252.29800995345	9564.25
2254.53865395175	9582.25
2256.77864980916	9509
2259.01799781714	9441.25
2261.2566982671	9447
2263.49475145035	9433.5
2265.73215765808	9337
2267.96891718143	9335.75
2270.20503031145	9289
2272.44049733909	9277.5
2274.67531855524	9175.25
2276.90949425067	9249.25
2279.1430247161	9142.25
2281.37591024214	9122.5
2283.60815111933	9072.75
2285.83974763813	9020.25
2288.07070008888	9048.75
2290.30100876189	8906
2292.53067394735	8987
2294.75969593537	8871
2296.98807501599	8837.25
2299.21581147916	8814.5
2301.44290561476	8780.25
2303.66935771254	8719.5
2305.89516806224	8656.25
2308.12033695344	8674.75
2310.34486467572	8604
2312.5687515185	8625.5
2314.79199777118	8504.75
2317.01460372303	8553
2319.23656966327	8409.75
2321.45789588102	8404
2323.67858266534	8339.5
2325.89863030519	8359
2328.11803908946	8307.5
2330.33680930694	8285.5
2332.55494124637	8200.5
2334.77243519638	8239.25
2336.98929144553	8140.25
2339.20551028232	8113.5
2341.42109199514	8092
2343.63603687231	8086
2345.85034520207	7984.5
2348.0640172726	7890.25
2350.27705337195	7935.5
2352.48945378815	7878
2354.70121880911	7915.25
2356.91234872269	7826.75
2359.12284381662	7856.75
2361.33270437861	7764.25
2363.54193069626	7715
2365.7505230571	7732.25
2367.95848174858	7661.25
2370.16580705805	7651.25
2372.37249927281	7614.25
2374.57855868008	7615.25
2376.78398556699	7574.75
2378.98878022058	7500.75
2381.19294292784	7475
2383.39647397565	7502.5
2385.59937365084	7385.25
2387.80164224015	7351.25
2390.00328003024	7378.75
2392.20428730769	7383
2394.40466435902	7344.75
2396.60441147062	7285.5
2398.80352892888	7333.75
2401.00201702004	7284
2403.19987603033	7236.5
2405.39710624582	7192.75
2407.59370795257	7180
2409.78968143654	7133.75
2411.9850269836	7149.25
2414.17974487957	7086.25
2416.37383541016	7120
2418.56729886102	7069.25
2420.76013551771	7001.75
2422.95234566575	7046.75
2425.14392959054	7038.25
2427.33488757741	7055.75
2429.52521991161	6920
2431.71492687834	6897
2433.90400876269	6902
2436.0924658497	6919.25
2438.2802984243	6864.75
2440.46750677137	6855
2442.6540911757	6852.75
2444.840051922	6803.25
2447.0253892949	6778.25
2449.21010357898	6839.25
2451.3941950587	6770.75
2453.57766401846	6775.5
2455.7605107426	6699
2457.94273551536	6710.5
2460.12433862091	6659
2462.30532034333	6568.5
2464.48568096665	6607.25
2466.66542077478	6536.25
2468.8445400516	6505.75
2471.02303908088	6552
2473.20091814631	6475.5
2475.37817753152	6435.25
2477.55481752005	6488
2479.73083839537	6405
2481.90624044087	6500
2484.08102393984	6487.25
2486.25518917552	6383.25
2488.42873643105	6363.75
2490.60166598952	6358.5
2492.77397813391	6314
2494.94567314713	6332.75
2497.11675131202	6274.5
2499.28721291133	6340
2501.45705822775	6302
2503.62628754386	6282.25
2505.7949011422	6266.5
2507.96289930518	6262
2510.13028231518	6216.5
2512.29705045447	6213
2514.46320400525	6177
2516.62874324964	6182.25
2518.79366846969	6159
2520.95797994734	6115
2523.12167796448	6156.5
2525.28476280291	6139.5
2527.44723474435	6098.25
2529.60909407043	6077.25
2531.77034106272	6115.75
2533.93097600269	6073.5
2536.09099917173	6008
2538.25041085116	6053.5
2540.40921132222	5994.75
2542.56740086606	5985.5
2544.72497976374	5986.5
2546.88194829626	5947.25
2549.03830674452	5907.5
2551.19405538936	5906.75
2553.34919451152	5893.25
2555.50372439165	5902.75
2557.65764531034	5835.25
2559.81095754807	5865.75
2561.96366138529	5843.5
2564.1157571023	5756.75
2566.26724497936	5802
2568.41812529664	5771
2570.56839833422	5741.25
2572.71806437208	5669.5
2574.86712369017	5720.75
2577.01557656829	5622.75
2579.16342328621	5628
2581.31066412358	5584.75
2583.45729936	5631.75
2585.60332927493	5639.25
2587.74875414781	5567.25
2589.89357425796	5540.25
2592.0377898846	5531.5
2594.18140130691	5553.75
2596.32440880395	5499.5
2598.4668126547	5484
2600.60861313806	5451.75
2602.74981053284	5459.75
2604.89040511778	5445.5
2607.0303971715	5460.25
2609.16978697256	5381.5
2611.30857479943	5375.25
2613.44676093048	5350.75
2615.584345644	5396
2617.72132921821	5369.75
2619.8577119312	5352.25
2621.99349406102	5312.5
2624.1286758856	5308.5
2626.2632576828	5334
2628.39723973037	5387
2630.53062230598	5343.75
2632.66340568723	5330
2634.7955901516	5307
2636.92717597651	5284.75
2639.05816343927	5291.25
2641.18855281709	5304.75
2643.31834438712	5290.75
2645.44753842641	5277
2647.5761352119	5263.5
2649.70413502044	5277.25
2651.83153812884	5231.5
2653.95834481374	5240.75
2656.08455535174	5244
2658.21017001934	5177
2660.33518909294	5216.75
2662.45961284885	5207.75
2664.58344156328	5182.5
2666.70667551235	5228.5
2668.82931497211	5194.25
2670.95136021848	5173.5
2673.0728115273	5145.25
2675.19366917432	5155.75
2677.31393343519	5143
2679.43360458548	5084.25
2681.55268290064	5187
2683.67116865603	5139.75
2685.78906212694	5115.5
2687.90636358854	5113.5
2690.02307331589	5119.5
2692.13919158398	5053
2694.2547186677	5095.25
2696.36965484184	5084.25
2698.48400038108	5065.75
2700.59775556002	5047.25
2702.71092065314	5053.75
2704.82349593485	4979.75
2706.93548167942	5024.5
2709.04687816108	5051
2711.1576856539	4998.25
2713.26790443188	4987.25
2715.37753476892	5010.25
2717.48657693883	4978.5
2719.59503121528	5030
2721.70289787187	4945.25
2723.8101771821	4959.25
2725.91686941936	4931.5
2728.02297485693	4931.25
2730.128493768	4923.25
2732.23342642565	4923
2734.33777310285	4932.75
2736.4415340725	4966.25
2738.54470960735	4959.75
2740.64729998007	4940.25
2742.74930546322	4877.75
2744.85072632927	4876.5
2746.95156285056	4907.5
2749.05181529934	4894.5
2751.15148394775	4880.25
2753.25056906782	4857.75
2755.34907093148	4848.75
2757.44698981056	4880.75
2759.54432597675	4845.75
2761.64107970166	4871
2763.7372512568	4867.25
2765.83284091354	4853
2767.92784894316	4801.5
2770.02227561683	4846.5
2772.11612120562	4844.25
2774.20938598047	4849.5
2776.3020702122	4805.5
2778.39417417156	4864
2780.48569812916	4767.75
2782.57664235549	4820
2784.66700712095	4842.25
2786.75679269582	4783.5
2788.84599935027	4821.25
2790.93462735434	4764.25
2793.02267697797	4787.5
2795.11014849098	4775.25
2797.19704216309	4764.75
2799.28335826389	4761
2801.36909706286	4743.25
2803.45425882935	4768.5
2805.53884383263	4751.5
2807.6228523418	4749
2809.7062846259	4737.25
2811.78914095381	4746
2813.87142159431	4735
2815.95312681606	4802.75
2818.0342568876	4763.75
2820.11481207734	4729.5
2822.19479265359	4749.75
2824.27419888454	4742.25
2826.35303103823	4729.75
2828.43128938261	4733.75
2830.5089741855	4760
2832.58608571459	4802.5
2834.66262423745	4820
2836.73859002154	4824.25
2838.81398333418	4881.5
2840.88880444257	4943.5
2842.96305361381	5045
2845.03673111483	5055
2847.10983721247	5066.5
2849.18237217344	5044.5
2851.2543362643	5120.75
2853.32572975152	5032
2855.39655290143	5006.25
2857.46680598021	4998
2859.53648925393	4958.5
2861.60560298855	4947
2863.67414744986	4973.5
2865.74212290356	4871.75
2867.80952961519	4893.5
2869.87636785019	4926
2871.94263787384	4927.5
2874.00833995131	4938
2876.07347434762	4999.5
2878.13804132768	5027.25
2880.20204115624	5074.5
2882.26547409795	5126.75
2884.32834041729	5028.5
2886.39064037865	5026
2888.45237424623	4955.5
2890.51354228415	4923.5
2892.57414475635	4944.75
2894.63418192667	4898.25
2896.69365405878	4955.25
2898.75256141625	4969.5
2900.81090426247	4947
2902.86868286072	4932
2904.92589747415	4898.75
2906.98254836574	4898
2909.03863579836	4853.5
2911.09416003471	4882.75
2913.14912133738	4882.75
2915.20351996879	4882.5
2917.25735619126	4849.5
2919.31063026691	4854.5
2921.36334245776	4824.75
2923.41549302568	4881.75
2925.46708223239	4815.75
2927.51811033945	4804.75
2929.56857760831	4880.5
2931.61848430026	4843.75
2933.66783067643	4819.25
2935.71661699781	4821.75
2937.76484352525	4823.5
2939.81251051946	4841.25
2941.85961824097	4791.25
2943.90616695021	4795
2945.95215690742	4731.25
2947.9975883727	4734
2950.04246160601	4745.75
2952.08677686716	4783
2954.13053441577	4753
2956.17373451138	4710
2958.21637741331	4764
2960.25846338077	4735
2962.29999267279	4738.5
2964.34096554826	4769.75
2966.3813822659	4740.75
2968.42124308432	4710.25
2970.46054826191	4827.25
2972.49929805694	4855.75
2974.53749272752	4783.5
2976.5751325316	4776.25
2978.61221772697	4810.75
2980.64874857127	4821
2982.68472532196	4819.5
2984.72014823637	4858
2986.75501757164	4842.75
2988.78933358476	4844.5
2990.82309653258	4879.5
2992.85630667175	4877.75
2994.88896425879	4911.5
2996.92106955003	4894.5
2998.95262280165	4944.25
3000.98362426967	4918.25
3003.01407420993	4956.5
3005.04397287812	4976
3007.07332052976	5021.25
3009.1021174202	5004.75
3011.13036380461	5019.25
3013.15805993802	4981.5
3015.18520607526	5030
3017.21180247102	5040.75
3019.23784937979	5023.75
3021.26334705593	5097.25
3023.28829575358	5045.75
3025.31269572676	5103
3027.33654722926	5069.75
3029.35985051475	5137.5
3031.38260583668	5119
3033.40481344838	5101
3035.42647360296	5150
3037.44758655337	5153.25
3039.46815255237	5109
3041.48817185258	5174.5
3043.50764470642	5143.75
3045.5265713661	5098.25
3047.54495208372	5173
3049.56278711114	5129.5
3051.58007670007	5166
3053.59682110204	5217.75
3055.61302056838	5133.25
3057.62867535025	5204
3059.64378569864	5194.25
3061.65835186434	5205.5
3063.67237409796	5147.5
3065.68585264993	5149
3067.69878777049	5204
3069.71117970969	5244
3071.72302871742	5224
3073.73433504334	5138
3075.74509893695	5245.25
3077.75532064757	5208.75
3079.76500042431	5226.75
3081.7741385161	5209.5
3083.78273517168	5250
3085.7907906396	5253.5
3087.79830516821	5260.75
3089.80527900568	5233.25
3091.81171239998	5286.25
3093.81760559889	5308.75
3095.82295884999	5305.5
3097.82777240067	5277.5
3099.83204649813	5333
3101.83578138937	5303.25
3103.83897732117	5274.75
3105.84163454016	5290
3107.84375329272	5366.25
3109.84533382508	5367.75
3111.84637638322	5302.75
3113.84688121298	5373.25
3115.84684855994	5368.5
3117.84627866951	5340.5
3119.84517178689	5381.25
3121.84352815709	5394
3123.84134802489	5425.75
3125.83863163489	5460.5
3127.83537923148	5407.5
3129.83159105884	5457
3131.82726736092	5543
3133.82240838151	5496
3135.81701436417	5523
3137.81108555224	5562.25
3139.80462218887	5557.75
3141.79762451699	5569.75
3143.79009277931	5579.75
3145.78202721835	5572.5
3147.77342807641	5644.75
3149.76429559556	5637.25
3151.75463001769	5657
3153.74443158445	5656.25
3155.73370053727	5642.25
3157.7224371174	5681.5
3159.71064156584	5670
3161.69831412337	5668.5
3163.68545503058	5698.5
3165.67206452784	5734.75
3167.65814285526	5788.5
3169.64369025279	5782.5
3171.6287069601	5764
3173.61319321668	5815.25
3175.59714926179	5815.5
3177.58057533446	5810.75
3179.56347167348	5834
3181.54583851746	5827.5
3183.52767610475	5835.75
3185.50898467348	5845.5
3187.48976446156	5911.25
3189.47001570668	5916.5
3191.44973864628	5907.5
3193.42893351758	5973
3195.40760055759	5980.25
3197.38574000308	5949.5
3199.36335209055	5951
3201.34043705634	6024.25
3203.3169951365	6018
3205.29302656687	5975
3207.26853158306	6051
3209.24351042042	6005
3211.21796331411	5991
3213.19189049901	6066
3215.16529220979	6103
3217.13816868087	6093.75
3219.11052014642	6118
3221.08234684042	6139.25
3223.05364899654	6119.5
3225.02442684826	6202.5
3226.99468062882	6124
3228.96441057117	6242.25
3230.93361690808	6219.75
3232.90229987202	6181.5
3234.87045969526	6224.25
3236.8380966098	6265.75
3238.8052108474	6315
3240.77180263957	6298.75
3242.73787221758	6357.25
3244.70341981245	6341
3246.66844565494	6328.5
3248.63294997559	6334.5
3250.59693300464	6373
3252.56039497213	6400.25
3254.52333610782	6458.5
3256.48575664121	6424.25
3258.44765680157	6475.25
3260.40903681791	6436.25
3262.36989691896	6414.5
3264.33023733323	6428.25
3266.29005828896	6410.25
3268.24936001411	6499
3270.20814273642	6415
3272.16640668333	6473.25
3274.12415208206	6514
3276.08137915954	6507.25
3278.03808814245	6552.25
3279.99427925722	6588.5
3281.94995272998	6586.5
3283.90510878664	6518.5
3285.85974765282	6587.75
3287.81386955387	6626
3289.7674747149	6589.25
3291.72056336072	6603.75
3293.6731357159	6621
3295.62519200472	6653.5
3297.57673245121	6627.5
3299.52775727911	6574.5
3301.4782667119	6615.25
3303.4282609728	6620
3305.37774028472	6659.5
3307.32670487034	6673
3309.27515495204	6677
3311.22309075193	6721.25
3313.17051249184	6676.75
3315.11742039334	6746.5
3317.06381467769	6706
3319.00969556592	6722.5
3320.95506327872	6721
3322.89991803656	6746
3324.84426005959	6695.25
3326.78808956769	6770.25
3328.73140678046	6741.75
3330.67421191721	6711.5
3332.61650519696	6783.25
3334.55828683848	6703
3336.4995570602	6792.75
3338.44031608032	6722.25
3340.3805641167	6785.75
3342.32030138695	6785.75
3344.25952810837	6796.25
3346.19824449799	6781.5
3348.13645077251	6819.25
3350.07414714839	6831.25
3352.01133384175	6895.5
3353.94801106845	6838.5
3355.88417904405	6819.25
3357.8198379838	6833.25
3359.75498810266	6869.25
3361.6896296153	6894.25
3363.62376273609	6877.25
3365.5573876791	6877.5
3367.4905046581	6870.5
3369.42311388656	6884.25
3371.35521557765	6904.5
3373.28680994422	6980.75
3375.21789719888	6950.25
3377.14847755385	6975.25
3379.07855122109	6990.5
3381.00811841228	6984.75
3382.93717933874	6984
3384.86573421152	7000
3386.79378324134	7007
3388.72132663863	7039.75
3390.64836461351	7047.25
3392.57489737576	7070
3394.50092513489	7128.25
3396.42644810007	7115.25
3398.35146648018	7122.5
3400.27598048375	7052.25
3402.19999031902	7158.75
3404.12349619393	7187
3406.04649831607	7170.5
3407.96899689273	7147.5
3409.89099213087	7165.25
3411.81248423716	7211
3413.73347341792	7242.75
3415.65395987914	7246
3417.57394382654	7249.75
3419.49342546547	7207.5
3421.41240500097	7183.5
3423.33088263775	7208.25
3425.24885858022	7157.75
3427.16633303244	7210
3429.08330619813	7261
3430.99977828072	7207.5
3432.91574948329	7160.75
3434.83122000859	7200.25
3436.74619005903	7196
3438.66065983671	7255
3440.57462954339	7336
3442.4880993805	7210.5
3444.40106954912	7219
3446.31354025	7261
3448.22551168358	7295
3450.13698404992	7211
3452.04795754877	7276.5
3453.95843237955	7251.25
3455.86840874132	7269
3457.7778868328	7257.75
3459.68686685238	7225.5
3461.5953489981	7248.75
3463.50333346766	7289.75
3465.41082045843	7295.75
3467.3178101674	7230.25
3469.22430279125	7277.75
3471.13029852629	7244.5
3473.0357975685	7246.75
3474.94080011349	7219.25
3476.84530635654	7202.25
3478.74931649257	7307.75
3480.65283071616	7327.25
3482.55584922151	7243
3484.45837220251	7261.75
3486.36039985266	7286.25
3488.26193236512	7275.25
3490.16296993268	7293.75
3492.0635127478	7225
3493.96356100256	7286.5
3495.86311488869	7254.25
3497.76217459756	7267.75
3499.66074032018	7239

