201.866871357051	2301
204.754250281454	2364
207.640596790938	2355
210.525911876299	2368
213.410196525689	2356
216.293451724508	2370
219.175678455485	2362
222.056877698662	2376
224.937050431388	2436
227.816197628363	2442
230.694320261602	2392
233.571419300504	2461
236.447495711764	2409
239.322550459507	2494
242.196584505182	2497
245.069598807626	2531
247.941594323078	2548
250.812572005154	2529
253.682532804884	2580
256.551477670699	2499
259.419407548456	2523
262.286323381439	2565
265.152226110364	2604
268.017116673389	2625
270.880996006115	2610
273.743865041622	2600
276.605724710436	2660
279.466575940562	2664
282.326419657496	2567
285.1852567842	2647
288.043088241157	2693
290.899914946349	2660
293.75573781526	2634
296.610557760898	2693
299.464375693817	2697
302.317192522078	2707
305.169009151297	2716
308.019826484655	2763
310.86964542287	2796
313.718466864233	2706
316.566291704614	2805
319.413120837457	2803
322.258955153804	2779
325.103795542291	2808
327.947642889128	2764
330.79049807819	2851
333.632361990927	2827
336.473235506444	2788
339.31311950145	2860
342.152014850322	2833
344.989922425062	2876
347.826843095354	2854
350.662777728528	2889
353.497727189577	2911
356.331692341195	2950
359.164674043732	2958
361.996673155267	2996
364.827690531536	3018
367.65772702602	3001
370.486783489887	3033
373.314860772047	3119
376.14195971912	3046
378.968081175466	3043
381.793225983212	3085
384.617394982201	3132
387.44058901005	3118
390.262808902131	3128
393.08405549161	3170
395.904329609395	3290
398.723632084213	3281
401.541963742569	3321
404.359325408779	3269
407.175717904938	3294
409.991142050982	3158
412.805598664665	3306
415.619088561551	3263
418.43161255505	3321
421.243171456415	3268
424.053766074758	3330
426.863397217017	3365
429.672065688024	3308
432.479772290455	3321
435.286517824879	3355
438.092303089736	3351
440.897128881359	3363
443.70099599399	3323
446.503905219761	3378
449.305857348711	3458
452.106853168796	3376
454.906893465919	3447
457.705979023885	3483
460.504110624439	3457
463.3012890473	3405
466.097515070087	3487
468.892789468424	3407
471.687113015869	3493
474.48048648395	3447
477.272910642198	3477
480.064386258109	3460
482.854914097159	3526
485.644494922839	3550
488.433129496636	3575
491.220818578047	3601
494.007562924584	3631
496.793363291785	3660
499.578220433217	3705
502.362135100473	3743
505.145108043209	3692
507.927140009098	3723
510.708231743909	3710
513.488383991433	3754
516.267597493556	3806
519.04587299022	3742
521.82321121946	3808
524.599612917398	3857
527.375078818233	3803
530.149609654287	3884
532.923206155967	3870
535.695869051804	3902
538.467599068448	3918
541.238396930665	3890
544.008263361364	3861
546.777199081578	3872
549.545204810493	3902
552.312281265436	3931
555.078429161898	3979
557.843649213533	3967
560.607942132156	3992
563.371308627753	4009
566.133749408495	4002
568.895265180756	4038
571.655856649064	4102
574.415524516189	4103
577.174269483075	4094
579.932092248884	4120
582.688993510994	4107
585.444973965023	4203
588.200034304795	4178
590.95417522237	4180
593.70739740807	4277
596.459701550433	4262
599.21108833628	4171
601.961558450668	4236
604.711112576933	4302
607.459751396673	4246
610.207475589748	4300
612.954285834338	4370
615.700182806879	4300
618.445167182101	4346
621.189239633055	4379
623.932400831087	4376
626.674651445839	4314
629.415992145303	4374
632.156423595745	4435
634.895946461813	4406
637.634561406449	4401
640.37226909096	4410
643.109070174978	4543
645.844965316508	4391
648.579955171888	4591
651.314040395846	4412
654.047221641456	4579
656.779499560176	4596
659.510874801828	4574
662.241348014642	4704
664.97091984524	4542
667.699590938606	4688
670.427361938164	4675
673.15423348573	4750
675.880206221526	4801
678.605280784206	4763
681.329457810829	4815
684.05273793692	4782
686.775121796389	4776
689.49661002163	4819
692.217203243454	4810
694.936902091144	4787
697.655707192425	4826
700.373619173493	4941
703.09063865901	4948
705.806766272093	4880
708.522002634378	5050
711.236348365946	4946
713.94980408538	4967
716.662370409762	5076
719.374047954676	5057
722.08483733419	4965
724.794739160909	5108
727.503754045949	5041
730.21188259892	5109
732.919125427998	5205
735.625483139855	5095
738.330956339723	5205
741.035545631374	5250
743.739251617106	5289
746.44207489779	5216
749.144016072852	5347
751.845075740272	5342
754.545254496603	5438
757.244552936976	5366
759.94297165508	5425
762.640511243222	5436
765.337172292249	5517
768.032955391649	5390
770.727861129482	5529
773.421890092413	5518
776.11504286572	5476
778.807320033298	5580
781.49872217765	5493
784.18924987991	5551
786.87890371984	5617
789.567684275826	5613
792.255592124908	5676
794.94262784276	5646
797.628792003703	5768
800.314085180715	5643
802.998507945427	5980
805.682060868145	5897
808.364744517821	5959
811.046559462105	5878
813.727506267311	5958
816.407585498422	5922
819.08679771913	5798
821.765143491822	5846
824.442623377563	5968
827.119237936127	6016
829.794987726003	6038
832.469873304377	6057
835.143895227167	6169
837.817054048985	6230
840.489350323205	6316
843.160784601892	6241
845.831357435894	6308
848.501069374739	6259
851.169920966753	6306
853.837912758987	6260
856.505045297232	6370
859.171319126071	6242
861.836734788823	6296
864.501292827579	6422
867.164993783208	6306
869.827838195361	6332
872.489826602454	6335
875.150959541701	6347
877.811237549104	6270
880.470661159456	6359
883.129230906357	6395
885.786947322205	6372
888.443810938206	6468
891.099822284385	6418
893.754981889586	6463
896.409290281452	6634
899.062747986485	6474
901.715355529999	6661
904.367113436154	6566
907.01802222793	6597
909.668082427172	6539
912.317294554574	6686
914.965659129659	6732
917.613176670835	6753
920.259847695364	6834
922.90567271936	6770
925.550652257825	6811
928.194786824621	6803
930.838076932512	6788
933.480523093109	6873
936.122125816953	6941
938.762885613447	7073
941.402802990899	6999
944.041878456523	7072
946.680112516428	7061
949.31750567563	7108
951.954058438081	7207
954.589771306633	7097
957.224644783048	7210
959.858679368044	7183
962.491875561238	7134
965.12423386121	7168
967.75575476545	7309
970.386438770423	7281
973.016286371501	7199
975.645298063046	7288
978.273474338355	7327
980.900815689674	7359
983.527322608243	7308
986.152995584245	7371
988.777835106834	7478
991.401841664148	7514
994.025015743307	7536
996.647357830407	7558
999.268868410534	7583
1001.88954796777	7697
1004.50939698518	7573
1007.12841594484	7584
1009.74660532783	7614
1012.36396561423	7733
1014.98049728314	7693
1017.59620081267	7722
1020.21107667995	7816
1022.82512536112	7873
1025.43834733138	7849
1028.05074306493	8022
1030.66231303501	7821
1033.27305771392	7901
1035.88297757299	7995
1038.49207308257	8050
1041.10034471211	7939
1043.70779293008	8038
1046.31441820402	8123
1048.92022100052	7972
1051.52520178525	8172
1054.12936102295	8336
1056.73269917742	8147
1059.33521671154	8288
1061.93691408729	8324
1064.53779176571	8214
1067.13785020694	8173
1069.73708987022	8130
1072.33551121386	8293
1074.93311469528	8228
1077.52990077103	8389
1080.12586989674	8289
1082.72102252714	8495
1085.31535911611	8590
1087.90888011663	8612
1090.50158598078	8548
1093.09347715979	8449
1095.68455410403	8569
1098.27481726296	8614
1100.86426708523	8474
1103.45290401857	8513
1106.04072850991	8599
1108.6277410053	8763
1111.21394194993	8659
1113.79933178816	8812
1116.3839109635	8833
1118.96767991862	8865
1121.55063909539	8787
1124.13278893477	8958
1126.71412987696	8908
1129.29466236132	8969
1131.87438682637	9009
1134.45330370982	8997
1137.03141344858	9116
1139.60871647872	9037
1142.18521323554	9129
1144.7609041535	9226
1147.33578966629	9302
1149.90987020676	9332
1152.48314620702	9337
1155.05561809835	9252
1157.62728631125	9303
1160.19815127545	9167
1162.76821341988	9324
1165.33747317271	9309
1167.90593096133	9399
1170.47358721235	9347
1173.04044235163	9391
1175.60649680425	9285
1178.17175099454	9379
1180.73620534607	9364
1183.29986028165	9411
1185.86271622336	9285
1188.42477359249	9484
1190.98603280964	9417
1193.54649429462	9454
1196.10615846653	9512
1198.66502574372	9353
1201.22309654385	9596
1203.78037128378	9527
1206.33685037971	9474
1208.89253424709	9577
1211.44742330063	9493
1214.00151795438	9549
1216.55481862163	9579
1219.10732571497	9592
1221.65903964631	9709
1224.20996082683	9678
1226.760089667	9745
1229.30942657664	9684
1231.85797196483	9827
1234.40572623998	9848
1236.95268980981	9891
1239.49886308136	9924
1242.04424646098	9918
1244.58884035435	10045
1247.13264516647	10079
1249.67566130166	10082
1252.21788916358	10042
1254.75932915524	10112
1257.29998167896	10207
1259.83984713639	10253
1262.37892592857	10340
1264.91721845586	10175
1267.45472511795	10261
1269.9914463139	10262
1272.52738244213	10445
1275.0625339004	10344
1277.59690108587	10499
1280.130484395	10574
1282.66328422367	10452
1285.19530096712	10544
1287.72653501993	10523
1290.25698677608	10476
1292.78665662894	10695
1295.31554497125	10566
1297.8436521951	10563
1300.37097869203	10643
1302.89752485292	10749
1305.42329106805	10734
1307.94827772713	10813
1310.47248521921	10716
1312.99591393279	10914
1315.51856425575	10848
1318.04043657536	10807
1320.56153127836	10975
1323.08184875083	11030
1325.6013893783	11156
1328.12015354572	11265
1330.63814163744	11240
1333.15535403727	11305
1335.67179112839	11377
1338.18745329347	11275
1340.70234091454	11095
1343.21645437314	11271
1345.72979405019	11414
1348.24236032607	11349
1350.75415358059	11601
1353.26517419303	11499
1355.7754225421	11608
1358.28489900594	11571
1360.79360396218	11704
1363.30153778787	11672
1365.80870085955	11673
1368.31509355319	11696
1370.82071624424	11685
1373.32556930762	11724
1375.8296531177	11593
1378.33296804832	11589
1380.83551447282	11632
1383.33729276399	11460
1385.83830329408	11598
1388.33854643489	11593
1390.83802255762	11607
1393.33673203301	11506
1395.83467523128	11754
1398.33185252211	11610
1400.82826427471	11698
1403.32391085777	11573
1405.81879263947	11621
1408.31290998752	11536
1410.80626326908	11761
1413.29885285087	11541
1415.79067909909	11748
1418.28174237944	11733
1420.77204305717	11686
1423.26158149702	11600
1425.75035806323	11813
1428.2383731196	11814
1430.72562702942	11930
1433.21212015554	12009
1435.69785286028	12153
1438.18282550555	12233
1440.66703845275	12207
1443.15049206284	12206
1445.6331866963	12240
1448.11512271316	12513
1450.59630047298	12435
1453.07672033486	12465
1455.55638265748	12573
1458.03528779902	12509
1460.51343611725	12600
1462.99082796946	12669
1465.46746371252	12617
1467.94334370285	12668
1470.41846829642	12508
1472.89283784878	12469
1475.36645271503	12611
1477.83931324983	12524
1480.31141980743	12540
1482.78277274164	12671
1485.25337240583	12457
1487.72321915297	12428
1490.19231333557	12483
1492.66065530578	12475
1495.12824541525	12586
1497.5950840153	12565
1500.06117145678	12599
1502.52650809014	12487
1504.99109426543	12612
1507.45493033227	12576
1509.91801663992	12515
1512.38035353717	12640
1514.84194137248	12652
1517.30278049386	12594
1519.76287124894	12570
1522.22221398497	12646
1524.68080904876	12623
1527.13865678681	12715
1529.59575754514	12797
1532.05211166945	12934
1534.50771950503	12792
1536.96258139678	12905
1539.41669768924	12953
1541.87006872656	12967
1544.32269485252	13150
1546.77457641051	13078
1549.22571374357	13276
1551.67610719434	13341
1554.12575710513	13217
1556.57466381785	13249
1559.02282767408	13391
1561.47024901499	13337
1563.91692818144	13519
1566.3628655139	13367
1568.80806135249	13591
1571.252516037	13523
1573.6962299068	13639
1576.13920330099	13546
1578.58143655828	13740
1581.02293001704	13839
1583.46368401528	13637
1585.90369889071	13706
1588.34297498065	13836
1590.7815126221	13835
1593.21931215173	13849
1595.65637390588	13876
1598.09269822053	13811
1600.52828543135	13837
1602.96313587367	13984
1605.3972498825	13748
1607.83062779252	13799
1610.26326993808	13729
1612.69517665322	13798
1615.12634827165	13853
1617.55678512676	13716
1619.98648755163	13799
1622.41545587902	13741
1624.84369044138	13764
1627.27119157085	13830
1629.69795959924	13962
1632.12399485808	13818
1634.54929767859	13743
1636.97386839165	13849
1639.39770732789	13763
1641.8208148176	13844
1644.24319119078	13956
1646.66483677715	13795
1649.0857519061	13892
1651.50593690677	14158
1653.92539210795	14076
1656.3441178382	14141
1658.76211442575	14124
1661.17938219855	14366
1663.59592148428	14203
1666.01173261032	14239
1668.42681590377	14306
1670.84117169145	14446
1673.25480029991	14356
1675.66770205541	14410
1678.07987728393	14573
1680.49132631119	14827
1682.90204946263	14648
1685.31204706342	14608
1687.72131943846	14703
1690.1298669124	14772
1692.53768980957	14864
1694.94478845411	14961
1697.35116316982	14760
1699.75681428031	14879
1702.16174210887	14828
1704.56594697858	14971
1706.96942921222	14966
1709.37218913235	14891
1711.77422706125	14839
1714.17554332098	14813
1716.5761382333	14989
1718.97601211977	14840
1721.37516530169	14920
1723.77359810006	14832
1726.17131083572	14862
1728.56830382922	14930
1730.96457740087	14989
1733.36013187075	14920
1735.75496755868	14981
1738.14908478428	14861
1740.54248386689	14995
1742.93516512565	14863
1745.32712887946	15095
1747.71837544697	15049
1750.10890514662	15075
1752.49871829661	15003
1754.88781521492	15094
1757.27619621929	15193
1759.66386162726	15108
1762.05081175612	15201
1764.43704692297	15256
1766.82256744465	15036
1769.20737363782	15135
1771.59146581887	15238
1773.97484430405	15316
1776.35750940932	15388
1778.73946145048	15315
1781.12070074309	15316
1783.50122760249	15487
1785.88104234385	15455
1788.26014528209	15590
1790.63853673196	15465
1793.01621700796	15503
1795.39318642443	15662
1797.76944529549	15510
1800.14499393503	15643
1802.51983265681	15518
1804.8939617743	15685
1807.26738160085	15882
1809.64009244957	15760
1812.01209463339	15739
1814.38338846504	15936
1816.75397425706	15701
1819.12385232181	15697
1821.49302297142	15896
1823.86148651789	15724
1826.22924327299	15879
1828.59629354831	15996
1830.96263765526	15951
1833.32827590507	15864
1835.69320860877	16117
1838.05743607724	15880
1840.42095862113	15827
1842.78377655097	15909
1845.14589017707	15934
1847.50729980956	15780
1849.86800575843	15873
1852.22800833346	15989
1854.58730784427	15947
1856.94590460032	16000
1859.30379891087	16192
1861.66099108503	16107
1864.01748143175	16119
1866.37327025978	16098
1868.72835787773	16228
1871.08274459403	16266
1873.43643071697	16203
1875.78941655464	16571
1878.14170241498	16347
1880.4932886058	16405
1882.84417543469	16537
1885.19436320915	16572
1887.54385223646	16426
1889.89264282378	16737
1892.24073527809	16709
1894.58812990625	16640
1896.93482701493	16896
1899.28082691067	16847
1901.62612989984	17004
1903.97073628868	16934
1906.31464638326	16886
1908.6578604895	17000
1911.00037891321	17223
1913.34220196	17035
1915.68332993537	17212
1918.02376314468	17236
1920.36350189311	17164
1922.70254648573	17319
1925.04089722744	17267
1927.37855442303	17279
1929.71551837715	17268
1932.05178939426	17544
1934.38736777876	17379
1936.72225383484	17352
1939.0564478666	17554
1941.38995017799	17343
1943.72276107283	17573
1946.05488085479	17368
1948.38630982744	17383
1950.71704829419	17439
1953.04709655832	17388
1955.376454923	17383
1957.70512369126	17477
1960.03310316599	17399
1962.36039364999	17441
1964.68699544589	17546
1967.01290885622	17416
1969.33813418338	17566
1971.66267172965	17475
1973.98652179718	17511
1976.309684688	17750
1978.63216070402	17479
1980.95395014705	17844
1983.27505331873	17466
1985.59547052063	17962
1987.9152020542	17773
1990.23424822074	17778
1992.55260932146	17698
1994.87028565746	17924
1997.18727752968	17884
1999.503585239	18154
2001.81920908618	18036
2004.13414937184	17984
2006.44840639651	18374
2008.7619804606	18124
2011.07487186442	18239
2013.38708090815	18451
2015.6986078919	18338
2018.00945311564	18456
2020.31961687923	18519
2022.62909948246	18753
2024.93790122498	18607
2027.24602240636	18690
2029.55346332604	18820
2031.86022428337	18900
2034.16630557761	19045
2036.47170750791	18831
2038.77643037331	18907
2041.08047447275	19084
2043.38384010509	18896
2045.68652756907	18956
2047.98853716335	18886
2050.28986918648	19191
2052.59052393692	19160
2054.89050171302	18993
2057.18980281306	19169
2059.4884275352	19160
2061.78637617753	19357
2064.08364903802	19138
2066.38024641457	19009
2068.67616860497	19198
2070.97141590694	19136
2073.26598861809	19202
2075.55988703595	19116
2077.85311145796	19009
2080.14566218145	18979
2082.43753950371	19129
2084.72874372188	19366
2087.01927513307	19193
2089.30913403428	19391
2091.59832072241	19199
2093.88683549429	19099
2096.17467864666	19316
2098.46185047619	19382
2100.74835127944	19492
2103.03418135292	19639
2105.31934099303	19436
2107.6038304961	19710
2109.88765015838	19690
2112.17080027602	19564
2114.45328114513	19579
2116.7350930617	19862
2119.01623632165	19815
2121.29671122085	19539
2123.57651805505	19778
2125.85565711996	19845
2128.13412871117	19970
2130.41193312424	20051
2132.68907065462	20052
2134.96554159771	19986
2137.24134624881	20004
2139.51648490317	20254
2141.79095785593	20188
2144.0647654022	20181
2146.33790783698	20351
2148.61038545524	20266
2150.88219855182	20648
2153.15334742154	20429
2155.42383235911	20342
2157.6936536592	20370
2159.9628116164	20538
2162.23130652522	20597
2164.49913868011	20640
2166.76630837544	20690
2169.03281590552	20540
2171.2986615646	20609
2173.56384564685	20760
2175.82836844637	20810
2178.0922302572	20894
2180.35543137332	20716
2182.61797208862	20685
2184.87985269695	20619
2187.14107349208	20747
2189.40163476773	20961
2191.66153681753	20896
2193.92077993507	20914
2196.17936441386	20857
2198.43729054735	20858
2200.69455862894	21034
2202.95116895194	20909
2205.20712180962	20891
2207.46241749519	21011
2209.71705630179	21398
2211.97103852248	21035
2214.2243644503	21199
2216.47703437819	21085
2218.72904859905	21011
2220.98040740571	21277
2223.23111109095	21213
2225.4811599475	21156
2227.73055426799	21466
2229.97929434504	21245
2232.22738047118	21172
2234.47481293889	21235
2236.72159204058	21508
2238.96771806864	21204
2241.21319131536	21451
2243.458012073	21285
2245.70218063374	21340
2247.94569728973	21591
2250.18856233304	21496
2252.4307760557	21278
2254.67233874967	21624
2256.91325070687	21345
2259.15351221915	21412
2261.39312357831	21593
2263.63208507611	21546
2265.87039700422	21553
2268.1080596543	21908
2270.34507331792	21402
2272.5814382866	21559
2274.81715485183	21825
2277.05222330502	21919
2279.28664393755	21819
2281.52041704072	21752
2283.75354290581	21911
2285.98602182401	21804
2288.21785408648	21742
2290.44903998434	22117
2292.67957980862	22107
2294.90947385033	21759
2297.1387224004	22022
2299.36732574975	22186
2301.59528418921	22090
2303.82259800958	22241
2306.04926750158	22270
2308.27529295593	22081
2310.50067466325	22288
2312.72541291412	22353
2314.9495079991	22442
2317.17296020866	22102
2319.39576983323	22218
2321.61793716322	22436
2323.83946248894	22213
2326.06034610069	22269
2328.28058828871	22416
2330.50018934317	22475
2332.7191495542	22538
2334.93746921192	22402
2337.15514860633	22447
2339.37218802743	22261
2341.58858776516	22312
2343.80434810941	22551
2346.01946935001	22369
2348.23395177675	22295
2350.44779567939	22458
2352.66100134759	22483
2354.87356907101	22362
2357.08549913925	22537
2359.29679184185	22202
2361.50744746829	22822
2363.71746630804	22337
2365.92684865048	22315
2368.13559478499	22228
2370.34370500083	22324
2372.55117958727	22503
2374.75801883352	22480
2376.96422302874	22248
2379.16979246202	22201
2381.37472742243	22244
2383.57902819898	22161
2385.78269508063	22160
2387.98572835629	22096
2390.18812831482	22337
2392.38989524505	22380
2394.59102943573	22290
2396.79153117559	22065
2398.9914007533	22305
2401.19063845748	22392
2403.38924457672	22179
2405.58721939951	22052
2407.78456321435	22133
2409.98127630966	22087
2412.17735897382	22402
2414.37281149517	22044
2416.56763416198	21983
2418.76182726249	22223
2420.95539108487	22325
2423.14832591726	22167
2425.34063204776	22061
2427.53230976439	22159
2429.72335935513	22211
2431.91378110795	22128
2434.10357531071	22107
2436.29274225125	22138
2438.48128221739	22216
2440.66919549683	21975
2442.8564823773	22078
2445.04314314641	22223
2447.22917809176	22209
2449.4145875009	22272
2451.59937166131	22117
2453.78353086044	22036
2455.96706538568	22200
2458.14997552436	22086
2460.33226156379	21883
2462.51392379119	21948
2464.69496249376	21776
2466.87537795862	21945
2469.05517047288	22141
2471.23434032357	21770
2473.41288779767	21953
2475.59081318211	21882
2477.76811676378	22090
2479.9447988295	21785
2482.12085966605	21736
2484.29629956016	21825
2486.4711187985	21884
2488.64531766769	21887
2490.8188964543	21897
2492.99185544484	21846
2495.16419492579	21869
2497.33591518353	21917
2499.50701650444	21908
2501.67749917482	22044
2503.84736348091	21686
2506.01660970891	21939
2508.18523814496	21813
2510.35324907514	21838
2512.52064278551	21755
2514.68741956201	22071
2516.85357969058	22269
2519.01912345709	21998
2521.18405114735	22112
2523.34836304711	22007
2525.51205944208	22176
2527.6751406179	21968
2529.83760686016	22068
2531.99945845439	22171
2534.16069568606	22341
2536.3213188406	22191
2538.48132820336	22085
2540.64072405965	22072
2542.79950669471	21967
2544.95767639373	22259
2547.11523344184	21990
2549.27217812411	22281
2551.42851072555	22229
2553.58423153111	22108
2555.73934082569	22086
2557.89383889412	21934
2560.04772602118	22216
2562.20100249158	21972
2564.35366858996	21910
2566.50572460093	22088
2568.65717080901	21884
2570.80800749867	21984
2572.95823495433	21976
2575.10785346031	21666
2577.25686330093	21884
2579.40526476038	21610
2581.55305812282	21694
2583.70024367237	21697
2585.84682169303	21646
2587.99279246879	21549
2590.13815628354	21712
2592.28291342112	21620
2594.42706416531	21626
2596.5706087998	21754
2598.71354760826	22016
2600.85588087425	21697
2602.99760888127	21913
2605.13873191278	21604
2607.27925025214	21544
2609.41916418269	21577
2611.55847398764	21724
2613.69717995017	21556
2615.83528235339	21855
2617.97278148034	21957
2620.10967761398	21839
2622.2459710372	21655
2624.38166203284	21776
2626.51675088365	21779
2628.65123787231	21594
2630.78512328145	21851
2632.9184073936	21745
2635.05109049124	22018
2637.18317285676	21668
2639.31465477248	21883
2641.44553652067	21775
2643.5758183835	21789
2645.70550064309	21762
2647.83458358144	21750
2649.96306748053	21837
2652.09095262223	21905
2654.21823928836	21988
2656.34492776063	21943
2658.47101832071	21682
2660.59651125015	21909
2662.72140683047	21931
2664.84570534309	21810
2666.96940706934	22027
2669.0925122905	21666
2671.21502128773	21965
2673.33693434215	21815
2675.45825173479	22109
2677.57897374658	21773
2679.69910065839	21972
2681.818632751	21823
2683.93757030511	21822
2686.05591360133	21951
2688.17366292021	21969
2690.29081854218	21799
2692.40738074762	21644
2694.52334981681	21762
2696.63872602995	21860
2698.75350966713	21941
2700.86770100841	21947
2702.98130033371	21934
2705.09430792289	21788
2707.20672405571	21906
2709.31854901185	21934
2711.42978307091	21871
2713.54042651238	21768
2715.65047961567	22021
2717.7599426601	22069
2719.86881592491	22039
2721.97709968924	21911
2724.08479423213	21998
2726.19189983255	22085
2728.29841676934	22012
2730.4043453213	22055
2732.5096857671	22156
2734.61443838532	22018
2736.71860345444	21948
2738.82218125286	21970
2740.92517205889	22052
2743.02757615072	22083
2745.12939380646	21996
2747.23062530411	21781
2749.33127092159	22207
2751.4313309367	21900
2753.53080562716	21929
2755.62969527058	22211
2757.72800014448	22005
2759.82572052625	21997
2761.92285669323	21832
2764.0194089226	22051
2766.11537749147	22098
2768.21076267686	22075
2770.30556475566	21961
2772.39978400465	22057
2774.49342070054	21920
2776.58647511991	22002
2778.67894753923	22025
2780.77083823487	22099
2782.8621474831	21831
2784.95287556007	21881
2787.04302274184	21760
2789.13258930433	22019
2791.22157552338	21692
2793.30998167471	21878
2795.39780803392	22091
2797.4850548765	22092
2799.57172247786	21803
2801.65781111324	21824
2803.74332105781	22085
2805.82825258661	21918
2807.91260597457	22105
2809.9963814965	21871
2812.07957942711	21849
2814.16220004096	21835
2816.24424361252	21920
2818.32571041614	21877
2820.40660072604	21818
2822.48691481631	21960
2824.56665296098	22055
2826.64581543388	21965
2828.72440250876	22227
2830.80241445925	22147
2832.87985155885	22215
2834.95671408093	22556
2837.03300229875	22682
2839.10871648544	22955
2841.18385691399	22826
2843.25842385729	22761
2845.33241758808	22652
2847.40583837898	22884
2849.4786865025	22657
2851.550962231	22815
2853.6226658367	22922
2855.69379759173	22694
2857.76435776806	22923
2859.83434663753	23101
2861.90376447184	23334
2863.97261154259	23552
2866.0408881212	23573
2868.10859447901	23532
2870.17573088717	23816
2872.24229761673	23741
2874.30829493859	23972
2876.37372312352	23778
2878.43858244215	24250
2880.50287316496	24140
2882.56659556231	24537
2884.62974990439	24568
2886.69233646129	24114
2888.75435550293	24144
2890.81580729909	24343
2892.87669211941	24191
2894.93701023339	24101
2896.99676191039	24126
2899.05594741961	24242
2901.1145670301	24208
2903.1726210108	24112
2905.23010963045	24435
2907.28703315768	24044
2909.34339186096	24197
2911.39918600861	24026
2913.45441586879	23812
2915.50908170952	23925
2917.56318379867	23732
2919.61672240395	23888
2921.66969779291	23696
2923.72211023295	23778
2925.77395999134	23754
2927.82524733515	23694
2929.87597253132	23701
2931.92613584663	23418
2933.97573754769	22941
2936.02477790097	23023
2938.07325717276	23004
2940.1211756292	22877
2942.16853353626	22742
2944.21533115976	22979
2946.26156876536	22981
2948.30724661853	23131
2950.3523649846	23284
2952.39692412872	23070
2954.44092431587	23101
2956.48436581089	22861
2958.52724887843	22738
2960.56957378296	22728
2962.6113407888	23052
2964.65255016011	22663
2966.69320216083	22789
2968.73329705479	22481
2970.77283510559	22445
2972.81181657671	22499
2974.8502417314	22374
2976.88811083279	22115
2978.92542414378	22399
2980.96218192713	22417
2982.99838444541	22305
2985.034031961	22429
2987.06912473612	22489
2989.1036630328	22196
2991.13764711288	22338
2993.17107723804	22285
2995.20395366974	22329
2997.23627666931	22305
2999.26804649782	22682
3001.29926341624	22640
3003.32992768528	22549
3005.3600395655	22732
3007.38959931726	22759
3009.41860720076	22766
3011.44706347595	22968
3013.47496840263	22797
3015.50232224041	22823
3017.5291252487	23088
3019.5553776867	22730
3021.58107981344	22972
3023.60623188773	23097
3025.63083416822	23117
3027.65488691331	23024
3029.67839038125	22970
3031.70134483007	22764
3033.72375051759	22958
3035.74560770144	23118
3037.76691663907	23249
3039.78767758768	23331
3041.80789080431	23283
3043.82755654577	23158
3045.84667506867	23136
3047.8652466294	23268
3049.88327148418	23286
3051.90074988899	23171
3053.91768209961	23307
3055.9340683716	23038
3057.94990896033	23186
3059.96520412095	23452
3061.97995410838	23257
3063.99415917734	23506
3066.00781958234	23090
3068.02093557766	23302
3070.03350741738	23120
3072.04553535535	23022
3074.05701964521	23130
3076.06796054036	23063
3078.078358294	23031
3080.08821315912	23124
3082.09752538846	23227
3084.10629523454	23096
3086.11452294967	22985
3088.12220878592	23188
3090.12935299515	23157
3092.13595582898	22863
3094.1420175388	23032
3096.14753837579	22945
3098.15251859088	22914
3100.15695843477	22969
3102.16085815793	22972
3104.16421801061	22988
3106.16703824282	22918
3108.16931910432	23052
3110.17106084464	22991
3112.17226371308	23031
3114.17292795872	23145
3116.17305383034	23047
3118.17264157657	22958
3120.17169144571	22883
3122.17020368587	22736
3124.16817854492	22988
3126.16561627044	22903
3128.16251710982	23330
3130.15888131017	23300
3132.15470911837	23212
3134.15000078104	23196
3136.14475654455	23337
3138.13897665502	23388
3140.13266135835	23358
3142.12581090014	22919
3144.11842552577	23389
3146.11050548036	23533
3148.10205100875	23385
3150.09306235557	23338
3152.08353976515	23151
3154.07348348158	22912
3156.06289374869	23317
3158.05177081006	23146
3160.04011490899	23296
3162.02792628852	23507
3164.01520519145	23199
3166.00195186029	23221
3167.98816653728	23321
3169.97384946442	23260
3171.95900088344	23377
3173.94362103577	23250
3175.92771016259	23410
3177.91126850484	23302
3179.89429630312	23298
3181.87679379782	23270
3183.85876122903	23467
3185.84019883657	23601
3187.82110685997	23623
3189.80148553851	23493
3191.78133511116	23736
3193.76065581664	23326
3195.73944789337	23402
3197.7177115795	23353
3199.6954471129	23483
3201.67265473114	23578
3203.64933467153	23483
3205.62548717107	23590
3207.60111246648	23647
3209.57621079421	23267
3211.55078239041	23438
3213.52482749093	23451
3215.49834633133	23711
3217.4713391469	23779
3219.44380617262	23705
3221.41574764317	23779
3223.38716379296	23557
3225.35805485607	23800
3227.32842106631	23819
3229.29826265718	23869
3231.26757986187	23798
3233.2363729133	23761
3235.20464204405	23790
3237.17238748643	23785
3239.13960947243	23862
3241.10630823374	24032
3243.07248400174	23968
3245.03813700748	24240
3247.00326748177	23974
3248.96787565503	23934
3250.93196175742	24135
3252.89552601877	24057
3254.8585686686	24063
3256.82108993612	24276
3258.78309005022	24188
3260.74456923948	24041
3262.70552773215	23989
3264.66596575617	24374
3266.62588353916	23875
3268.58528130843	24005
3270.54415929094	24028
3272.50251771336	24042
3274.46035680201	24224
3276.4176767829	24195
3278.37447788171	23700
3280.33076032379	24106
3282.28652433416	24062
3284.24177013751	24173
3286.1964979582	24206
3288.15070802027	24183
3290.10440054741	24236
3292.05757576298	23757
3294.01023389001	23859
3295.96237515119	24190
3297.91399976887	24181
3299.86510796506	23923
3301.81569996142	24150
3303.76577597932	24031
3305.7153362397	24229
3307.66438096324	23876
3309.61291037024	23885
3311.56092468064	23863
3313.50842411404	23812
3315.45540888971	24157
3317.40187922656	23770
3319.34783534315	23890
3321.29327745768	23926
3323.23820578801	23660
3325.18262055164	23732
3327.1265219657	23816
3329.06991024699	23672
3331.01278561194	23680
3332.95514827662	23620
3334.89699845674	23763
3336.83833636766	23787
3338.77916222434	23614
3340.71947624143	23574
3342.65927863317	23901
3344.59856961346	23618
3346.53734939584	24024
3348.47561819344	23789
3350.41337621906	23651
3352.35062368513	23737
3354.28736080368	23619
3356.22358778637	23700
3358.15930484452	24058
3360.09451218904	23738
3362.02921003047	23763
3363.96339857898	23913
3365.89707804436	23855
3367.83024863602	23770
3369.76291056299	23783
3371.69506403389	23764
3373.62670925699	24089
3375.55784644016	24032
3377.4884757909	23884
3379.41859751629	23945
3381.34821182305	23722
3383.27731891749	23925
3385.20591900555	23950
3387.13401229276	24147
3389.06159898426	23918
3390.9886792848	24070
3392.91525339872	24359
3394.84132152998	23996
3396.76688388213	24034
3398.69194065833	24204
3400.61649206133	24091
3402.54053829348	24288
3404.46407955672	24088
3406.3871160526	24107
3408.30964798225	24304
3410.23167554639	24038
3412.15319894535	24214
3414.07421837904	24154
3415.99473404695	24398
3417.91474614817	24229
3419.83425488136	24140
3421.75326044479	24085
3423.67176303631	24132
3425.58976285332	24306
3427.50726009282	24145
3429.42425495143	23862
3431.34074762528	24074
3433.25673831012	23965
3435.17222720127	24086
3437.08721449362	24225
3439.00170038164	23929
3440.91568505936	23897
3442.82916872039	23742
3444.74215155791	23983
3446.65463376468	24001
3448.566615533	23836
3450.47809705476	24011
3452.3890785214	23700
3454.29956012393	23897
3456.20954205293	23785
3458.11902449853	23968
3460.02800765041	23803
3461.93649169784	23732
3463.84447682962	23761
3465.75196323412	23706
3467.65895109925	23733
3469.56544061249	23893
3471.47143196086	23781
3473.37692533093	23544
3475.28192090884	23753
3477.18641888026	23713
3479.09041943039	23637
3480.99392274402	23758
3482.89692900545	23654
3484.79943839853	23544
3486.70145110666	23558
3488.60296731277	23424
3490.50398719933	23426
3492.40451094836	23357
3494.30453874141	23301
3496.20407075956	23575
3498.10310718342	23717