201.866871357051	3492.19995117188
204.754250281454	3530.19995117188
207.640596790938	3539.19995117188
210.525911876299	3535
213.410196525689	3550.60009765625
216.293451724508	3531.80004882812
219.175678455485	3561.39990234375
222.056877698662	3581.19995117188
224.937050431388	3548
227.816197628363	3625.19995117188
230.694320261602	3620.80004882812
233.571419300504	3663.39990234375
236.447495711764	3652.80004882812
239.322550459507	3686.80004882812
242.196584505182	3718.19995117188
245.069598807626	3686.60009765625
247.941594323078	3742.39990234375
250.812572005154	3757
253.682532804884	3752.39990234375
256.551477670699	3789.80004882812
259.419407548456	3788.80004882812
262.286323381439	3827.60009765625
265.152226110364	3792.39990234375
268.017116673389	3798.19995117188
270.880996006115	3815.39990234375
273.743865041622	3822
276.605724710436	3884.19995117188
279.466575940562	3860.60009765625
282.326419657496	3894.60009765625
285.1852567842	3879.80004882812
288.043088241157	3910.19995117188
290.899914946349	3923
293.75573781526	3910.39990234375
296.610557760898	3942.39990234375
299.464375693817	3963.60009765625
302.317192522078	4005.80004882812
305.169009151297	4008.80004882812
308.019826484655	3994
310.86964542287	4028.60009765625
313.718466864233	3982.80004882812
316.566291704614	4000.80004882812
319.413120837457	4035
322.258955153804	4033
325.103795542291	4021.39990234375
327.947642889128	4043.19995117188
330.79049807819	4043.19995117188
333.632361990927	4066.39990234375
336.473235506444	4072.39990234375
339.31311950145	4096.7998046875
342.152014850322	4087.60009765625
344.989922425062	4158.2001953125
347.826843095354	4148.60009765625
350.662777728528	4196.2001953125
353.497727189577	4211
356.331692341195	4224
359.164674043732	4260.2001953125
361.996673155267	4238.60009765625
364.827690531536	4296.60009765625
367.65772702602	4318.60009765625
370.486783489887	4324.39990234375
373.314860772047	4371.60009765625
376.14195971912	4330.7998046875
378.968081175466	4327
381.793225983212	4311.2001953125
384.617394982201	4347.60009765625
387.44058901005	4343.60009765625
390.262808902131	4333.39990234375
393.08405549161	4365.2001953125
395.904329609395	4368.2001953125
398.723632084213	4399.2001953125
401.541963742569	4414.7998046875
404.359325408779	4429
407.175717904938	4403.39990234375
409.991142050982	4468.39990234375
412.805598664665	4483
415.619088561551	4494.2001953125
418.43161255505	4524.2001953125
421.243171456415	4518
424.053766074758	4553.2001953125
426.863397217017	4585
429.672065688024	4549.7998046875
432.479772290455	4627.60009765625
435.286517824879	4630.2001953125
438.092303089736	4612.2001953125
440.897128881359	4627.60009765625
443.70099599399	4682.7998046875
446.503905219761	4620.60009765625
449.305857348711	4616.2001953125
452.106853168796	4646.7998046875
454.906893465919	4659.2001953125
457.705979023885	4678.39990234375
460.504110624439	4675.60009765625
463.3012890473	4652.7998046875
466.097515070087	4650.60009765625
468.892789468424	4687.2001953125
471.687113015869	4682.60009765625
474.48048648395	4693.2001953125
477.272910642198	4727.39990234375
480.064386258109	4764
482.854914097159	4829.7998046875
485.644494922839	4835.60009765625
488.433129496636	4851.60009765625
491.220818578047	4841
494.007562924584	4896
496.793363291785	4923.2001953125
499.578220433217	4886.60009765625
502.362135100473	4898.39990234375
505.145108043209	4922.2001953125
507.927140009098	4953.60009765625
510.708231743909	4931.2001953125
513.488383991433	4931.2001953125
516.267597493556	5049
519.04587299022	5014.60009765625
521.82321121946	5003.2001953125
524.599612917398	5047.2001953125
527.375078818233	5022.39990234375
530.149609654287	5005
532.923206155967	5018.39990234375
535.695869051804	4981
538.467599068448	5022.39990234375
541.238396930665	4987.7998046875
544.008263361364	4936.39990234375
546.777199081578	5001
549.545204810493	5024
552.312281265436	4991.60009765625
555.078429161898	5027.39990234375
557.843649213533	5045.7998046875
560.607942132156	4999.39990234375
563.371308627753	5022
566.133749408495	5040.39990234375
568.895265180756	5086
571.655856649064	5135.39990234375
574.415524516189	5141.7998046875
577.174269483075	5159.2001953125
579.932092248884	5200.7998046875
582.688993510994	5185
585.444973965023	5164.39990234375
588.200034304795	5232
590.95417522237	5258.60009765625
593.70739740807	5292.60009765625
596.459701550433	5309.39990234375
599.21108833628	5254.39990234375
601.961558450668	5269.2001953125
604.711112576933	5288.60009765625
607.459751396673	5276
610.207475589748	5272.7998046875
612.954285834338	5324.60009765625
615.700182806879	5288
618.445167182101	5292.2001953125
621.189239633055	5272
623.932400831087	5253.7998046875
626.674651445839	5292.2001953125
629.415992145303	5290.39990234375
632.156423595745	5311
634.895946461813	5280.60009765625
637.634561406449	5281.39990234375
640.37226909096	5286.7998046875
643.109070174978	5366.39990234375
645.844965316508	5411.2001953125
648.579955171888	5398.60009765625
651.314040395846	5427.60009765625
654.047221641456	5394.60009765625
656.779499560176	5422.7998046875
659.510874801828	5442.60009765625
662.241348014642	5469.60009765625
664.97091984524	5502
667.699590938606	5515.39990234375
670.427361938164	5538.60009765625
673.15423348573	5501.39990234375
675.880206221526	5548
678.605280784206	5604.39990234375
681.329457810829	5594.39990234375
684.05273793692	5612.60009765625
686.775121796389	5626.2001953125
689.49661002163	5631.7998046875
692.217203243454	5560.2001953125
694.936902091144	5586.39990234375
697.655707192425	5583.39990234375
700.373619173493	5675.2001953125
703.09063865901	5621.2001953125
705.806766272093	5621.2001953125
708.522002634378	5692.2001953125
711.236348365946	5672.7998046875
713.94980408538	5687.39990234375
716.662370409762	5637.60009765625
719.374047954676	5667.60009765625
722.08483733419	5700.39990234375
724.794739160909	5744.60009765625
727.503754045949	5757
730.21188259892	5781.7998046875
732.919125427998	5765.7998046875
735.625483139855	5824.39990234375
738.330956339723	5810.7998046875
741.035545631374	5891.39990234375
743.739251617106	5910.39990234375
746.44207489779	5922.2001953125
749.144016072852	5933.2001953125
751.845075740272	5978
754.545254496603	5950.2001953125
757.244552936976	5956.7998046875
759.94297165508	5943.2001953125
762.640511243222	5905.7998046875
765.337172292249	5985.60009765625
768.032955391649	5998.60009765625
770.727861129482	6026.2001953125
773.421890092413	6013.60009765625
776.11504286572	6012.2001953125
778.807320033298	6043.60009765625
781.49872217765	6021.7998046875
784.18924987991	6008.2001953125
786.87890371984	5972.60009765625
789.567684275826	6032
792.255592124908	6068.60009765625
794.94262784276	6013
797.628792003703	6050.2001953125
800.314085180715	6026.7998046875
802.998507945427	6118
805.682060868145	6111.7998046875
808.364744517821	6177.2001953125
811.046559462105	6171
813.727506267311	6209
816.407585498422	6143.60009765625
819.08679771913	6151.60009765625
821.765143491822	6227.2001953125
824.442623377563	6244.60009765625
827.119237936127	6258
829.794987726003	6241.2001953125
832.469873304377	6313.2001953125
835.143895227167	6304.2001953125
837.817054048985	6321
840.489350323205	6371.7998046875
843.160784601892	6429.60009765625
845.831357435894	6390.7998046875
848.501069374739	6441
851.169920966753	6412
853.837912758987	6458.7998046875
856.505045297232	6485.60009765625
859.171319126071	6510.7998046875
861.836734788823	6496.60009765625
864.501292827579	6560.39990234375
867.164993783208	6503
869.827838195361	6478.60009765625
872.489826602454	6593
875.150959541701	6573
877.811237549104	6552.7998046875
880.470661159456	6590
883.129230906357	6555.2001953125
885.786947322205	6552.2001953125
888.443810938206	6602.2001953125
891.099822284385	6611.7998046875
893.754981889586	6634.7998046875
896.409290281452	6626.2001953125
899.062747986485	6686.2001953125
901.715355529999	6733.2001953125
904.367113436154	6684.7998046875
907.01802222793	6793
909.668082427172	6721.7998046875
912.317294554574	6704.60009765625
914.965659129659	6791.7998046875
917.613176670835	6840.39990234375
920.259847695364	6851.2001953125
922.90567271936	6897.60009765625
925.550652257825	6855.39990234375
928.194786824621	6915.2001953125
930.838076932512	6928.2001953125
933.480523093109	6983.39990234375
936.122125816953	6966.60009765625
938.762885613447	7067.60009765625
941.402802990899	7011
944.041878456523	7108.39990234375
946.680112516428	7134.7998046875
949.31750567563	7075.39990234375
951.954058438081	7146.2001953125
954.589771306633	7231.60009765625
957.224644783048	7286.60009765625
959.858679368044	7262.2001953125
962.491875561238	7245.39990234375
965.12423386121	7271.7998046875
967.75575476545	7282
970.386438770423	7317.39990234375
973.016286371501	7327.60009765625
975.645298063046	7303
978.273474338355	7289.60009765625
980.900815689674	7349.60009765625
983.527322608243	7252.7998046875
986.152995584245	7343
988.777835106834	7387.60009765625
991.401841664148	7420.2001953125
994.025015743307	7454.2001953125
996.647357830407	7405.39990234375
999.268868410534	7484
1001.88954796777	7527.7998046875
1004.50939698518	7542.7998046875
1007.12841594484	7563.60009765625
1009.74660532783	7559.39990234375
1012.36396561423	7648.7998046875
1014.98049728314	7639.7998046875
1017.59620081267	7704.39990234375
1020.21107667995	7654
1022.82512536112	7735.2001953125
1025.43834733138	7763.39990234375
1028.05074306493	7816.60009765625
1030.66231303501	7837
1033.27305771392	7864.60009765625
1035.88297757299	7894.39990234375
1038.49207308257	7918
1041.10034471211	7850.39990234375
1043.70779293008	7969.2001953125
1046.31441820402	8010
1048.92022100052	8008.60009765625
1051.52520178525	8115.60009765625
1054.12936102295	8103.7998046875
1056.73269917742	8091.2001953125
1059.33521671154	8194.7998046875
1061.93691408729	8136.60009765625
1064.53779176571	8209.599609375
1067.13785020694	8128.2001953125
1069.73708987022	8178
1072.33551121386	8188.60009765625
1074.93311469528	8180.7998046875
1077.52990077103	8235.7998046875
1080.12586989674	8232.400390625
1082.72102252714	8269.400390625
1085.31535911611	8292.599609375
1087.90888011663	8332.599609375
1090.50158598078	8334.599609375
1093.09347715979	8401.2001953125
1095.68455410403	8396.599609375
1098.27481726296	8423.400390625
1100.86426708523	8529.7998046875
1103.45290401857	8549.400390625
1106.04072850991	8588.400390625
1108.6277410053	8583.400390625
1111.21394194993	8558
1113.79933178816	8695
1116.3839109635	8714.400390625
1118.96767991862	8825.400390625
1121.55063909539	8753.7998046875
1124.13278893477	8847.400390625
1126.71412987696	8861.2001953125
1129.29466236132	8946
1131.87438682637	8967
1134.45330370982	8957
1137.03141344858	9057.599609375
1139.60871647872	9052.2001953125
1142.18521323554	9050
1144.7609041535	9102
1147.33578966629	9146.400390625
1149.90987020676	9232.7998046875
1152.48314620702	9268.400390625
1155.05561809835	9264.2001953125
1157.62728631125	9333.7998046875
1160.19815127545	9417.2001953125
1162.76821341988	9501
1165.33747317271	9415.2001953125
1167.90593096133	9451.2001953125
1170.47358721235	9487
1173.04044235163	9499
1175.60649680425	9519.7998046875
1178.17175099454	9544.400390625
1180.73620534607	9633.7998046875
1183.29986028165	9591.2001953125
1185.86271622336	9573.7998046875
1188.42477359249	9590.400390625
1190.98603280964	9536.7998046875
1193.54649429462	9629.400390625
1196.10615846653	9621
1198.66502574372	9607.7998046875
1201.22309654385	9678.7998046875
1203.78037128378	9710.2001953125
1206.33685037971	9710.7998046875
1208.89253424709	9770.7998046875
1211.44742330063	9775.400390625
1214.00151795438	9829.2001953125
1216.55481862163	9897.599609375
1219.10732571497	10016.599609375
1221.65903964631	10046.2001953125
1224.20996082683	10021.2001953125
1226.760089667	10112.599609375
1229.30942657664	10187
1231.85797196483	10327
1234.40572623998	10255
1236.95268980981	10333
1239.49886308136	10379
1242.04424646098	10261.7998046875
1244.58884035435	10443
1247.13264516647	10533.400390625
1249.67566130166	10500.7998046875
1252.21788916358	10484.7998046875
1254.75932915524	10617.400390625
1257.29998167896	10759
1259.83984713639	10719.2001953125
1262.37892592857	10796.2001953125
1264.91721845586	10945.400390625
1267.45472511795	11001
1269.9914463139	10910.599609375
1272.52738244213	11018.599609375
1275.0625339004	10986.400390625
1277.59690108587	11099
1280.130484395	11157.2001953125
1282.66328422367	11140.7998046875
1285.19530096712	11171.400390625
1287.72653501993	11273.599609375
1290.25698677608	11239.400390625
1292.78665662894	11427.7998046875
1295.31554497125	11358.599609375
1297.8436521951	11414
1300.37097869203	11428.7998046875
1302.89752485292	11462.2001953125
1305.42329106805	11374.7998046875
1307.94827772713	11514.2001953125
1310.47248521921	11546.599609375
1312.99591393279	11613.7998046875
1315.51856425575	11613.599609375
1318.04043657536	11694.7998046875
1320.56153127836	11797.599609375
1323.08184875083	11904.400390625
1325.6013893783	11932
1328.12015354572	12037.2001953125
1330.63814163744	12081.400390625
1333.15535403727	12128.2001953125
1335.67179112839	12276.2001953125
1338.18745329347	12288.400390625
1340.70234091454	12385.400390625
1343.21645437314	12369.7998046875
1345.72979405019	12572.400390625
1348.24236032607	12547
1350.75415358059	12764.2001953125
1353.26517419303	12811.599609375
1355.7754225421	12917
1358.28489900594	13288.599609375
1360.79360396218	13445.2001953125
1363.30153778787	13501.2001953125
1365.80870085955	13428.2001953125
1368.31509355319	13318.400390625
1370.82071624424	13188.2001953125
1373.32556930762	13124.2001953125
1375.8296531177	13084.599609375
1378.33296804832	13111
1380.83551447282	13063.400390625
1383.33729276399	13065.599609375
1385.83830329408	13043.599609375
1388.33854643489	13022.400390625
1390.83802255762	13041.2001953125
1393.33673203301	13121.7998046875
1395.83467523128	13079.400390625
1398.33185252211	12973.400390625
1400.82826427471	13209.7998046875
1403.32391085777	13175.7998046875
1405.81879263947	13229.400390625
1408.31290998752	13267.599609375
1410.80626326908	13175
1413.29885285087	13299.7998046875
1415.79067909909	13340
1418.28174237944	13422.400390625
1420.77204305717	13462
1423.26158149702	13449.2001953125
1425.75035806323	13589
1428.2383731196	13567.7998046875
1430.72562702942	13565
1433.21212015554	13892.2001953125
1435.69785286028	13941.400390625
1438.18282550555	14088.7998046875
1440.66703845275	14051.599609375
1443.15049206284	14155.7998046875
1445.6331866963	14288.400390625
1448.11512271316	14318.599609375
1450.59630047298	14430.7998046875
1453.07672033486	14504.599609375
1455.55638265748	14587
1458.03528779902	14619
1460.51343611725	14679.599609375
1462.99082796946	14687.7998046875
1465.46746371252	14712.599609375
1467.94334370285	14830
1470.41846829642	14784.400390625
1472.89283784878	14924.400390625
1475.36645271503	15071
1477.83931324983	15040.2001953125
1480.31141980743	15086.599609375
1482.78277274164	15254.2001953125
1485.25337240583	15157.599609375
1487.72321915297	15231.400390625
1490.19231333557	15278.2001953125
1492.66065530578	15349.599609375
1495.12824541525	15328.400390625
1497.5950840153	15334.400390625
1500.06117145678	15172.2001953125
1502.52650809014	15283.400390625
1504.99109426543	15228.599609375
1507.45493033227	15203.400390625
1509.91801663992	15204
1512.38035353717	15262.400390625
1514.84194137248	15185.400390625
1517.30278049386	15404.2001953125
1519.76287124894	15408
1522.22221398497	15358
1524.68080904876	15400
1527.13865678681	15320.400390625
1529.59575754514	15541
1532.05211166945	15586
1534.50771950503	15655.599609375
1536.96258139678	15874.7998046875
1539.41669768924	15876
1541.87006872656	15915.400390625
1544.32269485252	16003
1546.77457641051	16025
1549.22571374357	16292.400390625
1551.67610719434	16326.2001953125
1554.12575710513	16394.599609375
1556.57466381785	16431.400390625
1559.02282767408	16372.599609375
1561.47024901499	16462
1563.91692818144	16631.599609375
1566.3628655139	16728.19921875
1568.80806135249	16742.19921875
1571.252516037	16742.400390625
1573.6962299068	16989.19921875
1576.13920330099	16971
1578.58143655828	16978.599609375
1581.02293001704	17187.80078125
1583.46368401528	17081.80078125
1585.90369889071	17274.80078125
1588.34297498065	17333
1590.7815126221	17328.599609375
1593.21931215173	17524
1595.65637390588	17577.19921875
1598.09269822053	17514.400390625
1600.52828543135	17680
1602.96313587367	17652.599609375
1605.3972498825	17658.599609375
1607.83062779252	17450.19921875
1610.26326993808	17601.80078125
1612.69517665322	17526
1615.12634827165	17502.599609375
1617.55678512676	17489
1619.98648755163	17442.80078125
1622.41545587902	17416.599609375
1624.84369044138	17431
1627.27119157085	17591.400390625
1629.69795959924	17585.400390625
1632.12399485808	17605
1634.54929767859	17636.80078125
1636.97386839165	17669.599609375
1639.39770732789	17740.599609375
1641.8208148176	17685.80078125
1644.24319119078	17719.400390625
1646.66483677715	17819.19921875
1649.0857519061	17926
1651.50593690677	18047.599609375
1653.92539210795	18113
1656.3441178382	17989.19921875
1658.76211442575	18177.599609375
1661.17938219855	18192
1663.59592148428	18393.80078125
1666.01173261032	18384.599609375
1668.42681590377	18499
1670.84117169145	18596.400390625
1673.25480029991	18451.80078125
1675.66770205541	18666.400390625
1678.07987728393	18798.599609375
1680.49132631119	18860
1682.90204946263	18957.400390625
1685.31204706342	18935.400390625
1687.72131943846	19135.599609375
1690.1298669124	19151.19921875
1692.53768980957	19352.80078125
1694.94478845411	19199
1697.35116316982	19144.599609375
1699.75681428031	19276.599609375
1702.16174210887	19303
1704.56594697858	19368
1706.96942921222	19474.19921875
1709.37218913235	19471.400390625
1711.77422706125	19451.400390625
1714.17554332098	19387
1716.5761382333	19579.80078125
1718.97601211977	19349.19921875
1721.37516530169	19414.80078125
1723.77359810006	19418
1726.17131083572	19480.400390625
1728.56830382922	19526.19921875
1730.96457740087	19510.400390625
1733.36013187075	19366
1735.75496755868	19472
1738.14908478428	19477
1740.54248386689	19529.80078125
1742.93516512565	19507
1745.32712887946	19634
1747.71837544697	19601.80078125
1750.10890514662	19737.599609375
1752.49871829661	19706.19921875
1754.88781521492	19740.19921875
1757.27619621929	19907.80078125
1759.66386162726	19780.80078125
1762.05081175612	19789.599609375
1764.43704692297	19903
1766.82256744465	19935.80078125
1769.20737363782	20042.599609375
1771.59146581887	19896.19921875
1773.97484430405	20072.599609375
1776.35750940932	20115.80078125
1778.73946145048	20164.19921875
1781.12070074309	20220.400390625
1783.50122760249	20374.80078125
1785.88104234385	20380.599609375
1788.26014528209	20469.19921875
1790.63853673196	20487.80078125
1793.01621700796	20528.80078125
1795.39318642443	20689
1797.76944529549	20624.19921875
1800.14499393503	20748.599609375
1802.51983265681	20600
1804.8939617743	20820.599609375
1807.26738160085	20983.599609375
1809.64009244957	20835.19921875
1812.01209463339	20814
1814.38338846504	21032.19921875
1816.75397425706	20881.19921875
1819.12385232181	20993.19921875
1821.49302297142	21011.80078125
1823.86148651789	20935.599609375
1826.22924327299	20828.19921875
1828.59629354831	21094
1830.96263765526	20961.80078125
1833.32827590507	21053.19921875
1835.69320860877	21060.599609375
1838.05743607724	21120.599609375
1840.42095862113	21055
1842.78377655097	21079
1845.14589017707	21076.19921875
1847.50729980956	21171
1849.86800575843	21220.400390625
1852.22800833346	21109.599609375
1854.58730784427	21213
1856.94590460032	21388.80078125
1859.30379891087	21436.400390625
1861.66099108503	21494.599609375
1864.01748143175	21536
1866.37327025978	21481.80078125
1868.72835787773	21553.400390625
1871.08274459403	21587.599609375
1873.43643071697	21513.400390625
1875.78941655464	21826.400390625
1878.14170241498	21674.599609375
1880.4932886058	21822.400390625
1882.84417543469	21922.599609375
1885.19436320915	21963.19921875
1887.54385223646	21981
1889.89264282378	22126.19921875
1892.24073527809	22156
1894.58812990625	22229.400390625
1896.93482701493	22514.599609375
1899.28082691067	22443.599609375
1901.62612989984	22577.400390625
1903.97073628868	22617.599609375
1906.31464638326	22632
1908.6578604895	22699.19921875
1911.00037891321	22887.400390625
1913.34220196	23002.599609375
1915.68332993537	22942.80078125
1918.02376314468	23035
1920.36350189311	23029.19921875
1922.70254648573	23072.19921875
1925.04089722744	22938.599609375
1927.37855442303	23109.19921875
1929.71551837715	23098
1932.05178939426	23122.80078125
1934.38736777876	23096.400390625
1936.72225383484	22947.19921875
1939.0564478666	23350.19921875
1941.38995017799	23063.599609375
1943.72276107283	23313
1946.05488085479	23119.400390625
1948.38630982744	23109.19921875
1950.71704829419	23290
1953.04709655832	23145.19921875
1955.376454923	23150.80078125
1957.70512369126	23210.19921875
1960.03310316599	23258
1962.36039364999	23184.400390625
1964.68699544589	23190.80078125
1967.01290885622	23328.19921875
1969.33813418338	23310.599609375
1971.66267172965	23449.400390625
1973.98652179718	23413.599609375
1976.309684688	23624.400390625
1978.63216070402	23556
1980.95395014705	23906.599609375
1983.27505331873	23509.599609375
1985.59547052063	23697.400390625
1987.9152020542	23751.80078125
1990.23424822074	23701.19921875
1992.55260932146	23704
1994.87028565746	23878.599609375
1997.18727752968	23918.80078125
1999.503585239	24013
2001.81920908618	24023
2004.13414937184	24177.80078125
2006.44840639651	24486.400390625
2008.7619804606	24501.400390625
2011.07487186442	24559.19921875
2013.38708090815	24680
2015.6986078919	24718.80078125
2018.00945311564	24655.80078125
2020.31961687923	24791.80078125
2022.62909948246	25009.599609375
2024.93790122498	24912.599609375
2027.24602240636	25085.400390625
2029.55346332604	25251
2031.86022428337	25191.599609375
2034.16630557761	25367.599609375
2036.47170750791	25330.80078125
2038.77643037331	25202.400390625
2041.08047447275	25469.599609375
2043.38384010509	25291.400390625
2045.68652756907	25568.599609375
2047.98853716335	25467.19921875
2050.28986918648	25471.80078125
2052.59052393692	25659.80078125
2054.89050171302	25719.80078125
2057.18980281306	25670.80078125
2059.4884275352	25736
2061.78637617753	25490.19921875
2064.08364903802	25676
2066.38024641457	25673.599609375
2068.67616860497	25799
2070.97141590694	25692
2073.26598861809	25736.599609375
2075.55988703595	25615.80078125
2077.85311145796	25746.80078125
2080.14566218145	25731.19921875
2082.43753950371	25804.80078125
2084.72874372188	25901
2087.01927513307	25740
2089.30913403428	25747
2091.59832072241	25944
2093.88683549429	25853.19921875
2096.17467864666	25868.80078125
2098.46185047619	26038.80078125
2100.74835127944	26111.599609375
2103.03418135292	26280.599609375
2105.31934099303	25982.400390625
2107.6038304961	26287.80078125
2109.88765015838	26216.599609375
2112.17080027602	26220.80078125
2114.45328114513	26342.400390625
2116.7350930617	26532.599609375
2119.01623632165	26377.400390625
2121.29671122085	26278
2123.57651805505	26652.599609375
2125.85565711996	26654.599609375
2128.13412871117	26638.400390625
2130.41193312424	26808
2132.68907065462	26910.599609375
2134.96554159771	26913.400390625
2137.24134624881	26838.80078125
2139.51648490317	27108
2141.79095785593	27076.400390625
2144.0647654022	27239.400390625
2146.33790783698	27239.400390625
2148.61038545524	27088.599609375
2150.88219855182	27484.19921875
2153.15334742154	27492.400390625
2155.42383235911	27603.599609375
2157.6936536592	27655.80078125
2159.9628116164	27368
2162.23130652522	27603.599609375
2164.49913868011	27634.599609375
2166.76630837544	27751.599609375
2169.03281590552	27824.400390625
2171.2986615646	27814.400390625
2173.56384564685	27794.80078125
2175.82836844637	27826
2178.0922302572	27924.80078125
2180.35543137332	27880.80078125
2182.61797208862	28068.80078125
2184.87985269695	27791.400390625
2187.14107349208	27888.19921875
2189.40163476773	28114.400390625
2191.66153681753	28071.80078125
2193.92077993507	27892.400390625
2196.17936441386	28010.400390625
2198.43729054735	28112.19921875
2200.69455862894	28059
2202.95116895194	28135.400390625
2205.20712180962	28062.599609375
2207.46241749519	28079
2209.71705630179	28310.400390625
2211.97103852248	28075.400390625
2214.2243644503	28275.400390625
2216.47703437819	28226.400390625
2218.72904859905	28186.19921875
2220.98040740571	28325.400390625
2223.23111109095	28248
2225.4811599475	28183.599609375
2227.73055426799	28418.599609375
2229.97929434504	28269
2232.22738047118	28321.400390625
2234.47481293889	28452
2236.72159204058	28670
2238.96771806864	28633.80078125
2241.21319131536	28449.400390625
2243.458012073	28429.599609375
2245.70218063374	28675.80078125
2247.94569728973	28733.599609375
2250.18856233304	28689.80078125
2252.4307760557	28468.599609375
2254.67233874967	28662.80078125
2256.91325070687	28716.400390625
2259.15351221915	28704.599609375
2261.39312357831	28693.599609375
2263.63208507611	28641.80078125
2265.87039700422	28862
2268.1080596543	28946
2270.34507331792	28819.80078125
2272.5814382866	28866
2274.81715485183	29006.19921875
2277.05222330502	29003
2279.28664393755	29069.400390625
2281.52041704072	29061.80078125
2283.75354290581	29143.80078125
2285.98602182401	29165.80078125
2288.21785408648	29088.599609375
2290.44903998434	29262.599609375
2292.67957980862	29339.19921875
2294.90947385033	29156.19921875
2297.1387224004	29342.19921875
2299.36732574975	29471.400390625
2301.59528418921	29394.599609375
2303.82259800958	29623.599609375
2306.04926750158	29429.80078125
2308.27529295593	29390.80078125
2310.50067466325	29495.400390625
2312.72541291412	29583.400390625
2314.9495079991	29662.19921875
2317.17296020866	29508.80078125
2319.39576983323	29747
2321.61793716322	29668.400390625
2323.83946248894	29579
2326.06034610069	29782
2328.28058828871	29704.599609375
2330.50018934317	29691.80078125
2332.7191495542	29658.19921875
2334.93746921192	29743
2337.15514860633	29688.400390625
2339.37218802743	29735.19921875
2341.58858776516	29576.19921875
2343.80434810941	29787.80078125
2346.01946935001	29717.19921875
2348.23395177675	29678.599609375
2350.44779567939	29814
2352.66100134759	29707.80078125
2354.87356907101	29816.599609375
2357.08549913925	29710.80078125
2359.29679184185	29813.80078125
2361.50744746829	30037.19921875
2363.71746630804	29787.400390625
2365.92684865048	29661.19921875
2368.13559478499	29748
2370.34370500083	29862
2372.55117958727	29755.80078125
2374.75801883352	29727.599609375
2376.96422302874	29620.400390625
2379.16979246202	29678.80078125
2381.37472742243	29599.80078125
2383.57902819898	29723.400390625
2385.78269508063	29660.80078125
2387.98572835629	29579
2390.18812831482	29581.400390625
2392.38989524505	29727.400390625
2394.59102943573	29672
2396.79153117559	29782.400390625
2398.9914007533	29592
2401.19063845748	29628.80078125
2403.38924457672	29586.599609375
2405.58721939951	29628
2407.78456321435	29495.599609375
2409.98127630966	29578.599609375
2412.17735897382	29691.80078125
2414.37281149517	29612
2416.56763416198	29597.599609375
2418.76182726249	29789
2420.95539108487	29602.19921875
2423.14832591726	29750.80078125
2425.34063204776	29555.400390625
2427.53230976439	29443
2429.72335935513	29715.400390625
2431.91378110795	29666.400390625
2434.10357531071	29503.19921875
2436.29274225125	29587.19921875
2438.48128221739	29478
2440.66919549683	29523.19921875
2442.8564823773	29502.19921875
2445.04314314641	29642.19921875
2447.22917809176	29514.80078125
2449.4145875009	29580.400390625
2451.59937166131	29446.80078125
2453.78353086044	29346
2455.96706538568	29568.599609375
2458.14997552436	29409.80078125
2460.33226156379	29352.19921875
2462.51392379119	29419
2464.69496249376	29213.19921875
2466.87537795862	29120.80078125
2469.05517047288	29199
2471.23434032357	29163.400390625
2473.41288779767	29350.80078125
2475.59081318211	29156.19921875
2477.76811676378	29202.599609375
2479.9447988295	29175.19921875
2482.12085966605	28942.19921875
2484.29629956016	29141.599609375
2486.4711187985	29027.19921875
2488.64531766769	29218
2490.8188964543	29236
2492.99185544484	28991.599609375
2495.16419492579	29136.400390625
2497.33591518353	29102.80078125
2499.50701650444	28990
2501.67749917482	29100.599609375
2503.84736348091	29064.400390625
2506.01660970891	29038.19921875
2508.18523814496	29120.80078125
2510.35324907514	29134.400390625
2512.52064278551	29130.599609375
2514.68741956201	29163.80078125
2516.85357969058	29493
2519.01912345709	29479.80078125
2521.18405114735	29333.80078125
2523.34836304711	29279
2525.51205944208	29325.19921875
2527.6751406179	29210.599609375
2529.83760686016	29381
2531.99945845439	29391.80078125
2534.16069568606	29543.80078125
2536.3213188406	29564
2538.48132820336	29242.19921875
2540.64072405965	29423
2542.79950669471	29353
2544.95767639373	29693.80078125
2547.11523344184	29553.19921875
2549.27217812411	29447
2551.42851072555	29523
2553.58423153111	29562.400390625
2555.73934082569	29305.599609375
2557.89383889412	29488.19921875
2560.04772602118	29437.599609375
2562.20100249158	29285
2564.35366858996	29239.19921875
2566.50572460093	29263.400390625
2568.65717080901	29130.599609375
2570.80800749867	29255
2572.95823495433	29182.400390625
2575.10785346031	29064.400390625
2577.25686330093	28921.400390625
2579.40526476038	28740.599609375
2581.55305812282	28829.400390625
2583.70024367237	28654.400390625
2585.84682169303	28659
2587.99279246879	28735.80078125
2590.13815628354	28734
2592.28291342112	28585.19921875
2594.42706416531	28688.19921875
2596.5706087998	28668
2598.71354760826	28840.19921875
2600.85588087425	28709.80078125
2602.99760888127	28684
2605.13873191278	28653.19921875
2607.27925025214	28490.19921875
2609.41916418269	28757
2611.55847398764	28719.599609375
2613.69717995017	28622.19921875
2615.83528235339	28870.80078125
2617.97278148034	28842.19921875
2620.10967761398	28733.599609375
2622.2459710372	28791.80078125
2624.38166203284	28864.80078125
2626.51675088365	28926
2628.65123787231	28650
2630.78512328145	28803.400390625
2632.9184073936	28768.19921875
2635.05109049124	28911.400390625
2637.18317285676	28748.19921875
2639.31465477248	28920.19921875
2641.44553652067	28894.19921875
2643.5758183835	28725.80078125
2645.70550064309	28900.19921875
2647.83458358144	28889
2649.96306748053	29034.80078125
2652.09095262223	28920
2654.21823928836	29121.80078125
2656.34492776063	28825
2658.47101832071	28900.19921875
2660.59651125015	28996.80078125
2662.72140683047	28973.80078125
2664.84570534309	28977.400390625
2666.96940706934	28932
2669.0925122905	28689.400390625
2671.21502128773	29004.80078125
2673.33693434215	28997.19921875
2675.45825173479	28900.19921875
2677.57897374658	28954.19921875
2679.69910065839	29072.400390625
2681.818632751	28824.19921875
2683.93757030511	28999.599609375
2686.05591360133	28775.400390625
2688.17366292021	28892.599609375
2690.29081854218	28850
2692.40738074762	28652
2694.52334981681	28792.599609375
2696.63872602995	28719.599609375
2698.75350966713	28926
2700.86770100841	29022
2702.98130033371	28737.80078125
2705.09430792289	28771
2707.20672405571	28803.80078125
2709.31854901185	29113.400390625
2711.42978307091	28753.80078125
2713.54042651238	28824.400390625
2715.65047961567	29068.400390625
2717.7599426601	28916.19921875
2719.86881592491	28911.599609375
2721.97709968924	29010.599609375
2724.08479423213	28904.599609375
2726.19189983255	28930
2728.29841676934	28829.19921875
2730.4043453213	29028.80078125
2732.5096857671	29088.19921875
2734.61443838532	28965
2736.71860345444	28928.400390625
2738.82218125286	28968.599609375
2740.92517205889	29045
2743.02757615072	29037.599609375
2745.12939380646	28827.599609375
2747.23062530411	29016.400390625
2749.33127092159	29065.599609375
2751.4313309367	28786.80078125
2753.53080562716	29061.400390625
2755.62969527058	29138.599609375
2757.72800014448	28884.19921875
2759.82572052625	29046.599609375
2761.92285669323	28815
2764.0194089226	29031.400390625
2766.11537749147	28983
2768.21076267686	29057.19921875
2770.30556475566	29006.599609375
2772.39978400465	28930
2774.49342070054	28855.400390625
2776.58647511991	29009.19921875
2778.67894753923	28984.80078125
2780.77083823487	29147.599609375
2782.8621474831	28897.19921875
2784.95287556007	28819.400390625
2787.04302274184	28798.599609375
2789.13258930433	28924.19921875
2791.22157552338	28658.19921875
2793.30998167471	28742
2795.39780803392	29052
2797.4850548765	28965.80078125
2799.57172247786	28835.400390625
2801.65781111324	28748.80078125
2803.74332105781	28840.80078125
2805.82825258661	28906.400390625
2807.91260597457	28924.19921875
2809.9963814965	28836.400390625
2812.07957942711	28893.19921875
2814.16220004096	28599.599609375
2816.24424361252	28792.599609375
2818.32571041614	28777.400390625
2820.40660072604	28786
2822.48691481631	29014.599609375
2824.56665296098	28969.400390625
2826.64581543388	28851
2828.72440250876	29048.80078125
2830.80241445925	28939.400390625
2832.87985155885	29124.80078125
2834.95671408093	29129.19921875
2837.03300229875	29254.400390625
2839.10871648544	29268.599609375
2841.18385691399	29613.19921875
2843.25842385729	29624.400390625
2845.33241758808	29524.400390625
2847.40583837898	29676
2849.4786865025	29662.400390625
2851.550962231	29804.400390625
2853.6226658367	29914.599609375
2855.69379759173	29739.599609375
2857.76435776806	29655
2859.83434663753	29793.80078125
2861.90376447184	29677.80078125
2863.97261154259	29889.400390625
2866.0408881212	29829
2868.10859447901	29846.599609375
2870.17573088717	29917
2872.24229761673	29897.599609375
2874.30829493859	29933.599609375
2876.37372312352	29971.19921875
2878.43858244215	30217.19921875
2880.50287316496	30349.400390625
2882.56659556231	30251
2884.62974990439	30401.599609375
2886.69233646129	30199.599609375
2888.75435550293	30017.80078125
2890.81580729909	30214.80078125
2892.87669211941	30050.19921875
2894.93701023339	30115.19921875
2896.99676191039	30097.80078125
2899.05594741961	30226.80078125
2901.1145670301	30113.80078125
2903.1726210108	29904.599609375
2905.23010963045	29985.400390625
2907.28703315768	29857
2909.34339186096	30045.400390625
2911.39918600861	30056
2913.45441586879	29827
2915.50908170952	29869
2917.56318379867	29807.599609375
2919.61672240395	29970.599609375
2921.66969779291	29867.19921875
2923.72211023295	29915
2925.77395999134	29918.19921875
2927.82524733515	29967.80078125
2929.87597253132	29942.599609375
2931.92613584663	29794
2933.97573754769	29742.19921875
2936.02477790097	29425.599609375
2938.07325717276	29354.599609375
2940.1211756292	29587.80078125
2942.16853353626	29423
2944.21533115976	29578
2946.26156876536	29382.80078125
2948.30724661853	29414.599609375
2950.3523649846	29486.19921875
2952.39692412872	29406.19921875
2954.44092431587	29319
2956.48436581089	29266.19921875
2958.52724887843	29205.80078125
2960.56957378296	29250.80078125
2962.6113407888	29430
2964.65255016011	29412.400390625
2966.69320216083	29432.400390625
2968.73329705479	29241.400390625
2970.77283510559	29180
2972.81181657671	29244.400390625
2974.8502417314	29355.400390625
2976.88811083279	29178
2978.92542414378	29348.599609375
2980.96218192713	29331.400390625
2982.99838444541	29372.80078125
2985.034031961	29214
2987.06912473612	29471.19921875
2989.1036630328	29301.19921875
2991.13764711288	29222.19921875
2993.17107723804	29349
2995.20395366974	29452.599609375
2997.23627666931	29436.19921875
2999.26804649782	29574.599609375
3001.29926341624	29686.599609375
3003.32992768528	29623.599609375
3005.3600395655	29667.599609375
3007.38959931726	29714.80078125
3009.41860720076	29828.400390625
3011.44706347595	30064.19921875
3013.47496840263	29833.400390625
3015.50232224041	30056
3017.5291252487	30117
3019.5553776867	29725.400390625
3021.58107981344	30162.599609375
3023.60623188773	30161.19921875
3025.63083416822	30199.400390625
3027.65488691331	30346.400390625
3029.67839038125	30253.19921875
3031.70134483007	30029.400390625
3033.72375051759	30299.400390625
3035.74560770144	30365
3037.76691663907	30375.400390625
3039.78767758768	30401.80078125
3041.80789080431	30196.400390625
3043.82755654577	30289.19921875
3045.84667506867	30269
3047.8652466294	30352.19921875
3049.88327148418	30330.19921875
3051.90074988899	30237.80078125
3053.91768209961	30247
3055.9340683716	30095
3057.94990896033	30076.80078125
3059.96520412095	30346.599609375
3061.97995410838	30247.80078125
3063.99415917734	30271
3066.00781958234	30106.400390625
3068.02093557766	30244.80078125
3070.03350741738	29940.80078125
3072.04553535535	30188.80078125
3074.05701964521	30053
3076.06796054036	30013.80078125
3078.078358294	29887.80078125
3080.08821315912	30108.400390625
3082.09752538846	30300.19921875
3084.10629523454	29777.19921875
3086.11452294967	30103.400390625
3088.12220878592	29973.19921875
3090.12935299515	30192.400390625
3092.13595582898	30059.19921875
3094.1420175388	29979.400390625
3096.14753837579	30103
3098.15251859088	30057.19921875
3100.15695843477	30083.400390625
3102.16085815793	30039.80078125
3104.16421801061	29877.599609375
3106.16703824282	29784.400390625
3108.16931910432	29988.599609375
3110.17106084464	29970.599609375
3112.17226371308	30199.400390625
3114.17292795872	30057
3116.17305383034	30248.599609375
3118.17264157657	30016.400390625
3120.17169144571	30055.599609375
3122.17020368587	29965
3124.16817854492	30056
3126.16561627044	30121.599609375
3128.16251710982	30413.19921875
3130.15888131017	30346.80078125
3132.15470911837	30403.599609375
3134.15000078104	30344.599609375
3136.14475654455	30471.599609375
3138.13897665502	30421.599609375
3140.13266135835	30372.400390625
3142.12581090014	30337.80078125
3144.11842552577	30587
3146.11050548036	30634.400390625
3148.10205100875	30574
3150.09306235557	30672.80078125
3152.08353976515	30390.599609375
3154.07348348158	30094
3156.06289374869	30521.80078125
3158.05177081006	30250.19921875
3160.04011490899	30399.400390625
3162.02792628852	30556.400390625
3164.01520519145	30317.19921875
3166.00195186029	30382.19921875
3167.98816653728	30539.19921875
3169.97384946442	30464.400390625
3171.95900088344	30369.599609375
3173.94362103577	30395.400390625
3175.92771016259	30378.19921875
3177.91126850484	30566.19921875
3179.89429630312	30465.599609375
3181.87679379782	30232.80078125
3183.85876122903	30521.400390625
3185.84019883657	30520.599609375
3187.82110685997	30553.400390625
3189.80148553851	30319.599609375
3191.78133511116	30610.80078125
3193.76065581664	30575.400390625
3195.73944789337	30469
3197.7177115795	30419.400390625
3199.6954471129	30585.19921875
3201.67265473114	30622.80078125
3203.64933467153	30498.19921875
3205.62548717107	30706.599609375
3207.60111246648	30738.599609375
3209.57621079421	30461.400390625
3211.55078239041	30693
3213.52482749093	30492
3215.49834633133	30812.599609375
3217.4713391469	30855.80078125
3219.44380617262	30708.400390625
3221.41574764317	30869.80078125
3223.38716379296	30563
3225.35805485607	30854.599609375
3227.32842106631	30794.80078125
3229.29826265718	30997
3231.26757986187	30998.80078125
3233.2363729133	31233.599609375
3235.20464204405	31016.19921875
3237.17238748643	31013.19921875
3239.13960947243	31037.599609375
3241.10630823374	31156
3243.07248400174	31183.400390625
3245.03813700748	31429.599609375
3247.00326748177	31142.80078125
3248.96787565503	31131
3250.93196175742	31291.599609375
3252.89552601877	31206.80078125
3254.8585686686	31058
3256.82108993612	31391.19921875
3258.78309005022	31235.599609375
3260.74456923948	31194
3262.70552773215	31440.599609375
3264.66596575617	31339.599609375
3266.62588353916	31227.400390625
3268.58528130843	31224.80078125
3270.54415929094	30912
3272.50251771336	31127
3274.46035680201	31253.80078125
3276.4176767829	31301.599609375
3278.37447788171	31043.400390625
3280.33076032379	31259
3282.28652433416	31152.80078125
3284.24177013751	31178.599609375
3286.1964979582	31317.80078125
3288.15070802027	31252.80078125
3290.10440054741	31248
3292.05757576298	31082.80078125
3294.01023389001	31227.400390625
3295.96237515119	31357.80078125
3297.91399976887	31273.400390625
3299.86510796506	31295.400390625
3301.81569996142	31253.80078125
3303.76577597932	31206.19921875
3305.7153362397	31290.19921875
3307.66438096324	31219.599609375
3309.61291037024	31143
3311.56092468064	31058.599609375
3313.50842411404	30943.599609375
3315.45540888971	31196.400390625
3317.40187922656	30971
3319.34783534315	30994.599609375
3321.29327745768	31070.19921875
3323.23820578801	30623.19921875
3325.18262055164	30823.19921875
3327.1265219657	30756
3329.06991024699	30881
3331.01278561194	30839.400390625
3332.95514827662	30752.599609375
3334.89699845674	30937.400390625
3336.83833636766	30940
3338.77916222434	30465.599609375
3340.71947624143	30766.599609375
3342.65927863317	30855.400390625
3344.59856961346	30617.400390625
3346.53734939584	30894.400390625
3348.47561819344	30694.80078125
3350.41337621906	30511.599609375
3352.35062368513	30694.400390625
3354.28736080368	30626.19921875
3356.22358778637	30675.400390625
3358.15930484452	30664.19921875
3360.09451218904	30660.19921875
3362.02921003047	30659.19921875
3363.96339857898	30882.80078125
3365.89707804436	30676.599609375
3367.83024863602	30613.80078125
3369.76291056299	30557.80078125
3371.69506403389	30479.599609375
3373.62670925699	30740.19921875
3375.55784644016	30696.599609375
3377.4884757909	30559.400390625
3379.41859751629	30821.19921875
3381.34821182305	30724
3383.27731891749	30754.599609375
3385.20591900555	30822.80078125
3387.13401229276	30854.80078125
3389.06159898426	30878.599609375
3390.9886792848	31089
3392.91525339872	30968.80078125
3394.84132152998	30902.19921875
3396.76688388213	30968.80078125
3398.69194065833	30921.19921875
3400.61649206133	30973.599609375
3402.54053829348	30955.599609375
3404.46407955672	30869
3406.3871160526	30906.400390625
3408.30964798225	31016.19921875
3410.23167554639	30866.19921875
3412.15319894535	31133.400390625
3414.07421837904	30892.599609375
3415.99473404695	31046.80078125
3417.91474614817	31021.599609375
3419.83425488136	31153.19921875
3421.75326044479	31060.400390625
3423.67176303631	30921
3425.58976285332	31083.19921875
3427.50726009282	31012.80078125
3429.42425495143	30740.400390625
3431.34074762528	30911.80078125
3433.25673831012	30854.19921875
3435.17222720127	30849.19921875
3437.08721449362	30912.80078125
3439.00170038164	30562.400390625
3440.91568505936	30776
3442.82916872039	30550
3444.74215155791	30643.599609375
3446.65463376468	30550.19921875
3448.566615533	30613.19921875
3450.47809705476	30648.19921875
3452.3890785214	30589.599609375
3454.29956012393	30609.80078125
3456.20954205293	30547.400390625
3458.11902449853	30495.80078125
3460.02800765041	30329.80078125
3461.93649169784	30455.19921875
3463.84447682962	30230.19921875
3465.75196323412	30253.19921875
3467.65895109925	30305.80078125
3469.56544061249	30285.400390625
3471.47143196086	30121
3473.37692533093	30266.80078125
3475.28192090884	30265.599609375
3477.18641888026	30382.400390625
3479.09041943039	30279
3480.99392274402	30237.80078125
3482.89692900545	30196.599609375
3484.79943839853	30122.599609375
3486.70145110666	30292.599609375
3488.60296731277	30013
3490.50398719933	29941.19921875
3492.40451094836	29892.599609375
3494.30453874141	30039.599609375
3496.20407075956	30223
3498.10310718342	30243
3500.00164819315	29892.19921875