201.866871357051	872.25
204.754250281454	893.75
207.640596790938	876.5
210.525911876299	890
213.410196525689	881
216.293451724508	886.5
219.175678455485	879.75
222.056877698662	892
224.937050431388	903.75
227.816197628363	890.75
230.694320261602	891.5
233.571419300504	903.75
236.447495711764	899.25
239.322550459507	905.25
242.196584505182	899.5
245.069598807626	904.75
247.941594323078	897
250.812572005154	911.75
253.682532804884	902.75
256.551477670699	908.75
259.419407548456	896
262.286323381439	913.5
265.152226110364	910
268.017116673389	908.5
270.880996006115	918.75
273.743865041622	923.25
276.605724710436	920.75
279.466575940562	907.25
282.326419657496	922
285.1852567842	925.25
288.043088241157	925.25
290.899914946349	929.25
293.75573781526	919
296.610557760898	920
299.464375693817	925.5
302.317192522078	929.5
305.169009151297	926.25
308.019826484655	938
310.86964542287	931
313.718466864233	930.75
316.566291704614	944.25
319.413120837457	943
322.258955153804	950
325.103795542291	944
327.947642889128	928.25
330.79049807819	937.25
333.632361990927	933
336.473235506444	949.25
339.31311950145	943.25
342.152014850322	939.25
344.989922425062	950.75
347.826843095354	951.75
350.662777728528	958.25
353.497727189577	958.5
356.331692341195	952.25
359.164674043732	961.25
361.996673155267	962.25
364.827690531536	963.25
367.65772702602	960.75
370.486783489887	963.75
373.314860772047	964.25
376.14195971912	970.5
378.968081175466	948.75
381.793225983212	988.25
384.617394982201	978.5
387.44058901005	969.75
390.262808902131	969.25
393.08405549161	976.75
395.904329609395	972.25
398.723632084213	989.75
401.541963742569	978
404.359325408779	999
407.175717904938	969.5
409.991142050982	985.5
412.805598664665	980
415.619088561551	991.5
418.43161255505	983.75
421.243171456415	995
424.053766074758	1001
426.863397217017	992.5
429.672065688024	993.5
432.479772290455	1000
435.286517824879	1003.25
438.092303089736	1005
440.897128881359	997
443.70099599399	995.5
446.503905219761	996.75
449.305857348711	1015.75
452.106853168796	1013.5
454.906893465919	1008
457.705979023885	1002.25
460.504110624439	1017.75
463.3012890473	1019.25
466.097515070087	1016.5
468.892789468424	1022.5
471.687113015869	1015.5
474.48048648395	1032.5
477.272910642198	1020.25
480.064386258109	1022.75
482.854914097159	1017.5
485.644494922839	1037.25
488.433129496636	1028
491.220818578047	1029.75
494.007562924584	1031.75
496.793363291785	1031.25
499.578220433217	1042.75
502.362135100473	1044.25
505.145108043209	1053.25
507.927140009098	1049.5
510.708231743909	1061.5
513.488383991433	1054.25
516.267597493556	1043
519.04587299022	1046.75
521.82321121946	1068
524.599612917398	1049.75
527.375078818233	1054.75
530.149609654287	1044.25
532.923206155967	1055.25
535.695869051804	1064.5
538.467599068448	1060.25
541.238396930665	1038.25
544.008263361364	1071
546.777199081578	1044.5
549.545204810493	1050
552.312281265436	1033
555.078429161898	1067.5
557.843649213533	1061.25
560.607942132156	1059.5
563.371308627753	1066.25
566.133749408495	1062
568.895265180756	1058.75
571.655856649064	1066
574.415524516189	1055.25
577.174269483075	1072
579.932092248884	1082
582.688993510994	1073.75
585.444973965023	1074.5
588.200034304795	1075.75
590.95417522237	1078.25
593.70739740807	1087.75
596.459701550433	1082.5
599.21108833628	1076.75
601.961558450668	1078
604.711112576933	1077.75
607.459751396673	1078.25
610.207475589748	1091.25
612.954285834338	1082.25
615.700182806879	1085.5
618.445167182101	1081
621.189239633055	1074.25
623.932400831087	1074.25
626.674651445839	1071
629.415992145303	1086.75
632.156423595745	1076.25
634.895946461813	1092.5
637.634561406449	1069.5
640.37226909096	1092.75
643.109070174978	1075.75
645.844965316508	1071.25
648.579955171888	1073.75
651.314040395846	1096.75
654.047221641456	1088.75
656.779499560176	1098.75
659.510874801828	1079.25
662.241348014642	1094.5
664.97091984524	1109.25
667.699590938606	1077.25
670.427361938164	1086.25
673.15423348573	1083
675.880206221526	1089.75
678.605280784206	1110.5
681.329457810829	1093.25
684.05273793692	1079.5
686.775121796389	1106
689.49661002163	1114
692.217203243454	1111.75
694.936902091144	1106.25
697.655707192425	1091.25
700.373619173493	1098.25
703.09063865901	1097.75
705.806766272093	1098
708.522002634378	1088.25
711.236348365946	1097.75
713.94980408538	1116.75
716.662370409762	1100.5
719.374047954676	1117.25
722.08483733419	1121.75
724.794739160909	1111.5
727.503754045949	1126
730.21188259892	1117.25
732.919125427998	1105.25
735.625483139855	1122
738.330956339723	1112.25
741.035545631374	1111.25
743.739251617106	1121.25
746.44207489779	1126.25
749.144016072852	1130.25
751.845075740272	1119.5
754.545254496603	1126.75
757.244552936976	1135.25
759.94297165508	1126
762.640511243222	1124
765.337172292249	1130.75
768.032955391649	1144.75
770.727861129482	1134.75
773.421890092413	1144
776.11504286572	1141.25
778.807320033298	1151
781.49872217765	1125.5
784.18924987991	1146.75
786.87890371984	1137.75
789.567684275826	1138.75
792.255592124908	1153
794.94262784276	1140.5
797.628792003703	1129
800.314085180715	1142.25
802.998507945427	1160.5
805.682060868145	1130
808.364744517821	1146.75
811.046559462105	1149
813.727506267311	1149.75
816.407585498422	1146
819.08679771913	1143.5
821.765143491822	1154.5
824.442623377563	1157.25
827.119237936127	1179.75
829.794987726003	1167.5
832.469873304377	1158.5
835.143895227167	1171
837.817054048985	1150.25
840.489350323205	1181.5
843.160784601892	1190.75
845.831357435894	1177
848.501069374739	1177.25
851.169920966753	1182.5
853.837912758987	1192.25
856.505045297232	1182.25
859.171319126071	1182
861.836734788823	1191.25
864.501292827579	1195.75
867.164993783208	1189.75
869.827838195361	1178.75
872.489826602454	1194.25
875.150959541701	1199.75
877.811237549104	1175.25
880.470661159456	1185.75
883.129230906357	1185
885.786947322205	1183.75
888.443810938206	1189
891.099822284385	1187.25
893.754981889586	1200
896.409290281452	1189
899.062747986485	1184.25
901.715355529999	1185
904.367113436154	1207.25
907.01802222793	1200.75
909.668082427172	1181.75
912.317294554574	1174.5
914.965659129659	1186.25
917.613176670835	1199.25
920.259847695364	1204
922.90567271936	1193
925.550652257825	1201
928.194786824621	1213
930.838076932512	1203.75
933.480523093109	1221.5
936.122125816953	1219.75
938.762885613447	1220.25
941.402802990899	1215.25
944.041878456523	1226.25
946.680112516428	1228.5
949.31750567563	1208.25
951.954058438081	1215
954.589771306633	1202.5
957.224644783048	1224.75
959.858679368044	1205.25
962.491875561238	1214.5
965.12423386121	1212.25
967.75575476545	1228.75
970.386438770423	1241.25
973.016286371501	1222.75
975.645298063046	1219
978.273474338355	1219.25
980.900815689674	1243.75
983.527322608243	1225.25
986.152995584245	1223.75
988.777835106834	1232
991.401841664148	1228.75
994.025015743307	1232.5
996.647357830407	1233.5
999.268868410534	1237.75
1001.88954796777	1237.75
1004.50939698518	1239
1007.12841594484	1240.5
1009.74660532783	1235
1012.36396561423	1255.5
1014.98049728314	1249.5
1017.59620081267	1241
1020.21107667995	1244.75
1022.82512536112	1260
1025.43834733138	1261.5
1028.05074306493	1274.5
1030.66231303501	1266.5
1033.27305771392	1252.5
1035.88297757299	1257
1038.49207308257	1284.25
1041.10034471211	1264
1043.70779293008	1268
1046.31441820402	1277.5
1048.92022100052	1281.5
1051.52520178525	1289.75
1054.12936102295	1299.75
1056.73269917742	1305
1059.33521671154	1322.25
1061.93691408729	1343
1064.53779176571	1313.25
1067.13785020694	1299.25
1069.73708987022	1293.25
1072.33551121386	1268.5
1074.93311469528	1270
1077.52990077103	1301.25
1080.12586989674	1266.5
1082.72102252714	1300.25
1085.31535911611	1281.25
1087.90888011663	1303
1090.50158598078	1266.75
1093.09347715979	1292.5
1095.68455410403	1288.75
1098.27481726296	1281.25
1100.86426708523	1301.75
1103.45290401857	1292
1106.04072850991	1293.5
1108.6277410053	1299
1111.21394194993	1291.5
1113.79933178816	1309.25
1116.3839109635	1321
1118.96767991862	1321.5
1121.55063909539	1325.25
1124.13278893477	1346.5
1126.71412987696	1395.75
1129.29466236132	1400
1131.87438682637	1356.5
1134.45330370982	1324.75
1137.03141344858	1325.25
1139.60871647872	1306
1142.18521323554	1327
1144.7609041535	1300.25
1147.33578966629	1296.5
1149.90987020676	1299.5
1152.48314620702	1309
1155.05561809835	1305.5
1157.62728631125	1317
1160.19815127545	1314.25
1162.76821341988	1306
1165.33747317271	1323
1167.90593096133	1323.25
1170.47358721235	1335.75
1173.04044235163	1322.75
1175.60649680425	1311
1178.17175099454	1306
1180.73620534607	1311.5
1183.29986028165	1310.75
1185.86271622336	1317.75
1188.42477359249	1311.5
1190.98603280964	1305.25
1193.54649429462	1304.5
1196.10615846653	1305.25
1198.66502574372	1312
1201.22309654385	1317.75
1203.78037128378	1326
1206.33685037971	1323
1208.89253424709	1319.5
1211.44742330063	1304.75
1214.00151795438	1327.5
1216.55481862163	1330.25
1219.10732571497	1315.25
1221.65903964631	1317
1224.20996082683	1328.25
1226.760089667	1322
1229.30942657664	1331.25
1231.85797196483	1344.25
1234.40572623998	1329.25
1236.95268980981	1334.5
1239.49886308136	1324.25
1242.04424646098	1343.5
1244.58884035435	1342.25
1247.13264516647	1363.75
1249.67566130166	1338.75
1252.21788916358	1348.75
1254.75932915524	1355.25
1257.29998167896	1371.75
1259.83984713639	1351.5
1262.37892592857	1376.5
1264.91721845586	1373
1267.45472511795	1375.75
1269.9914463139	1363.75
1272.52738244213	1385.75
1275.0625339004	1373.5
1277.59690108587	1399
1280.130484395	1385
1282.66328422367	1383.25
1285.19530096712	1402.25
1287.72653501993	1429
1290.25698677608	1446.25
1292.78665662894	1509.5
1295.31554497125	1503
1297.8436521951	1468.75
1300.37097869203	1444.75
1302.89752485292	1436.25
1305.42329106805	1409.5
1307.94827772713	1425.75
1310.47248521921	1420.25
1312.99591393279	1413.5
1315.51856425575	1413.5
1318.04043657536	1428
1320.56153127836	1416.25
1323.08184875083	1432.5
1325.6013893783	1419.75
1328.12015354572	1423.5
1330.63814163744	1431.5
1333.15535403727	1433.25
1335.67179112839	1458.75
1338.18745329347	1448.25
1340.70234091454	1440.25
1343.21645437314	1428
1345.72979405019	1458.5
1348.24236032607	1473.75
1350.75415358059	1468.75
1353.26517419303	1451.75
1355.7754225421	1450.25
1358.28489900594	1476.75
1360.79360396218	1483.25
1363.30153778787	1490.75
1365.80870085955	1485
1368.31509355319	1478
1370.82071624424	1469
1373.32556930762	1477.25
1375.8296531177	1486.75
1378.33296804832	1479
1380.83551447282	1490.5
1383.33729276399	1487.5
1385.83830329408	1474.75
1388.33854643489	1488.75
1390.83802255762	1481.25
1393.33673203301	1478
1395.83467523128	1461.75
1398.33185252211	1462.5
1400.82826427471	1490.75
1403.32391085777	1476
1405.81879263947	1487.75
1408.31290998752	1504.25
1410.80626326908	1486
1413.29885285087	1543.75
1415.79067909909	1564.25
1418.28174237944	1552.25
1420.77204305717	1540
1423.26158149702	1507
1425.75035806323	1541.5
1428.2383731196	1552.5
1430.72562702942	1543
1433.21212015554	1559.25
1435.69785286028	1587.5
1438.18282550555	1597
1440.66703845275	1597.75
1443.15049206284	1599.25
1445.6331866963	1597.75
1448.11512271316	1596.25
1450.59630047298	1587.75
1453.07672033486	1617
1455.55638265748	1611
1458.03528779902	1642.75
1460.51343611725	1644.5
1462.99082796946	1633.25
1465.46746371252	1618.75
1467.94334370285	1633.25
1470.41846829642	1607.5
1472.89283784878	1629.5
1475.36645271503	1610
1477.83931324983	1625.5
1480.31141980743	1647.75
1482.78277274164	1632.5
1485.25337240583	1622.5
1487.72321915297	1639.25
1490.19231333557	1627.5
1492.66065530578	1653.5
1495.12824541525	1659
1497.5950840153	1649.75
1500.06117145678	1657.75
1502.52650809014	1670
1504.99109426543	1651
1507.45493033227	1671.75
1509.91801663992	1676.75
1512.38035353717	1690.5
1514.84194137248	1669.75
1517.30278049386	1674.25
1519.76287124894	1693.25
1522.22221398497	1683
1524.68080904876	1698.25
1527.13865678681	1715.75
1529.59575754514	1738.5
1532.05211166945	1720
1534.50771950503	1710
1536.96258139678	1735
1539.41669768924	1774.5
1541.87006872656	1767.75
1544.32269485252	1752.75
1546.77457641051	1797.25
1549.22571374357	1772.25
1551.67610719434	1790
1554.12575710513	1814.75
1556.57466381785	1789.75
1559.02282767408	1824.25
1561.47024901499	1830
1563.91692818144	1857
1566.3628655139	1846.75
1568.80806135249	1888.25
1571.252516037	1870
1573.6962299068	1890.75
1576.13920330099	1895
1578.58143655828	1920
1581.02293001704	1926.75
1583.46368401528	1903
1585.90369889071	1908
1588.34297498065	1946.5
1590.7815126221	1938.25
1593.21931215173	1963
1595.65637390588	1938.5
1598.09269822053	1954.25
1600.52828543135	1966
1602.96313587367	1946.5
1605.3972498825	1975.75
1607.83062779252	1948
1610.26326993808	1970.25
1612.69517665322	1965.5
1615.12634827165	1993.5
1617.55678512676	1978.5
1619.98648755163	2000.75
1622.41545587902	1966.5
1624.84369044138	2011.5
1627.27119157085	2007
1629.69795959924	2010.75
1632.12399485808	2021
1634.54929767859	2028
1636.97386839165	2029.75
1639.39770732789	2049.25
1641.8208148176	2043
1644.24319119078	2026.75
1646.66483677715	2059.25
1649.0857519061	2046.75
1651.50593690677	2067.25
1653.92539210795	2088
1656.3441178382	2070.5
1658.76211442575	2089.25
1661.17938219855	2098
1663.59592148428	2121.25
1666.01173261032	2108.5
1668.42681590377	2140.5
1670.84117169145	2126.25
1673.25480029991	2136.75
1675.66770205541	2148.25
1678.07987728393	2174
1680.49132631119	2175
1682.90204946263	2173
1685.31204706342	2183.5
1687.72131943846	2207
1690.1298669124	2231
1692.53768980957	2239.5
1694.94478845411	2219
1697.35116316982	2246.5
1699.75681428031	2223.75
1702.16174210887	2276.5
1704.56594697858	2219.25
1706.96942921222	2262.25
1709.37218913235	2280.75
1711.77422706125	2249
1714.17554332098	2274
1716.5761382333	2318
1718.97601211977	2284.75
1721.37516530169	2292
1723.77359810006	2270.5
1726.17131083572	2312.5
1728.56830382922	2304
1730.96457740087	2307.25
1733.36013187075	2283.25
1735.75496755868	2288.75
1738.14908478428	2319.25
1740.54248386689	2315.5
1742.93516512565	2313.5
1745.32712887946	2340.75
1747.71837544697	2348.5
1750.10890514662	2345.5
1752.49871829661	2371
1754.88781521492	2356
1757.27619621929	2388.5
1759.66386162726	2377
1762.05081175612	2393
1764.43704692297	2408.5
1766.82256744465	2417
1769.20737363782	2427.25
1771.59146581887	2419.75
1773.97484430405	2409.25
1776.35750940932	2444.25
1778.73946145048	2448
1781.12070074309	2474.5
1783.50122760249	2493.25
1785.88104234385	2480.5
1788.26014528209	2490.5
1790.63853673196	2485.5
1793.01621700796	2512
1795.39318642443	2549.75
1797.76944529549	2525.5
1800.14499393503	2556.75
1802.51983265681	2556.5
1804.8939617743	2563.25
1807.26738160085	2583.75
1809.64009244957	2590
1812.01209463339	2595
1814.38338846504	2609.75
1816.75397425706	2628.5
1819.12385232181	2627
1821.49302297142	2655.75
1823.86148651789	2651.75
1826.22924327299	2642.5
1828.59629354831	2665.25
1830.96263765526	2678.5
1833.32827590507	2688.5
1835.69320860877	2689.25
1838.05743607724	2667.25
1840.42095862113	2685
1842.78377655097	2695.75
1845.14589017707	2730
1847.50729980956	2702.25
1849.86800575843	2719.5
1852.22800833346	2733.25
1854.58730784427	2719.25
1856.94590460032	2750
1859.30379891087	2797.75
1861.66099108503	2758.75
1864.01748143175	2783.25
1866.37327025978	2789.5
1868.72835787773	2771
1871.08274459403	2801.25
1873.43643071697	2821.5
1875.78941655464	2831.5
1878.14170241498	2842
1880.4932886058	2876.5
1882.84417543469	2892.75
1885.19436320915	2881
1887.54385223646	2865
1889.89264282378	2867
1892.24073527809	2887.75
1894.58812990625	2929.5
1896.93482701493	2948.75
1899.28082691067	2940.5
1901.62612989984	2935.25
1903.97073628868	2981.25
1906.31464638326	2973.25
1908.6578604895	3026
1911.00037891321	3017
1913.34220196	3054
1915.68332993537	3054.5
1918.02376314468	3046
1920.36350189311	3011.5
1922.70254648573	3042.25
1925.04089722744	3078
1927.37855442303	3050.25
1929.71551837715	3036
1932.05178939426	3069.5
1934.38736777876	3091.25
1936.72225383484	3046.5
1939.0564478666	3100
1941.38995017799	3069.25
1943.72276107283	3122.75
1946.05488085479	3063.75
1948.38630982744	3101.5
1950.71704829419	3117
1953.04709655832	3085.5
1955.376454923	3099.25
1957.70512369126	3109.25
1960.03310316599	3126.25
1962.36039364999	3110.5
1964.68699544589	3109
1967.01290885622	3134.5
1969.33813418338	3136.25
1971.66267172965	3173.25
1973.98652179718	3158.75
1976.309684688	3205.5
1978.63216070402	3174.25
1980.95395014705	3205.75
1983.27505331873	3224
1985.59547052063	3204.25
1987.9152020542	3247.5
1990.23424822074	3248
1992.55260932146	3239.75
1994.87028565746	3234.75
1997.18727752968	3266
1999.503585239	3294.75
2001.81920908618	3287
2004.13414937184	3346.5
2006.44840639651	3334.75
2008.7619804606	3356.5
2011.07487186442	3403
2013.38708090815	3399.75
2015.6986078919	3438
2018.00945311564	3415.75
2020.31961687923	3393
2022.62909948246	3451
2024.93790122498	3450.25
2027.24602240636	3498.25
2029.55346332604	3482.5
2031.86022428337	3495.25
2034.16630557761	3484.25
2036.47170750791	3524.5
2038.77643037331	3547.75
2041.08047447275	3566.75
2043.38384010509	3548
2045.68652756907	3561
2047.98853716335	3561.25
2050.28986918648	3552
2052.59052393692	3607.5
2054.89050171302	3615.25
2057.18980281306	3588.5
2059.4884275352	3618
2061.78637617753	3627.75
2064.08364903802	3646.5
2066.38024641457	3650.5
2068.67616860497	3667
2070.97141590694	3676.5
2073.26598861809	3664.5
2075.55988703595	3644.5
2077.85311145796	3644.25
2080.14566218145	3727.5
2082.43753950371	3706.25
2084.72874372188	3715
2087.01927513307	3737.75
2089.30913403428	3761.25
2091.59832072241	3735.75
2093.88683549429	3748.25
2096.17467864666	3767.5
2098.46185047619	3796.75
2100.74835127944	3819.75
2103.03418135292	3781
2105.31934099303	3784.5
2107.6038304961	3803.5
2109.88765015838	3814.75
2112.17080027602	3886.75
2114.45328114513	3874
2116.7350930617	3874.25
2119.01623632165	3865
2121.29671122085	3892.75
2123.57651805505	3899.25
2125.85565711996	3920.25
2128.13412871117	3952
2130.41193312424	3981.5
2132.68907065462	3961
2134.96554159771	4022.75
2137.24134624881	3986.25
2139.51648490317	3992.75
2141.79095785593	4004.75
2144.0647654022	4028
2146.33790783698	4021.25
2148.61038545524	4024.75
2150.88219855182	4105
2153.15334742154	4049
2155.42383235911	4101
2157.6936536592	4109.75
2159.9628116164	4097.75
2162.23130652522	4088.75
2164.49913868011	4123.5
2166.76630837544	4090.75
2169.03281590552	4120.75
2171.2986615646	4154.25
2173.56384564685	4151.25
2175.82836844637	4128.75
2178.0922302572	4124.5
2180.35543137332	4158.75
2182.61797208862	4137.5
2184.87985269695	4144
2187.14107349208	4160.25
2189.40163476773	4146.5
2191.66153681753	4135.25
2193.92077993507	4138.75
2196.17936441386	4172
2198.43729054735	4143
2200.69455862894	4198.75
2202.95116895194	4151
2205.20712180962	4164.75
2207.46241749519	4162
2209.71705630179	4171
2211.97103852248	4172.25
2214.2243644503	4157.75
2216.47703437819	4167
2218.72904859905	4170
2220.98040740571	4178.5
2223.23111109095	4152.75
2225.4811599475	4163.25
2227.73055426799	4149.75
2229.97929434504	4163.5
2232.22738047118	4138.5
2234.47481293889	4161.25
2236.72159204058	4195.75
2238.96771806864	4164.5
2241.21319131536	4188
2243.458012073	4160
2245.70218063374	4194.25
2247.94569728973	4181.75
2250.18856233304	4181.75
2252.4307760557	4135.25
2254.67233874967	4174.75
2256.91325070687	4169.75
2259.15351221915	4156.25
2261.39312357831	4182.5
2263.63208507611	4154.75
2265.87039700422	4151
2268.1080596543	4161.75
2270.34507331792	4178.25
2272.5814382866	4145.25
2274.81715485183	4160
2277.05222330502	4168.5
2279.28664393755	4129.25
2281.52041704072	4193
2283.75354290581	4153.25
2285.98602182401	4131.75
2288.21785408648	4087.5
2290.44903998434	4130.5
2292.67957980862	4204
2294.90947385033	4147.5
2297.1387224004	4156
2299.36732574975	4142.25
2301.59528418921	4150.25
2303.82259800958	4158.25
2306.04926750158	4136.75
2308.27529295593	4139.5
2310.50067466325	4126.75
2312.72541291412	4099.25
2314.9495079991	4173
2317.17296020866	4099.5
2319.39576983323	4144.75
2321.61793716322	4145
2323.83946248894	4121
2326.06034610069	4140.75
2328.28058828871	4099.5
2330.50018934317	4074.5
2332.7191495542	4107.75
2334.93746921192	4115
2337.15514860633	4116.25
2339.37218802743	4140.5
2341.58858776516	4099.25
2343.80434810941	4094
2346.01946935001	4092.25
2348.23395177675	4092.5
2350.44779567939	4054.5
2352.66100134759	4072
2354.87356907101	4060.25
2357.08549913925	4044.5
2359.29679184185	4049.75
2361.50744746829	4132.25
2363.71746630804	4057.25
2365.92684865048	4011.25
2368.13559478499	4016.5
2370.34370500083	4064.75
2372.55117958727	4053.5
2374.75801883352	4039.5
2376.96422302874	4004
2379.16979246202	4000.5
2381.37472742243	4013.5
2383.57902819898	4049.75
2385.78269508063	3966
2387.98572835629	3965.5
2390.18812831482	3980.75
2392.38989524505	4008
2394.59102943573	3968
2396.79153117559	4003.75
2398.9914007533	3978.75
2401.19063845748	3978
2403.38924457672	3932
2405.58721939951	3914.5
2407.78456321435	3933
2409.98127630966	3945
2412.17735897382	3930.5
2414.37281149517	3876
2416.56763416198	3916.75
2418.76182726249	3928.5
2420.95539108487	3903.5
2423.14832591726	3938.25
2425.34063204776	3888.25
2427.53230976439	3929
2429.72335935513	3884.5
2431.91378110795	3921.75
2434.10357531071	3915.25
2436.29274225125	3936
2438.48128221739	3892.5
2440.66919549683	3872.75
2442.8564823773	3875.5
2445.04314314641	3858.5
2447.22917809176	3874
2449.4145875009	3835.25
2451.59937166131	3875
2453.78353086044	3881
2455.96706538568	3843.75
2458.14997552436	3825.5
2460.33226156379	3833
2462.51392379119	3804.25
2464.69496249376	3767.5
2466.87537795862	3812.25
2469.05517047288	3798.5
2471.23434032357	3805.5
2473.41288779767	3798
2475.59081318211	3790
2477.76811676378	3762
2479.9447988295	3737
2482.12085966605	3741.25
2484.29629956016	3741.75
2486.4711187985	3742
2488.64531766769	3760
2490.8188964543	3758.25
2492.99185544484	3703.75
2495.16419492579	3753.5
2497.33591518353	3729
2499.50701650444	3725.25
2501.67749917482	3747.75
2503.84736348091	3694
2506.01660970891	3710.5
2508.18523814496	3689
2510.35324907514	3737
2512.52064278551	3704
2514.68741956201	3687.25
2516.85357969058	3733.75
2519.01912345709	3697.25
2521.18405114735	3689.5
2523.34836304711	3686.5
2525.51205944208	3669
2527.6751406179	3689.25
2529.83760686016	3663.75
2531.99945845439	3701.25
2534.16069568606	3707
2536.3213188406	3698
2538.48132820336	3601
2540.64072405965	3675.5
2542.79950669471	3649
2544.95767639373	3686.75
2547.11523344184	3646.5
2549.27217812411	3650
2551.42851072555	3678
2553.58423153111	3653
2555.73934082569	3627
2557.89383889412	3593
2560.04772602118	3607
2562.20100249158	3615.5
2564.35366858996	3617
2566.50572460093	3574
2568.65717080901	3578
2570.80800749867	3617.25
2572.95823495433	3582.75
2575.10785346031	3577.5
2577.25686330093	3508.25
2579.40526476038	3510.75
2581.55305812282	3547.5
2583.70024367237	3500.25
2585.84682169303	3492.25
2587.99279246879	3508.75
2590.13815628354	3443.75
2592.28291342112	3471.5
2594.42706416531	3458.5
2596.5706087998	3474.75
2598.71354760826	3502.25
2600.85588087425	3474
2602.99760888127	3438.25
2605.13873191278	3417.75
2607.27925025214	3424.75
2609.41916418269	3420
2611.55847398764	3429
2613.69717995017	3441.5
2615.83528235339	3432.25
2617.97278148034	3435.75
2620.10967761398	3418.25
2622.2459710372	3457.5
2624.38166203284	3406.5
2626.51675088365	3420.75
2628.65123787231	3384.25
2630.78512328145	3391.25
2632.9184073936	3425.75
2635.05109049124	3386.25
2637.18317285676	3374.5
2639.31465477248	3385.25
2641.44553652067	3413.75
2643.5758183835	3355.5
2645.70550064309	3384.25
2647.83458358144	3385.75
2649.96306748053	3397
2652.09095262223	3367
2654.21823928836	3393.25
2656.34492776063	3362.75
2658.47101832071	3351.25
2660.59651125015	3380.5
2662.72140683047	3362.25
2664.84570534309	3318
2666.96940706934	3307
2669.0925122905	3332.25
2671.21502128773	3333.75
2673.33693434215	3330.75
2675.45825173479	3352.5
2677.57897374658	3346.5
2679.69910065839	3358.25
2681.818632751	3285
2683.93757030511	3328.75
2686.05591360133	3304
2688.17366292021	3311
2690.29081854218	3304
2692.40738074762	3253.5
2694.52334981681	3290.5
2696.63872602995	3257.75
2698.75350966713	3303.5
2700.86770100841	3308
2702.98130033371	3276
2705.09430792289	3248
2707.20672405571	3264
2709.31854901185	3291.75
2711.42978307091	3263.25
2713.54042651238	3281.5
2715.65047961567	3262.75
2717.7599426601	3274.75
2719.86881592491	3237.5
2721.97709968924	3267.25
2724.08479423213	3227.25
2726.19189983255	3204.75
2728.29841676934	3252.5
2730.4043453213	3278.75
2732.5096857671	3235.75
2734.61443838532	3241
2736.71860345444	3232.5
2738.82218125286	3217.5
2740.92517205889	3213.5
2743.02757615072	3261
2745.12939380646	3189.25
2747.23062530411	3200.5
2749.33127092159	3208
2751.4313309367	3200.75
2753.53080562716	3227.75
2755.62969527058	3217.25
2757.72800014448	3213.75
2759.82572052625	3210.5
2761.92285669323	3170.5
2764.0194089226	3203.5
2766.11537749147	3197.75
2768.21076267686	3220
2770.30556475566	3197.5
2772.39978400465	3184.75
2774.49342070054	3172
2776.58647511991	3200.25
2778.67894753923	3203.75
2780.77083823487	3191.75
2782.8621474831	3163.75
2784.95287556007	3175.75
2787.04302274184	3157
2789.13258930433	3178.75
2791.22157552338	3136
2793.30998167471	3156.25
2795.39780803392	3174.75
2797.4850548765	3185.25
2799.57172247786	3160.25
2801.65781111324	3167.75
2803.74332105781	3151.5
2805.82825258661	3136.5
2807.91260597457	3179.75
2809.9963814965	3138.5
2812.07957942711	3157.25
2814.16220004096	3152.25
2816.24424361252	3145.75
2818.32571041614	3191.75
2820.40660072604	3191.5
2822.48691481631	3177.5
2824.56665296098	3180.75
2826.64581543388	3177.75
2828.72440250876	3201
2830.80241445925	3191.75
2832.87985155885	3230.5
2834.95671408093	3240.25
2837.03300229875	3322.75
2839.10871648544	3399
2841.18385691399	3517.5
2843.25842385729	3614
2845.33241758808	3629.75
2847.40583837898	3694.25
2849.4786865025	3674
2851.550962231	3632.25
2853.6226658367	3599
2855.69379759173	3539.5
2857.76435776806	3494.25
2859.83434663753	3477.75
2861.90376447184	3458.75
2863.97261154259	3398.75
2866.0408881212	3417.25
2868.10859447901	3402.5
2870.17573088717	3434.5
2872.24229761673	3465.25
2874.30829493859	3488.25
2876.37372312352	3549.5
2878.43858244215	3675
2880.50287316496	3723
2882.56659556231	3710.25
2884.62974990439	3610.25
2886.69233646129	3528.75
2888.75435550293	3508.75
2890.81580729909	3502.5
2892.87669211941	3463.75
2894.93701023339	3502.75
2896.99676191039	3439.75
2899.05594741961	3459
2901.1145670301	3439.25
2903.1726210108	3376.75
2905.23010963045	3392
2907.28703315768	3398
2909.34339186096	3369.75
2911.39918600861	3353.25
2913.45441586879	3320.25
2915.50908170952	3380.25
2917.56318379867	3331.25
2919.61672240395	3366.75
2921.66969779291	3354.5
2923.72211023295	3342.25
2925.77395999134	3346.75
2927.82524733515	3374.75
2929.87597253132	3349.25
2931.92613584663	3335.25
2933.97573754769	3305.75
2936.02477790097	3266
2938.07325717276	3261.5
2940.1211756292	3256.75
2942.16853353626	3234.25
2944.21533115976	3235.25
2946.26156876536	3180.25
2948.30724661853	3187.25
2950.3523649846	3183.5
2952.39692412872	3153
2954.44092431587	3152
2956.48436581089	3163.75
2958.52724887843	3172.25
2960.56957378296	3134.25
2962.6113407888	3180
2964.65255016011	3141.75
2966.69320216083	3168.5
2968.73329705479	3152.5
2970.77283510559	3157
2972.81181657671	3157.75
2974.8502417314	3169.75
2976.88811083279	3159.75
2978.92542414378	3152.75
2980.96218192713	3132.75
2982.99838444541	3160
2985.034031961	3178.25
2987.06912473612	3170.75
2989.1036630328	3134.25
2991.13764711288	3155
2993.17107723804	3151.75
2995.20395366974	3149.5
2997.23627666931	3197.75
2999.26804649782	3179
3001.29926341624	3180
3003.32992768528	3220.25
3005.3600395655	3232.25
3007.38959931726	3226.5
3009.41860720076	3207.25
3011.44706347595	3239.75
3013.47496840263	3238.5
3015.50232224041	3236
3017.5291252487	3259.75
3019.5553776867	3217.75
3021.58107981344	3254.5
3023.60623188773	3262.25
3025.63083416822	3248.5
3027.65488691331	3290
3029.67839038125	3310.5
3031.70134483007	3259
3033.72375051759	3267
3035.74560770144	3254.75
3037.76691663907	3283.5
3039.78767758768	3280.75
3041.80789080431	3281.25
3043.82755654577	3273.75
3045.84667506867	3315
3047.8652466294	3300.25
3049.88327148418	3296.75
3051.90074988899	3277.25
3053.91768209961	3287.25
3055.9340683716	3264.5
3057.94990896033	3272.75
3059.96520412095	3302
3061.97995410838	3286.5
3063.99415917734	3322
3066.00781958234	3307.5
3068.02093557766	3297.25
3070.03350741738	3279.75
3072.04553535535	3279
3074.05701964521	3276.25
3076.06796054036	3279.5
3078.078358294	3295.75
3080.08821315912	3303
3082.09752538846	3342.5
3084.10629523454	3283.5
3086.11452294967	3316.75
3088.12220878592	3240.75
3090.12935299515	3289.25
3092.13595582898	3265.75
3094.1420175388	3292
3096.14753837579	3308.5
3098.15251859088	3309.5
3100.15695843477	3300.5
3102.16085815793	3264.25
3104.16421801061	3261.75
3106.16703824282	3322.75
3108.16931910432	3284.25
3110.17106084464	3312
3112.17226371308	3327.75
3114.17292795872	3325
3116.17305383034	3313.25
3118.17264157657	3330
3120.17169144571	3305.75
3122.17020368587	3308.25
3124.16817854492	3320.25
3126.16561627044	3338
3128.16251710982	3351.5
3130.15888131017	3330.75
3132.15470911837	3359
3134.15000078104	3340.75
3136.14475654455	3321.25
3138.13897665502	3355.75
3140.13266135835	3332.25
3142.12581090014	3380.75
3144.11842552577	3380.5
3146.11050548036	3399.75
3148.10205100875	3387.5
3150.09306235557	3391.25
3152.08353976515	3387.75
3154.07348348158	3340.5
3156.06289374869	3349
3158.05177081006	3356.75
3160.04011490899	3393.25
3162.02792628852	3401
3164.01520519145	3334.75
3166.00195186029	3350
3167.98816653728	3394.75
3169.97384946442	3399
3171.95900088344	3367
3173.94362103577	3413.75
3175.92771016259	3404.75
3177.91126850484	3396.5
3179.89429630312	3387
3181.87679379782	3368.5
3183.85876122903	3440.5
3185.84019883657	3422.5
3187.82110685997	3440.75
3189.80148553851	3421
3191.78133511116	3407.75
3193.76065581664	3412.25
3195.73944789337	3439.5
3197.7177115795	3394
3199.6954471129	3418.25
3201.67265473114	3448.5
3203.64933467153	3416.75
3205.62548717107	3464.5
3207.60111246648	3452.75
3209.57621079421	3452
3211.55078239041	3420.5
3213.52482749093	3465.25
3215.49834633133	3454.25
3217.4713391469	3451.75
3219.44380617262	3448.75
3221.41574764317	3497.25
3223.38716379296	3460.75
3225.35805485607	3489.75
3227.32842106631	3479.25
3229.29826265718	3508.5
3231.26757986187	3506.5
3233.2363729133	3518
3235.20464204405	3534.25
3237.17238748643	3554.75
3239.13960947243	3539.5
3241.10630823374	3565
3243.07248400174	3533
3245.03813700748	3566.25
3247.00326748177	3538.25
3248.96787565503	3540
3250.93196175742	3553
3252.89552601877	3583.75
3254.8585686686	3544.25
3256.82108993612	3589.25
3258.78309005022	3590
3260.74456923948	3565
3262.70552773215	3583.25
3264.66596575617	3614
3266.62588353916	3566.25
3268.58528130843	3606.5
3270.54415929094	3594.25
3272.50251771336	3608
3274.46035680201	3605.25
3276.4176767829	3631.5
3278.37447788171	3547.5
3280.33076032379	3600.75
3282.28652433416	3609
3284.24177013751	3607.75
3286.1964979582	3615.75
3288.15070802027	3606
3290.10440054741	3594.25
3292.05757576298	3598.5
3294.01023389001	3608
3295.96237515119	3645.5
3297.91399976887	3616.5
3299.86510796506	3592
3301.81569996142	3637.75
3303.76577597932	3642.25
3305.7153362397	3641.5
3307.66438096324	3627.25
3309.61291037024	3634.75
3311.56092468064	3650.25
3313.50842411404	3627.25
3315.45540888971	3656.25
3317.40187922656	3657.5
3319.34783534315	3648.25
3321.29327745768	3656.25
3323.23820578801	3618
3325.18262055164	3633.75
3327.1265219657	3590.5
3329.06991024699	3599.75
3331.01278561194	3667.75
3332.95514827662	3651.75
3334.89699845674	3663.25
3336.83833636766	3614.75
3338.77916222434	3598.5
3340.71947624143	3636
3342.65927863317	3668.5
3344.59856961346	3646.5
3346.53734939584	3630.25
3348.47561819344	3644.25
3350.41337621906	3624
3352.35062368513	3662.25
3354.28736080368	3640.25
3356.22358778637	3624.25
3358.15930484452	3640.25
3360.09451218904	3655
3362.02921003047	3697.75
3363.96339857898	3694.75
3365.89707804436	3651.25
3367.83024863602	3636.75
3369.76291056299	3611.5
3371.69506403389	3667.75
3373.62670925699	3658
3375.55784644016	3696.75
3377.4884757909	3637.25
3379.41859751629	3688.5
3381.34821182305	3683.5
3383.27731891749	3656.5
3385.20591900555	3685
3387.13401229276	3707.25
3389.06159898426	3681
3390.9886792848	3707.5
3392.91525339872	3690.5
3394.84132152998	3749.25
3396.76688388213	3729.25
3398.69194065833	3695.75
3400.61649206133	3698.25
3402.54053829348	3703.5
3404.46407955672	3659.75
3406.3871160526	3694.25
3408.30964798225	3725.5
3410.23167554639	3715.25
3412.15319894535	3722.25
3414.07421837904	3702.75
3415.99473404695	3731.75
3417.91474614817	3760.5
3419.83425488136	3745.75
3421.75326044479	3735.25
3423.67176303631	3730.25
3425.58976285332	3745
3427.50726009282	3694.25
3429.42425495143	3746
3431.34074762528	3730.75
3433.25673831012	3675.5
3435.17222720127	3700
3437.08721449362	3716.5
3439.00170038164	3690
3440.91568505936	3730.25
3442.82916872039	3713.75
3444.74215155791	3744.5
3446.65463376468	3682.5
3448.566615533	3712.5
3450.47809705476	3735.5
3452.3890785214	3714
3454.29956012393	3709.5
3456.20954205293	3736.5
3458.11902449853	3711
3460.02800765041	3680.75
3461.93649169784	3680.5
3463.84447682962	3706.75
3465.75196323412	3695.75
3467.65895109925	3706.75
3469.56544061249	3718
3471.47143196086	3643.75
3473.37692533093	3712
3475.28192090884	3667
3477.18641888026	3702.5
3479.09041943039	3691.75
3480.99392274402	3729.75
3482.89692900545	3684.25
3484.79943839853	3709.75
3486.70145110666	3714.75
3488.60296731277	3666.75
3490.50398719933	3730.75
3492.40451094836	3660
3494.30453874141	3714.75
3496.20407075956	3701
3498.10310718342	3727.75
3500.00164819315	3704