201.866871357051	1018.75
204.754250281454	1018.25
207.640596790938	1029
210.525911876299	1030
213.410196525689	1032.75
216.293451724508	1030.25
219.175678455485	1036.75
222.056877698662	1027.75
224.937050431388	1029.25
227.816197628363	1049
230.694320261602	1032.25
233.571419300504	1030.5
236.447495711764	1024.25
239.322550459507	1042.5
242.196584505182	1046.25
245.069598807626	1052.5
247.941594323078	1040.25
250.812572005154	1055.5
253.682532804884	1060
256.551477670699	1062.25
259.419407548456	1052
262.286323381439	1047
265.152226110364	1045.5
268.017116673389	1049.5
270.880996006115	1068
273.743865041622	1055
276.605724710436	1067.75
279.466575940562	1065
282.326419657496	1060
285.1852567842	1050.5
288.043088241157	1075.25
290.899914946349	1061.25
293.75573781526	1078.75
296.610557760898	1063.5
299.464375693817	1081.75
302.317192522078	1068.5
305.169009151297	1081
308.019826484655	1082.25
310.86964542287	1067.5
313.718466864233	1068.75
316.566291704614	1085.75
319.413120837457	1087.5
322.258955153804	1078
325.103795542291	1080.25
327.947642889128	1077
330.79049807819	1076.25
333.632361990927	1075.5
336.473235506444	1079.25
339.31311950145	1084.25
342.152014850322	1081.75
344.989922425062	1085.75
347.826843095354	1088
350.662777728528	1099.5
353.497727189577	1098.25
356.331692341195	1095.75
359.164674043732	1088.5
361.996673155267	1090.75
364.827690531536	1092.5
367.65772702602	1101.5
370.486783489887	1104
373.314860772047	1104.5
376.14195971912	1107.75
378.968081175466	1099.25
381.793225983212	1110.25
384.617394982201	1111.75
387.44058901005	1110.75
390.262808902131	1122.25
393.08405549161	1106.5
395.904329609395	1112.5
398.723632084213	1089.25
401.541963742569	1130
404.359325408779	1123
407.175717904938	1112.5
409.991142050982	1129.25
412.805598664665	1124.75
415.619088561551	1126.25
418.43161255505	1125.5
421.243171456415	1125.75
424.053766074758	1126.5
426.863397217017	1136.75
429.672065688024	1120.5
432.479772290455	1135.5
435.286517824879	1143.5
438.092303089736	1143.75
440.897128881359	1142.75
443.70099599399	1138.5
446.503905219761	1133.25
449.305857348711	1139.75
452.106853168796	1128
454.906893465919	1140.75
457.705979023885	1140.5
460.504110624439	1122.75
463.3012890473	1132.5
466.097515070087	1143.5
468.892789468424	1137.5
471.687113015869	1122.75
474.48048648395	1127.5
477.272910642198	1153
480.064386258109	1136.75
482.854914097159	1153.25
485.644494922839	1135.5
488.433129496636	1149.75
491.220818578047	1152.75
494.007562924584	1156.25
496.793363291785	1169.5
499.578220433217	1163.75
502.362135100473	1146
505.145108043209	1166.5
507.927140009098	1155
510.708231743909	1162
513.488383991433	1166.5
516.267597493556	1178.75
519.04587299022	1170.25
521.82321121946	1163
524.599612917398	1171.75
527.375078818233	1162.5
530.149609654287	1163
532.923206155967	1175.75
535.695869051804	1166.25
538.467599068448	1165.5
541.238396930665	1178.5
544.008263361364	1162.25
546.777199081578	1167
549.545204810493	1171.75
552.312281265436	1141.25
555.078429161898	1165
557.843649213533	1182.25
560.607942132156	1150
563.371308627753	1155.5
566.133749408495	1172.25
568.895265180756	1177.25
571.655856649064	1185.25
574.415524516189	1189.75
577.174269483075	1183.75
579.932092248884	1199
582.688993510994	1167.25
585.444973965023	1200
588.200034304795	1191
590.95417522237	1185
593.70739740807	1186.25
596.459701550433	1182.5
599.21108833628	1195.5
601.961558450668	1167.75
604.711112576933	1184.75
607.459751396673	1179.25
610.207475589748	1184.75
612.954285834338	1179.5
615.700182806879	1179
618.445167182101	1176.75
621.189239633055	1181.25
623.932400831087	1186
626.674651445839	1175.75
629.415992145303	1196
632.156423595745	1170.5
634.895946461813	1164.5
637.634561406449	1172.25
640.37226909096	1172.5
643.109070174978	1161
645.844965316508	1191.75
648.579955171888	1181
651.314040395846	1176.25
654.047221641456	1169.25
656.779499560176	1176
659.510874801828	1191
662.241348014642	1189.75
664.97091984524	1174.5
667.699590938606	1187.5
670.427361938164	1178.75
673.15423348573	1189.25
675.880206221526	1193.5
678.605280784206	1180
681.329457810829	1192.5
684.05273793692	1191.25
686.775121796389	1190.25
689.49661002163	1186.5
692.217203243454	1183.5
694.936902091144	1180.75
697.655707192425	1178
700.373619173493	1185.25
703.09063865901	1204.75
705.806766272093	1188.75
708.522002634378	1208
711.236348365946	1200.25
713.94980408538	1179
716.662370409762	1181
719.374047954676	1184.25
722.08483733419	1188
724.794739160909	1181.5
727.503754045949	1190
730.21188259892	1195
732.919125427998	1180.75
735.625483139855	1198
738.330956339723	1185.75
741.035545631374	1194.75
743.739251617106	1186.75
746.44207489779	1200.75
749.144016072852	1204.75
751.845075740272	1212.25
754.545254496603	1177.25
757.244552936976	1203
759.94297165508	1206.5
762.640511243222	1188
765.337172292249	1211.25
768.032955391649	1193.5
770.727861129482	1214
773.421890092413	1196.25
776.11504286572	1210.25
778.807320033298	1204
781.49872217765	1197.5
784.18924987991	1202.25
786.87890371984	1212
789.567684275826	1223
792.255592124908	1187.75
794.94262784276	1197.5
797.628792003703	1204.75
800.314085180715	1193.75
802.998507945427	1192.75
805.682060868145	1208.75
808.364744517821	1193
811.046559462105	1220.25
813.727506267311	1206.75
816.407585498422	1200
819.08679771913	1211.75
821.765143491822	1209
824.442623377563	1213.25
827.119237936127	1213
829.794987726003	1206.75
832.469873304377	1195.25
835.143895227167	1215.5
837.817054048985	1229.5
840.489350323205	1238.5
843.160784601892	1219.25
845.831357435894	1226.75
848.501069374739	1233.75
851.169920966753	1213.25
853.837912758987	1229.5
856.505045297232	1224.5
859.171319126071	1243.25
861.836734788823	1246
864.501292827579	1231.25
867.164993783208	1232.75
869.827838195361	1207.5
872.489826602454	1242.5
875.150959541701	1240.25
877.811237549104	1225
880.470661159456	1236
883.129230906357	1228.25
885.786947322205	1226
888.443810938206	1229.75
891.099822284385	1238.5
893.754981889586	1217.25
896.409290281452	1225.25
899.062747986485	1236.75
901.715355529999	1234
904.367113436154	1239.75
907.01802222793	1245.75
909.668082427172	1238.5
912.317294554574	1249
914.965659129659	1242.25
917.613176670835	1235.75
920.259847695364	1243
922.90567271936	1238.5
925.550652257825	1217.75
928.194786824621	1235.75
930.838076932512	1251
933.480523093109	1228.75
936.122125816953	1250.5
938.762885613447	1244
941.402802990899	1251
944.041878456523	1256
946.680112516428	1252.75
949.31750567563	1244.75
951.954058438081	1247
954.589771306633	1254
957.224644783048	1266
959.858679368044	1247
962.491875561238	1260.25
965.12423386121	1264.75
967.75575476545	1248.5
970.386438770423	1264
973.016286371501	1249.25
975.645298063046	1245.5
978.273474338355	1248.75
980.900815689674	1256
983.527322608243	1242.75
986.152995584245	1250.25
988.777835106834	1244
991.401841664148	1267.75
994.025015743307	1252.5
996.647357830407	1266.5
999.268868410534	1263
1001.88954796777	1256
1004.50939698518	1274.5
1007.12841594484	1289.25
1009.74660532783	1269.25
1012.36396561423	1286.25
1014.98049728314	1270.5
1017.59620081267	1278.75
1020.21107667995	1276
1022.82512536112	1284.25
1025.43834733138	1287
1028.05074306493	1284
1030.66231303501	1294.75
1033.27305771392	1296.75
1035.88297757299	1290.75
1038.49207308257	1282.5
1041.10034471211	1300.75
1043.70779293008	1307
1046.31441820402	1323.5
1048.92022100052	1298.5
1051.52520178525	1324.25
1054.12936102295	1337.75
1056.73269917742	1392
1059.33521671154	1432.25
1061.93691408729	1475.25
1064.53779176571	1452
1067.13785020694	1394.5
1069.73708987022	1360.25
1072.33551121386	1343.5
1074.93311469528	1323
1077.52990077103	1333.25
1080.12586989674	1329.75
1082.72102252714	1318.25
1085.31535911611	1343.5
1087.90888011663	1330
1090.50158598078	1344.5
1093.09347715979	1323.75
1095.68455410403	1327.5
1098.27481726296	1315.25
1100.86426708523	1330.5
1103.45290401857	1316.75
1106.04072850991	1320
1108.6277410053	1323
1111.21394194993	1316
1113.79933178816	1327.25
1116.3839109635	1365
1118.96767991862	1357
1121.55063909539	1394.75
1124.13278893477	1442.25
1126.71412987696	1503
1129.29466236132	1510
1131.87438682637	1475.75
1134.45330370982	1430.5
1137.03141344858	1368.5
1139.60871647872	1368.25
1142.18521323554	1350
1144.7609041535	1355
1147.33578966629	1349.25
1149.90987020676	1346.25
1152.48314620702	1366.75
1155.05561809835	1355.5
1157.62728631125	1338
1160.19815127545	1343
1162.76821341988	1359.5
1165.33747317271	1354.25
1167.90593096133	1382
1170.47358721235	1386.5
1173.04044235163	1372
1175.60649680425	1354.25
1178.17175099454	1347
1180.73620534607	1371.25
1183.29986028165	1344.5
1185.86271622336	1347.25
1188.42477359249	1341.5
1190.98603280964	1341.75
1193.54649429462	1343.25
1196.10615846653	1347.75
1198.66502574372	1345.75
1201.22309654385	1334.5
1203.78037128378	1359.25
1206.33685037971	1357.25
1208.89253424709	1343.5
1211.44742330063	1351.75
1214.00151795438	1341.75
1216.55481862163	1340.25
1219.10732571497	1362.25
1221.65903964631	1341
1224.20996082683	1370.5
1226.760089667	1369.5
1229.30942657664	1373.5
1231.85797196483	1359.5
1234.40572623998	1374
1236.95268980981	1385.25
1239.49886308136	1382.75
1242.04424646098	1368.25
1244.58884035435	1397.5
1247.13264516647	1407.5
1249.67566130166	1407.75
1252.21788916358	1390
1254.75932915524	1407
1257.29998167896	1428.25
1259.83984713639	1424
1262.37892592857	1431
1264.91721845586	1424.5
1267.45472511795	1420.25
1269.9914463139	1452.25
1272.52738244213	1429.5
1275.0625339004	1442.75
1277.59690108587	1456
1280.130484395	1456.75
1282.66328422367	1457.25
1285.19530096712	1506
1287.72653501993	1509
1290.25698677608	1596.25
1292.78665662894	1704.25
1295.31554497125	1720
1297.8436521951	1642
1300.37097869203	1586.25
1302.89752485292	1530
1305.42329106805	1516.75
1307.94827772713	1500.75
1310.47248521921	1512.5
1312.99591393279	1531
1315.51856425575	1505.75
1318.04043657536	1505.75
1320.56153127836	1511.75
1323.08184875083	1508.75
1325.6013893783	1506.25
1328.12015354572	1520.5
1330.63814163744	1511
1333.15535403727	1517
1335.67179112839	1539
1338.18745329347	1534.25
1340.70234091454	1538
1343.21645437314	1533
1345.72979405019	1551.25
1348.24236032607	1564
1350.75415358059	1569
1353.26517419303	1563.5
1355.7754225421	1570.25
1358.28489900594	1589.25
1360.79360396218	1607.5
1363.30153778787	1580.75
1365.80870085955	1589.25
1368.31509355319	1629.25
1370.82071624424	1621
1373.32556930762	1613
1375.8296531177	1597.5
1378.33296804832	1618
1380.83551447282	1607.75
1383.33729276399	1618.5
1385.83830329408	1623.75
1388.33854643489	1625.5
1390.83802255762	1613
1393.33673203301	1615.25
1395.83467523128	1622.25
1398.33185252211	1611.25
1400.82826427471	1647.25
1403.32391085777	1663
1405.81879263947	1663.75
1408.31290998752	1681.5
1410.80626326908	1700.25
1413.29885285087	1745.25
1415.79067909909	1779.25
1418.28174237944	1781.75
1420.77204305717	1779.25
1423.26158149702	1759.75
1425.75035806323	1778.5
1428.2383731196	1801.25
1430.72562702942	1836
1433.21212015554	1886.75
1435.69785286028	1964.25
1438.18282550555	2014.25
1440.66703845275	2002
1443.15049206284	1997.25
1445.6331866963	1973.25
1448.11512271316	1954
1450.59630047298	1949
1453.07672033486	1999.5
1455.55638265748	2022
1458.03528779902	2015.25
1460.51343611725	2025.25
1462.99082796946	2040.75
1465.46746371252	2020.25
1467.94334370285	2017.5
1470.41846829642	2020.75
1472.89283784878	2010
1475.36645271503	2001
1477.83931324983	2016.5
1480.31141980743	2022
1482.78277274164	2060.75
1485.25337240583	2028.75
1487.72321915297	2032.75
1490.19231333557	2047.75
1492.66065530578	2043.5
1495.12824541525	2062.25
1497.5950840153	2095.75
1500.06117145678	2088
1502.52650809014	2115.25
1504.99109426543	2115.5
1507.45493033227	2113.75
1509.91801663992	2133.5
1512.38035353717	2143.75
1514.84194137248	2164
1517.30278049386	2196.5
1519.76287124894	2194.5
1522.22221398497	2222.75
1524.68080904876	2220.5
1527.13865678681	2256.75
1529.59575754514	2251.5
1532.05211166945	2306.5
1534.50771950503	2306
1536.96258139678	2330.75
1539.41669768924	2378
1541.87006872656	2370
1544.32269485252	2390.25
1546.77457641051	2417
1549.22571374357	2438.25
1551.67610719434	2440.5
1554.12575710513	2474.5
1556.57466381785	2489.75
1559.02282767408	2532
1561.47024901499	2538.75
1563.91692818144	2571.75
1566.3628655139	2559.5
1568.80806135249	2589.25
1571.252516037	2586.25
1573.6962299068	2664.5
1576.13920330099	2669.25
1578.58143655828	2704.75
1581.02293001704	2687.25
1583.46368401528	2731.25
1585.90369889071	2727.25
1588.34297498065	2754.5
1590.7815126221	2783.25
1593.21931215173	2795.25
1595.65637390588	2822
1598.09269822053	2847.5
1600.52828543135	2847.75
1602.96313587367	2848.5
1605.3972498825	2861.25
1607.83062779252	2864
1610.26326993808	2873
1612.69517665322	2904.25
1615.12634827165	2902.5
1617.55678512676	2884
1619.98648755163	2915.75
1622.41545587902	2943.25
1624.84369044138	2958.5
1627.27119157085	2985.75
1629.69795959924	3023.25
1632.12399485808	2960.75
1634.54929767859	3025.25
1636.97386839165	3040
1639.39770732789	3007.75
1641.8208148176	3035.5
1644.24319119078	3077
1646.66483677715	3084.5
1649.0857519061	3082.75
1651.50593690677	3108.75
1653.92539210795	3155.25
1656.3441178382	3141.75
1658.76211442575	3136.5
1661.17938219855	3176.75
1663.59592148428	3213.75
1666.01173261032	3225
1668.42681590377	3262
1670.84117169145	3268.75
1673.25480029991	3283.75
1675.66770205541	3261.5
1678.07987728393	3295.5
1680.49132631119	3361
1682.90204946263	3350.5
1685.31204706342	3331.25
1687.72131943846	3382.5
1690.1298669124	3403.75
1692.53768980957	3434.25
1694.94478845411	3416.75
1697.35116316982	3415
1699.75681428031	3446
1702.16174210887	3450
1704.56594697858	3483.25
1706.96942921222	3509
1709.37218913235	3497.75
1711.77422706125	3515.5
1714.17554332098	3513.25
1716.5761382333	3542.5
1718.97601211977	3560.75
1721.37516530169	3551.25
1723.77359810006	3561.5
1726.17131083572	3587.75
1728.56830382922	3605.75
1730.96457740087	3578.75
1733.36013187075	3600.25
1735.75496755868	3622
1738.14908478428	3614
1740.54248386689	3636
1742.93516512565	3638.25
1745.32712887946	3677
1747.71837544697	3656.25
1750.10890514662	3724.5
1752.49871829661	3707.75
1754.88781521492	3716.25
1757.27619621929	3754
1759.66386162726	3775.5
1762.05081175612	3774
1764.43704692297	3806
1766.82256744465	3824.5
1769.20737363782	3869.75
1771.59146581887	3833.25
1773.97484430405	3920.5
1776.35750940932	3921.75
1778.73946145048	3909.25
1781.12070074309	3953.75
1783.50122760249	3963.75
1785.88104234385	4001.25
1788.26014528209	4060.25
1790.63853673196	4049
1793.01621700796	4121.75
1795.39318642443	4135.75
1797.76944529549	4137.5
1800.14499393503	4145.25
1802.51983265681	4127
1804.8939617743	4195.75
1807.26738160085	4229
1809.64009244957	4259.25
1812.01209463339	4266.75
1814.38338846504	4308.25
1816.75397425706	4269.25
1819.12385232181	4322.25
1821.49302297142	4354.25
1823.86148651789	4369
1826.22924327299	4340.25
1828.59629354831	4386.5
1830.96263765526	4373.75
1833.32827590507	4374.25
1835.69320860877	4453.5
1838.05743607724	4439.5
1840.42095862113	4462
1842.78377655097	4443.25
1845.14589017707	4471.5
1847.50729980956	4498.75
1849.86800575843	4502.75
1852.22800833346	4536.75
1854.58730784427	4540.75
1856.94590460032	4634.25
1859.30379891087	4644.25
1861.66099108503	4629.75
1864.01748143175	4673
1866.37327025978	4665.75
1868.72835787773	4681
1871.08274459403	4732.25
1873.43643071697	4727
1875.78941655464	4819.75
1878.14170241498	4785.25
1880.4932886058	4806.5
1882.84417543469	4832.75
1885.19436320915	4831
1887.54385223646	4831.75
1889.89264282378	4915.5
1892.24073527809	4953
1894.58812990625	4933.75
1896.93482701493	5029.5
1899.28082691067	5003.25
1901.62612989984	5064.75
1903.97073628868	5037.5
1906.31464638326	5057.75
1908.6578604895	5076.25
1911.00037891321	5125.5
1913.34220196	5155.5
1915.68332993537	5177.5
1918.02376314468	5207.75
1920.36350189311	5169.75
1922.70254648573	5196.5
1925.04089722744	5155.25
1927.37855442303	5166
1929.71551837715	5157.75
1932.05178939426	5154.25
1934.38736777876	5201.25
1936.72225383484	5186.75
1939.0564478666	5303.25
1941.38995017799	5209.5
1943.72276107283	5253.25
1946.05488085479	5229.25
1948.38630982744	5211
1950.71704829419	5277.5
1953.04709655832	5236
1955.376454923	5195.75
1957.70512369126	5241.5
1960.03310316599	5278.25
1962.36039364999	5234
1964.68699544589	5234.75
1967.01290885622	5274.75
1969.33813418338	5267.25
1971.66267172965	5281
1973.98652179718	5317
1976.309684688	5317.5
1978.63216070402	5341.5
1980.95395014705	5373
1983.27505331873	5328.75
1985.59547052063	5374.25
1987.9152020542	5418.25
1990.23424822074	5416.75
1992.55260932146	5400.5
1994.87028565746	5442
1997.18727752968	5432
1999.503585239	5461.75
2001.81920908618	5483.75
2004.13414937184	5526.5
2006.44840639651	5577.25
2008.7619804606	5588
2011.07487186442	5615
2013.38708090815	5712
2015.6986078919	5632.75
2018.00945311564	5660.75
2020.31961687923	5714.5
2022.62909948246	5695.75
2024.93790122498	5776
2027.24602240636	5761.5
2029.55346332604	5817
2031.86022428337	5754.5
2034.16630557761	5847.25
2036.47170750791	5826.5
2038.77643037331	5895.5
2041.08047447275	5898.75
2043.38384010509	5836.75
2045.68652756907	5938.75
2047.98853716335	5953
2050.28986918648	5971.25
2052.59052393692	5958
2054.89050171302	6025
2057.18980281306	6021.75
2059.4884275352	6038
2061.78637617753	6048.25
2064.08364903802	6003
2066.38024641457	6040.5
2068.67616860497	6080.75
2070.97141590694	6078.25
2073.26598861809	6099.5
2075.55988703595	6081
2077.85311145796	6088
2080.14566218145	6159
2082.43753950371	6144.25
2084.72874372188	6155.75
2087.01927513307	6185
2089.30913403428	6161
2091.59832072241	6204.75
2093.88683549429	6192.5
2096.17467864666	6233.5
2098.46185047619	6283.25
2100.74835127944	6322.5
2103.03418135292	6310
2105.31934099303	6294.5
2107.6038304961	6311.75
2109.88765015838	6346.25
2112.17080027602	6403.5
2114.45328114513	6415
2116.7350930617	6424.25
2119.01623632165	6396
2121.29671122085	6399.75
2123.57651805505	6456.25
2125.85565711996	6546.5
2128.13412871117	6517.25
2130.41193312424	6564.25
2132.68907065462	6591.5
2134.96554159771	6602
2137.24134624881	6593.25
2139.51648490317	6638
2141.79095785593	6665.75
2144.0647654022	6670.25
2146.33790783698	6685.75
2148.61038545524	6669.25
2150.88219855182	6704.75
2153.15334742154	6673
2155.42383235911	6731.75
2157.6936536592	6671
2159.9628116164	6733.5
2162.23130652522	6725.25
2164.49913868011	6681.75
2166.76630837544	6713.25
2169.03281590552	6786.75
2171.2986615646	6720.75
2173.56384564685	6731.5
2175.82836844637	6712.5
2178.0922302572	6718
2180.35543137332	6757.5
2182.61797208862	6720.25
2184.87985269695	6698
2187.14107349208	6688
2189.40163476773	6768.75
2191.66153681753	6653.25
2193.92077993507	6644.25
2196.17936441386	6651.5
2198.43729054735	6642
2200.69455862894	6648.5
2202.95116895194	6582
2205.20712180962	6631.5
2207.46241749519	6538.5
2209.71705630179	6617.75
2211.97103852248	6569.25
2214.2243644503	6514.75
2216.47703437819	6514
2218.72904859905	6443.75
2220.98040740571	6525.75
2223.23111109095	6482.25
2225.4811599475	6479.25
2227.73055426799	6447.75
2229.97929434504	6462.5
2232.22738047118	6422.5
2234.47481293889	6430.5
2236.72159204058	6438
2238.96771806864	6373.75
2241.21319131536	6312.75
2243.458012073	6308.25
2245.70218063374	6341.5
2247.94569728973	6311.25
2250.18856233304	6231.5
2252.4307760557	6215
2254.67233874967	6274.25
2256.91325070687	6203.75
2259.15351221915	6174.25
2261.39312357831	6149
2263.63208507611	6151.25
2265.87039700422	6139.25
2268.1080596543	6127
2270.34507331792	6124.75
2272.5814382866	6020
2274.81715485183	6037
2277.05222330502	6081.75
2279.28664393755	6036
2281.52041704072	6041
2283.75354290581	5940.75
2285.98602182401	5911.5
2288.21785408648	5902.5
2290.44903998434	5904.25
2292.67957980862	5893.5
2294.90947385033	5785
2297.1387224004	5854.5
2299.36732574975	5850.75
2301.59528418921	5781.5
2303.82259800958	5808.75
2306.04926750158	5712.25
2308.27529295593	5703.75
2310.50067466325	5735.5
2312.72541291412	5697.75
2314.9495079991	5668.75
2317.17296020866	5640.25
2319.39576983323	5633.5
2321.61793716322	5589
2323.83946248894	5519
2326.06034610069	5579.75
2328.28058828871	5571
2330.50018934317	5526.5
2332.7191495542	5512.75
2334.93746921192	5446.75
2337.15514860633	5457
2339.37218802743	5407
2341.58858776516	5377.25
2343.80434810941	5362.5
2346.01946935001	5434.25
2348.23395177675	5360.25
2350.44779567939	5383
2352.66100134759	5291.75
2354.87356907101	5313.25
2357.08549913925	5252
2359.29679184185	5238.75
2361.50744746829	5294
2363.71746630804	5251
2365.92684865048	5147.25
2368.13559478499	5155.25
2370.34370500083	5186.75
2372.55117958727	5157.75
2374.75801883352	5089.25
2376.96422302874	5103.25
2379.16979246202	5099.5
2381.37472742243	5048.75
2383.57902819898	5072.5
2385.78269508063	4979.5
2387.98572835629	5013
2390.18812831482	4993.25
2392.38989524505	4947
2394.59102943573	4935.75
2396.79153117559	4966.5
2398.9914007533	4923.5
2401.19063845748	4931
2403.38924457672	4859.25
2405.58721939951	4869.25
2407.78456321435	4821
2409.98127630966	4868
2412.17735897382	4849
2414.37281149517	4839
2416.56763416198	4811.5
2418.76182726249	4774.25
2420.95539108487	4820.25
2423.14832591726	4751.5
2425.34063204776	4785.75
2427.53230976439	4720.75
2429.72335935513	4736
2431.91378110795	4727.25
2434.10357531071	4726
2436.29274225125	4698.25
2438.48128221739	4639.5
2440.66919549683	4651.5
2442.8564823773	4669.75
2445.04314314641	4624
2447.22917809176	4622.75
2449.4145875009	4643.5
2451.59937166131	4587
2453.78353086044	4563.5
2455.96706538568	4566.5
2458.14997552436	4536
2460.33226156379	4508
2462.51392379119	4497.75
2464.69496249376	4415
2466.87537795862	4475.5
2469.05517047288	4478.75
2471.23434032357	4463
2473.41288779767	4432.25
2475.59081318211	4419.75
2477.76811676378	4426
2479.9447988295	4416
2482.12085966605	4343.75
2484.29629956016	4353.75
2486.4711187985	4320
2488.64531766769	4378.75
2490.8188964543	4386.5
2492.99185544484	4358
2495.16419492579	4320.75
2497.33591518353	4337.25
2499.50701650444	4277.5
2501.67749917482	4316
2503.84736348091	4290
2506.01660970891	4269.75
2508.18523814496	4249.25
2510.35324907514	4241.5
2512.52064278551	4226.75
2514.68741956201	4226.75
2516.85357969058	4293.75
2519.01912345709	4247
2521.18405114735	4209
2523.34836304711	4199.25
2525.51205944208	4211
2527.6751406179	4198
2529.83760686016	4216
2531.99945845439	4167.75
2534.16069568606	4198.5
2536.3213188406	4144.75
2538.48132820336	4143.5
2540.64072405965	4170.5
2542.79950669471	4111.5
2544.95767639373	4182.5
2547.11523344184	4139.75
2549.27217812411	4126.5
2551.42851072555	4113.5
2553.58423153111	4087
2555.73934082569	4066
2557.89383889412	4062.25
2560.04772602118	4043.5
2562.20100249158	4034.75
2564.35366858996	4009.75
2566.50572460093	4024
2568.65717080901	3952
2570.80800749867	3998.25
2572.95823495433	3986.25
2575.10785346031	3983.5
2577.25686330093	3938.25
2579.40526476038	3916.75
2581.55305812282	3925.75
2583.70024367237	3898
2585.84682169303	3909.5
2587.99279246879	3847
2590.13815628354	3863.75
2592.28291342112	3886
2594.42706416531	3837
2596.5706087998	3835
2598.71354760826	3853
2600.85588087425	3856
2602.99760888127	3799.75
2605.13873191278	3771.5
2607.27925025214	3778.25
2609.41916418269	3795.75
2611.55847398764	3814.25
2613.69717995017	3778.5
2615.83528235339	3787
2617.97278148034	3773.25
2620.10967761398	3763.75
2622.2459710372	3761.25
2624.38166203284	3762.5
2626.51675088365	3732.75
2628.65123787231	3696.75
2630.78512328145	3750
2632.9184073936	3727.75
2635.05109049124	3714.75
2637.18317285676	3729
2639.31465477248	3733.5
2641.44553652067	3723.75
2643.5758183835	3696.75
2645.70550064309	3711
2647.83458358144	3681
2649.96306748053	3725.5
2652.09095262223	3702.25
2654.21823928836	3718
2656.34492776063	3674.25
2658.47101832071	3693
2660.59651125015	3723
2662.72140683047	3667
2664.84570534309	3675.75
2666.96940706934	3645.75
2669.0925122905	3632.75
2671.21502128773	3653.75
2673.33693434215	3658.5
2675.45825173479	3684
2677.57897374658	3631
2679.69910065839	3668.5
2681.818632751	3659.25
2683.93757030511	3645.25
2686.05591360133	3667
2688.17366292021	3621.25
2690.29081854218	3636.5
2692.40738074762	3614
2694.52334981681	3636.75
2696.63872602995	3599
2698.75350966713	3651.25
2700.86770100841	3649
2702.98130033371	3609.75
2705.09430792289	3638.25
2707.20672405571	3677.5
2709.31854901185	3701.5
2711.42978307091	3669
2713.54042651238	3684.5
2715.65047961567	3751.25
2717.7599426601	3718.25
2719.86881592491	3687.5
2721.97709968924	3705.5
2724.08479423213	3705.25
2726.19189983255	3672.25
2728.29841676934	3640
2730.4043453213	3685
2732.5096857671	3665.75
2734.61443838532	3596.75
2736.71860345444	3632.75
2738.82218125286	3593.5
2740.92517205889	3607.25
2743.02757615072	3626.75
2745.12939380646	3576.5
2747.23062530411	3607.25
2749.33127092159	3567.5
2751.4313309367	3579.25
2753.53080562716	3575
2755.62969527058	3556.5
2757.72800014448	3568.25
2759.82572052625	3568.75
2761.92285669323	3557.5
2764.0194089226	3559.25
2766.11537749147	3564.5
2768.21076267686	3575.25
2770.30556475566	3571.75
2772.39978400465	3569
2774.49342070054	3543.25
2776.58647511991	3607.75
2778.67894753923	3564.5
2780.77083823487	3585.75
2782.8621474831	3557
2784.95287556007	3532.75
2787.04302274184	3511.25
2789.13258930433	3554.25
2791.22157552338	3530.25
2793.30998167471	3528.75
2795.39780803392	3590.5
2797.4850548765	3526.25
2799.57172247786	3571.25
2801.65781111324	3576
2803.74332105781	3538
2805.82825258661	3546.5
2807.91260597457	3573.5
2809.9963814965	3554.5
2812.07957942711	3580.75
2814.16220004096	3585
2816.24424361252	3619.75
2818.32571041614	3576.5
2820.40660072604	3601
2822.48691481631	3659.5
2824.56665296098	3643
2826.64581543388	3719.5
2828.72440250876	3752.25
2830.80241445925	3865.25
2832.87985155885	3951
2834.95671408093	4179.25
2837.03300229875	4365.25
2839.10871648544	4698.5
2841.18385691399	5095.5
2843.25842385729	5482.75
2845.33241758808	5731.75
2847.40583837898	5820.5
2849.4786865025	5744.25
2851.550962231	5601.25
2853.6226658367	5458.5
2855.69379759173	5244
2857.76435776806	5140.75
2859.83434663753	5002.5
2861.90376447184	4925.5
2863.97261154259	4866.5
2866.0408881212	4846.25
2868.10859447901	4822
2870.17573088717	4884.25
2872.24229761673	4965.5
2874.30829493859	5106
2876.37372312352	5404
2878.43858244215	6067
2880.50287316496	6469.25
2882.56659556231	6324
2884.62974990439	5860
2886.69233646129	5477.75
2888.75435550293	5278.25
2890.81580729909	5204.5
2892.87669211941	5150.75
2894.93701023339	5097
2896.99676191039	5070
2899.05594741961	5082.5
2901.1145670301	4997.5
2903.1726210108	4848
2905.23010963045	4838
2907.28703315768	4737.5
2909.34339186096	4747.75
2911.39918600861	4656.75
2913.45441586879	4643.75
2915.50908170952	4605
2917.56318379867	4568.5
2919.61672240395	4608.75
2921.66969779291	4568.5
2923.72211023295	4590.25
2925.77395999134	4577
2927.82524733515	4575
2929.87597253132	4565.25
2931.92613584663	4483.5
2933.97573754769	4485.25
2936.02477790097	4413.5
2938.07325717276	4346.5
2940.1211756292	4281.25
2942.16853353626	4193.25
2944.21533115976	4162.25
2946.26156876536	4045.75
2948.30724661853	4019.25
2950.3523649846	3982.25
2952.39692412872	4014
2954.44092431587	3947.5
2956.48436581089	3896
2958.52724887843	3931.25
2960.56957378296	3931
2962.6113407888	3965.25
2964.65255016011	3933.5
2966.69320216083	3944
2968.73329705479	3885.25
2970.77283510559	3921.75
2972.81181657671	3934
2974.8502417314	3956
2976.88811083279	3910.5
2978.92542414378	3893.75
2980.96218192713	3945.5
2982.99838444541	3934
2985.034031961	3973
2987.06912473612	3925.5
2989.1036630328	3989.25
2991.13764711288	3966.25
2993.17107723804	3988
2995.20395366974	3982.25
2997.23627666931	3972
2999.26804649782	3957
3001.29926341624	4047
3003.32992768528	4030.5
3005.3600395655	4022.5
3007.38959931726	4034.75
3009.41860720076	4096.25
3011.44706347595	4089.75
3013.47496840263	4043
3015.50232224041	4124.5
3017.5291252487	4122.5
3019.5553776867	4064
3021.58107981344	4164.25
3023.60623188773	4114
3025.63083416822	4143.75
3027.65488691331	4190.25
3029.67839038125	4147
3031.70134483007	4174
3033.72375051759	4169
3035.74560770144	4168.75
3037.76691663907	4181.5
3039.78767758768	4238.5
3041.80789080431	4197.5
3043.82755654577	4219.5
3045.84667506867	4197.25
3047.8652466294	4222.5
3049.88327148418	4231
3051.90074988899	4216.5
3053.91768209961	4226
3055.9340683716	4234.5
3057.94990896033	4241.25
3059.96520412095	4263.25
3061.97995410838	4316.75
3063.99415917734	4248
3066.00781958234	4247.25
3068.02093557766	4263.25
3070.03350741738	4236
3072.04553535535	4295.75
3074.05701964521	4308.25
3076.06796054036	4228
3078.078358294	4264.5
3080.08821315912	4315.5
3082.09752538846	4271.5
3084.10629523454	4279.75
3086.11452294967	4277.25
3088.12220878592	4279.25
3090.12935299515	4314.75
3092.13595582898	4315
3094.1420175388	4296.75
3096.14753837579	4332.25
3098.15251859088	4297.5
3100.15695843477	4302
3102.16085815793	4322.25
3104.16421801061	4305.25
3106.16703824282	4333.25
3108.16931910432	4371.75
3110.17106084464	4349.5
3112.17226371308	4391.75
3114.17292795872	4388.75
3116.17305383034	4409.5
3118.17264157657	4356.75
3120.17169144571	4370.25
3122.17020368587	4373
3124.16817854492	4389.75
3126.16561627044	4425
3128.16251710982	4449.25
3130.15888131017	4455.5
3132.15470911837	4481.25
3134.15000078104	4471.75
3136.14475654455	4452
3138.13897665502	4472.5
3140.13266135835	4492
3142.12581090014	4470.5
3144.11842552577	4530
3146.11050548036	4532.75
3148.10205100875	4529.75
3150.09306235557	4516
3152.08353976515	4497.75
3154.07348348158	4482.5
3156.06289374869	4576.25
3158.05177081006	4539.75
3160.04011490899	4594.25
3162.02792628852	4593.75
3164.01520519145	4544.5
3166.00195186029	4568.25
3167.98816653728	4565
3169.97384946442	4597.5
3171.95900088344	4589
3173.94362103577	4608.75
3175.92771016259	4608.5
3177.91126850484	4637.75
3179.89429630312	4606.25
3181.87679379782	4629
3183.85876122903	4666.5
3185.84019883657	4682.25
3187.82110685997	4677
3189.80148553851	4683.75
3191.78133511116	4704.75
3193.76065581664	4702
3195.73944789337	4712
3197.7177115795	4697
3199.6954471129	4699.5
3201.67265473114	4710.75
3203.64933467153	4729.25
3205.62548717107	4763.75
3207.60111246648	4786.5
3209.57621079421	4759.75
3211.55078239041	4756.5
3213.52482749093	4714.75
3215.49834633133	4793
3217.4713391469	4830
3219.44380617262	4782.25
3221.41574764317	4849.5
3223.38716379296	4851.5
3225.35805485607	4819.5
3227.32842106631	4886.25
3229.29826265718	4926.25
3231.26757986187	4924.75
3233.2363729133	4949.25
3235.20464204405	4934.25
3237.17238748643	4931.25
3239.13960947243	4950.5
3241.10630823374	4959.5
3243.07248400174	4964.25
3245.03813700748	5024.5
3247.00326748177	5000.75
3248.96787565503	4990
3250.93196175742	4985.25
3252.89552601877	5051
3254.8585686686	5022.5
3256.82108993612	5056.25
3258.78309005022	5009
3260.74456923948	5027.75
3262.70552773215	5067.75
3264.66596575617	5087
3266.62588353916	5083.5
3268.58528130843	5011.25
3270.54415929094	5058.75
3272.50251771336	5049
3274.46035680201	5077.25
3276.4176767829	5107.75
3278.37447788171	5069
3280.33076032379	5131
3282.28652433416	5151.5
3284.24177013751	5131
3286.1964979582	5131.75
3288.15070802027	5112
3290.10440054741	5097.25
3292.05757576298	5124.25
3294.01023389001	5186.75
3295.96237515119	5157.25
3297.91399976887	5144.5
3299.86510796506	5161
3301.81569996142	5164
3303.76577597932	5145
3305.7153362397	5164.75
3307.66438096324	5157.5
3309.61291037024	5116.5
3311.56092468064	5115.25
3313.50842411404	5113
3315.45540888971	5203.5
3317.40187922656	5174.5
3319.34783534315	5146
3321.29327745768	5160
3323.23820578801	5100
3325.18262055164	5171.25
3327.1265219657	5138.5
3329.06991024699	5141.5
3331.01278561194	5146
3332.95514827662	5129
3334.89699845674	5192.75
3336.83833636766	5159.75
3338.77916222434	5099.25
3340.71947624143	5132.25
3342.65927863317	5175
3344.59856961346	5165.5
3346.53734939584	5165.5
3348.47561819344	5152
3350.41337621906	5165.75
3352.35062368513	5102.5
3354.28736080368	5130.75
3356.22358778637	5128.25
3358.15930484452	5171
3360.09451218904	5174.25
3362.02921003047	5117
3363.96339857898	5163
3365.89707804436	5114.25
3367.83024863602	5132.25
3369.76291056299	5126
3371.69506403389	5124.25
3373.62670925699	5136.75
3375.55784644016	5197
3377.4884757909	5092.5
3379.41859751629	5215
3381.34821182305	5187
3383.27731891749	5166.5
3385.20591900555	5231.5
3387.13401229276	5188.25
3389.06159898426	5218.5
3390.9886792848	5218.75
3392.91525339872	5225.75
3394.84132152998	5225
3396.76688388213	5215.25
3398.69194065833	5201.5
3400.61649206133	5198.25
3402.54053829348	5213.5
3404.46407955672	5222.75
3406.3871160526	5222.25
3408.30964798225	5233.75
3410.23167554639	5230.5
3412.15319894535	5269.5
3414.07421837904	5242.25
3415.99473404695	5248
3417.91474614817	5237.25
3419.83425488136	5227.75
3421.75326044479	5301.25
3423.67176303631	5221.5
3425.58976285332	5216.25
3427.50726009282	5280
3429.42425495143	5222.5
3431.34074762528	5243.25
3433.25673831012	5244.75
3435.17222720127	5232.25
3437.08721449362	5251.5
3439.00170038164	5268
3440.91568505936	5248.75
3442.82916872039	5230
3444.74215155791	5226.5
3446.65463376468	5211
3448.566615533	5239.25
3450.47809705476	5221.5
3452.3890785214	5256.25
3454.29956012393	5259.25
3456.20954205293	5282.75
3458.11902449853	5204.25
3460.02800765041	5211.5
3461.93649169784	5233.5
3463.84447682962	5134.25
3465.75196323412	5195.25
3467.65895109925	5177.5
3469.56544061249	5261
3471.47143196086	5209.75
3473.37692533093	5216
3475.28192090884	5174.75
3477.18641888026	5221
3479.09041943039	5192.5
3480.99392274402	5229
3482.89692900545	5206.75
3484.79943839853	5258.25
3486.70145110666	5220.5
3488.60296731277	5200.75
3490.50398719933	5201
3492.40451094836	5167
3494.30453874141	5224.75
3496.20407075956	5267
3498.10310718342	5200.25
3500.00164819315	5203.25