200.090469251518	1928.5
202.974751419362	1905
205.858021632263	1919
208.740280737522	1921.75
211.621529580443	1910.25
214.501769004371	1914.25
217.380999850626	1938
220.25922295859	1896.5
223.136439165646	1925.5
226.012649307235	1919
228.88785421682	1940.5
231.762054725918	1963.25
234.635251664113	1951
237.507445859021	1953.75
240.378638136346	1968.5
243.248829319855	1984.25
246.11802023137	1974.5
248.986211690826	2012
251.853404516227	2001.25
254.719599523654	1989.75
257.584797527335	1966.75
260.44899933954	1968.5
263.312205770682	2000.75
266.174417629303	1960
269.035635722015	1968.25
271.895860853609	1987.5
274.755093826978	1973.5
277.613335443144	1994.75
280.470586501309	1993.75
283.326847798766	1978.5
286.182120131019	1999
289.036404291684	1994.5
291.889701072574	2005.25
294.742011263643	1984.25
297.593335653048	2002
300.443675027094	1985.25
303.293030170295	1996.75
306.141401865367	2014.5
308.988790893174	1980.5
311.835198032837	2028.5
314.680624061635	2005.5
317.525069755113	2009.75
320.36853588697	2003
323.211023229178	2017.75
326.052532551923	2006.5
328.893064623604	1997
331.732620210885	2030.5
334.57120007867	2044.25
337.408804990093	2027.5
340.245435706565	2007
343.081092987733	2030.5
345.915777591523	2029
348.749490274145	2042.75
351.582231790049	2046
354.414002891997	2035.5
357.244804331021	2043
360.074636856443	2078
362.903501215886	2083.5
365.731398155265	2081.25
368.558328418814	2078
371.384292749062	2103.25
374.209291886869	2103
377.033326571407	2085.75
379.85639754017	2079.75
382.678505529009	2078.75
385.499651272065	2092
388.319835501872	2098
391.139058949258	2131.5
393.957322343453	2142.5
396.774626412011	2168.5
399.590971880847	2148
402.406359474258	2151.25
405.220789914893	2149.25
408.034263923801	2104.75
410.8467822204	2111.25
413.658345522483	2113.75
416.468954546242	2136
419.278610006277	2107.75
422.087312615557	2134.75
424.895063085503	2126
427.701862125901	2135.75
430.507710444981	2146.5
433.312608749366	2129.5
436.116557744146	2134.75
438.919558132791	2136.75
441.721610617238	2146.5
444.522715897856	2138.5
447.322874673457	2176.75
450.122087641299	2129.25
452.920355497092	2164.75
455.717678935009	2172.25
458.514058647681	2153.75
461.309495326219	2172.25
464.103989660191	2153.75
466.89754233765	2136.75
469.690154045114	2131.75
472.481825467625	2116
475.272557288674	2132.75
478.062350190281	2152
480.851204852952	2161.75
483.639121955683	2110.5
486.426102176007	2158.5
489.212146189955	2156.5
491.997254672093	2161
494.781428295471	2173.75
497.564667731716	2173.75
500.346973650958	2182
503.128346721878	2213.5
505.90878761169	2226
508.688296986151	2236
511.46687550957	2219.25
514.244523844831	2191.5
517.021242653354	2236.75
519.797032595132	2217.5
522.571894328732	2201
525.345828511279	2224.5
528.11883579849	2234.75
530.890916844655	2232.75
533.662072302668	2212
536.432302823985	2214.5
539.201609058684	2191.75
541.96999165542	2200
544.737451261473	2169.5
547.503988522723	2171.25
550.26960408366	2223.25
553.034298587394	2183.25
555.798072675669	2180.75
558.560926988819	2194.75
561.322862165849	2202.25
564.083878844369	2198.5
566.843977660654	2232.75
569.603159249604	2181
572.361424244769	2210.25
575.118773278369	2231.5
577.87520698124	2190.25
580.630725982905	2224
583.385330911566	2251.5
586.139022394076	2224
588.891801055954	2239.5
591.643667521406	2238.5
594.394622413318	2265
597.144666353273	2253.5
599.893799961512	2257.75
602.64202385701	2240.5
605.389338657413	2224.25
608.135744979089	2228.5
610.881243437092	2252.25
613.625834645191	2233.5
616.369519215881	2231.75
619.112297760374	2237.75
621.854170888604	2235
624.595139209225	2225
627.335203329614	2271.5
630.074363855914	2238
632.81262139299	2257
635.549976544436	2236.75
638.286429912612	2240
641.021982098635	2250.5
643.756633702364	2225.75
646.49038532241	2239.25
649.223237556176	2235.25
651.955190999808	2219.25
654.686246248224	2281.75
657.416403895135	2248.25
660.145664533011	2244
662.874028753133	2252.5
665.601497145537	2255
668.328070299071	2236.25
671.05374880138	2282.25
673.778533238885	2323.75
676.502424196839	2366.75
679.225422259297	2453
681.947528009099	2498
684.668742027927	2498.75
687.389064896281	2412.75
690.108497193465	2361.75
692.827039497621	2332.75
695.544692385724	2312.25
698.261456433585	2270.75
700.977332215847	2283.5
703.692320305981	2268.75
706.406421276337	2266
709.11963569808	2290.75
711.831964141256	2285.75
714.54340717474	2305
717.253965366304	2284.75
719.963639282552	2273
722.672429488961	2264.5
725.380336549904	2279.25
728.087361028596	2308.75
730.793503487166	2281.75
733.498764486594	2316.75
736.203144586758	2283.5
738.906644346447	2275.5
741.60926432331	2292.5
744.311005073912	2318
747.011867153727	2314
749.711851117121	2296.25
752.410957517375	2284.5
755.109186906677	2315.25
757.806539836132	2328.25
760.503016855779	2315
763.198618514551	2302.25
765.893345360346	2315.5
768.587197939964	2333
771.28017679914	2322.5
773.972282482566	2325.75
776.663515533859	2317.25
779.353876495581	2295.75
782.043365909241	2292.25
784.731984315327	2340.5
787.419732253235	2303
790.106610261366	2306.75
792.792618877058	2334
795.477758636618	2314
798.162030075313	2338.5
800.845433727423	2368.5
803.52797012615	2431.75
806.209639803714	2497.25
808.890443291304	2547.5
811.570381119098	2518
814.249453816265	2439.5
816.927661910959	2401.5
819.60500593036	2391.25
822.281486400603	2349
824.957103846864	2358.5
827.631858793316	2384.25
830.305751763135	2377.75
832.978783278519	2382
835.650953860677	2418.5
838.322264029848	2411
840.992714305292	2415.5
843.662305205289	2451.25
846.331037247157	2387.75
848.998910947241	2380.75
851.665926820933	2388.75
854.332085382674	2386
856.997387145915	2407.5
859.661832623191	2362.25
862.325422326066	2355.5
864.988156765172	2350.25
867.650036450181	2367.25
870.311061889846	2351.25
872.971233591961	2322.75
875.630552063409	2338.75
878.28901781013	2378
880.946631337138	2358
883.603393148533	2361
886.259303747484	2360.5
888.914363636246	2339.5
891.568573316155	2352.25
894.22193328767	2336.5
896.874444050281	2346.5
899.526106102625	2365.25
902.176919942416	2349
904.826886066483	2336
907.476004970747	2350.75
910.124277150255	2365.25
912.77170309913	2356
915.418283310642	2388.5
918.064018277175	2376.5
920.708908490222	2396.25
923.352954440405	2357.5
925.996156617486	2374.5
928.638515510334	2376
931.280031606966	2380.25
933.920705394521	2398.25
936.560537359303	2377
939.199527986737	2406
941.837677761392	2367.25
944.474987167006	2404.5
947.111456686438	2417
949.747086801734	2445
952.38187799407	2419.5
955.015830743792	2399.75
957.648945530418	2434.25
960.281222832633	2416.75
962.91266312826	2442.5
965.543266894336	2465.25
968.173034607058	2462.25
970.801966741779	2491.25
973.43006377307	2492.25
976.057326174661	2474
978.683754419471	2444.5
981.309348979623	2425.25
983.93411032642	2420
986.558038930361	2393
989.181135261144	2407.25
991.803399787692	2405.25
994.424832978086	2423.75
997.045435299653	2402.5
999.665207218906	2400
1002.2841492016	2411.75
1004.90226171266	2416.75
1007.51954521628	2420
1010.13600017584	2446.5
1012.75162705397	2421.25
1015.3664263125	2437.5
1017.9803984125	2408
1020.5935438143	2456.75
1023.20586297741	2427.75
1025.81735636063	2445.75
1028.42802442196	2470.25
1031.03786761869	2485.75
1033.64688640732	2473
1036.2550812436	2483
1038.86245258255	2457
1041.46900087844	2465
1044.07472658479	2459.75
1046.67963015438	2485.5
1049.28371203927	2469.5
1051.88697269075	2462.75
1054.48941255943	2442.5
1057.09103209513	2451.5
1059.691831747	2483
1062.29181196343	2483.25
1064.89097319211	2499
1067.48931587999	2445.5
1070.08684047333	2486.25
1072.68354741766	2479.5
1075.27943715779	2492.25
1077.87451013787	2514
1080.46876680127	2547.25
1083.06220759071	2583.75
1085.65483294822	2582.5
1088.24664331509	2541
1090.83763913194	2501.75
1093.42782083869	2489.75
1096.01718887459	2497.75
1098.60574367818	2474.5
1101.19348568732	2478.5
1103.78041533919	2505.25
1106.3665330703	2521.5
1108.95183931646	2470.25
1111.53633451284	2490.5
1114.12001909391	2481
1116.70289349349	2510
1119.2849581447	2468.5
1121.86621348005	2491.5
1124.44665993134	2505.25
1127.02629792973	2485.25
1129.60512790574	2528
1132.18315028919	2522
1134.76036550929	2522.5
1137.3367739946	2544
1139.912376173	2576.75
1142.48717247176	2600.25
1145.06116331748	2577.25
1147.63434913616	2590
1150.20673035312	2594.25
1152.77830739307	2612.25
1155.34908068007	2583
1157.91905063757	2619.25
1160.48821768838	2643.5
1163.05658225471	2627.5
1165.6241447581	2658.25
1168.19090561951	2636.5
1170.75686525927	2639.75
1173.32202409708	2596
1175.88638255206	2583.5
1178.44994104269	2572.25
1181.01269998684	2570.75
1183.57465980182	2589.5
1186.13582090427	2590.25
1188.69618371026	2578.25
1191.25574863529	2566.25
1193.8145160942	2572.25
1196.37248650129	2602.5
1198.92966027025	2608
1201.48603781416	2559.25
1204.04161954556	2557
1206.59640587635	2556.5
1209.15039721788	2542.25
1211.70359398092	2562.75
1214.25599657564	2561.5
1216.80760541166	2551
1219.35842089801	2568.75
1221.90844344314	2566.25
1224.45767345496	2536.5
1227.00611134077	2533
1229.55375750736	2557.25
1232.10061236092	2527.25
1234.64667630707	2557.75
1237.1919497509	2548.5
1239.73643309692	2612.75
1242.28012674912	2557.75
1244.82303111089	2567.25
1247.36514658511	2566
1249.9064735741	2623.5
1252.44701247964	2618.75
1254.98676370294	2634.5
1257.52572764469	2642
1260.06390470506	2625.75
1262.60129528365	2619.25
1265.13789977954	2642.75
1267.67371859128	2665.5
1270.20875211688	2683.75
1272.74300075384	2675.5
1275.2764648991	2748
1277.80914494911	2756
1280.34104129978	2774.5
1282.87215434652	2766.25
1285.40248448419	2751.25
1287.93203210715	2735.5
1290.46079760927	2725.75
1292.98878138385	2733.5
1295.51598382375	2737
1298.04240532127	2725.25
1300.56804626822	2772.25
1303.09290705593	2766.75
1305.6169880752	2768.5
1308.14028971632	2725.25
1310.66281236913	2730.5
1313.18455642292	2710.75
1315.70552226653	2742.5
1318.22571028829	2736.5
1320.74512087603	2740.75
1323.26375441711	2772
1325.7816112984	2790
1328.29869190629	2837.75
1330.81499662666	2827
1333.33052584497	2905.25
1335.84527994613	2943.25
1338.35925931464	2896
1340.87246433446	2921.5
1343.38489538916	2873
1345.89655286177	2833.5
1348.40743713487	2805
1350.91754859059	2816.5
1353.42688761059	2811.75
1355.93545457606	2831.5
1358.44324986772	2829
1360.95027386588	2848.25
1363.45652695032	2811
1365.96200950042	2796
1368.4667218951	2775.5
1370.97066451281	2767.5
1373.47383773156	2741.5
1375.97624192891	2828.75
1378.47787748199	2807.25
1380.97874476746	2806.5
1383.47884416157	2842
1385.97817604009	2851.5
1388.4767407784	2876.75
1390.9745387514	2814.75
1393.47157033358	2790.5
1395.96783589898	2816.25
1398.46333582124	2758
1400.95807047354	2775
1403.45204022864	2755.75
1405.94524545889	2776
1408.4376865362	2732
1410.92936383205	2750.5
1413.42027771752	2756.5
1415.91042856328	2745
1418.39981673955	2749
1420.88844261615	2751.5
1423.37630656249	2749
1425.86340894757	2764.5
1428.34975013999	2825.25
1430.83533050792	2831.5
1433.32015041912	2868.5
1435.80421024098	2901.25
1438.28751034045	2917.25
1440.77005108411	2953.25
1443.25183283812	2952
1445.73285596824	3031.25
1448.21312083984	3036.25
1450.69262781791	3047.75
1453.17137726702	3014.75
1455.64936955137	2983.5
1458.12660503477	3012
1460.60308408063	2974.75
1463.07880705197	2977.25
1465.55377431145	2948
1468.02798622133	2942.5
1470.50144314348	2923.25
1472.97414543941	2868
1475.44609347024	2950
1477.91728759673	2938.75
1480.38772817924	2930
1482.85741557777	2923.25
1485.32635015194	2911.75
1487.79453226103	2899.75
1490.26196226391	2895
1492.72864051911	2936.25
1495.1945673848	2945.5
1497.65974321874	3023.25
1500.1241683784	3098
1502.58784322083	3116.5
1505.05076810274	3101.5
1507.51294338049	3039.75
1509.97436941009	2953.75
1512.43504654717	2935
1514.89497514704	2947
1517.35415556462	3007.25
1519.81258815451	3051
1522.27027327095	3114.5
1524.72721126784	3195.25
1527.18340249874	3197.25
1529.63884731684	3205.25
1532.09354607502	3193
1534.5474991258	3245.5
1537.00070682136	3217.25
1539.45316951355	3116.75
1541.90488755388	3068.25
1544.35586129353	3054
1546.80609108336	3056.5
1549.25557727385	3041
1551.70432021519	3017.75
1554.15232025725	3058.5
1556.59957774953	3055.25
1559.04609304125	3070.5
1561.49186648127	3046
1563.93689841815	3026
1566.38118920011	3041
1568.82473917506	3030.5
1571.2675486906	2989.75
1573.70961809399	3014.75
1576.15094773219	3021.25
1578.59153795184	3006
1581.03138909928	3015.5
1583.47050152051	3030.75
1585.90887556123	3047.75
1588.34651156686	3046.25
1590.78340988246	3095
1593.21957085283	3115.5
1595.65499482245	3093.5
1598.08968213547	3096
1600.52363313578	3082.75
1602.95684816694	3079.5
1605.38932757224	3051.75
1607.82107169462	3021.5
1610.25208087677	3017
1612.68235546107	3035.5
1615.1118957896	3025.25
1617.54070220415	2970.25
1619.96877504621	2974.25
1622.39611465701	2991
1624.82272137746	2953.75
1627.24859554818	2951
1629.67373750953	2953
1632.09814760155	2927.5
1634.52182616404	2936.25
1636.94477353647	2954.25
1639.36699005806	2895
1641.78847606776	2935
1644.20923190418	2922.75
1646.62925790573	2921.75
1649.04855441048	2938.75
1651.46712175628	2940.5
1653.88496028066	2928.5
1656.3020703209	2956.75
1658.71845221401	2958
1661.13410629671	2941.25
1663.54903290547	2985
1665.96323237649	3004.75
1668.37670504571	2993.25
1670.78945124877	3004.5
1673.20147132109	3006.5
1675.61276559779	3029
1678.02333441377	3017.75
1680.43317810362	3011.75
1682.84229700171	3038.5
1685.25069144213	3012.5
1687.65836175872	3043
1690.06530828507	3033.5
1692.47153135451	3057.75
1694.87703130009	3064.25
1697.28180845467	3062.25
1699.6858631508	3063.75
1702.08919572081	3061.5
1704.49180649676	3073.25
1706.89369581049	3083.75
1709.29486399355	3059.25
1711.69531137731	3058.25
1714.09503829282	3056.75
1716.49404507095	3089.25
1718.89233204229	3078.5
1721.28989953721	3061
1723.68674788581	3080
1726.08287741798	3059.25
1728.47828846338	3071
1730.87298135139	3071
1733.26695641119	3053
1735.66021397173	3077.75
1738.05275436169	3061
1740.44457790954	3095.25
1742.83568494354	3055.5
1745.22607579168	3052.75
1747.61575078175	3074.5
1750.00471024128	3054
1752.39295449761	3052.75
1754.78048387783	3091.75
1757.16729870881	3104.5
1759.5533993172	3083.25
1761.93878602942	3101.25
1764.32345917168	3090.75
1766.70741906995	3130.5
1769.09066604999	3090.75
1771.47320043735	3128
1773.85502255735	3099.25
1776.2361327351	3107.25
1778.61653129548	3124.75
1780.99621856318	3155.75
1783.37519486264	3165.5
1785.75346051813	3181.25
1788.13101585368	3162.5
1790.5078611931	3162.75
1792.88399686002	3182.25
1795.25942317785	3178.75
1797.63414046977	3183
1800.00814905878	3173
1802.38144926766	3157.5
1804.75404141898	3190
1807.12592583514	3192.25
1809.49710283829	3225.25
1811.86757275039	3220.25
1814.23733589322	3225.5
1816.60639258834	3182
1818.97474315712	3191
1821.34238792073	3217
1823.70932720012	3157.5
1826.07556131608	3229.5
1828.44109058918	3225.5
1830.8059153398	3217.25
1833.17003588812	3216.25
1835.53345255413	3205.75
1837.89616565765	3192.25
1840.25817551827	3208.5
1842.61948245541	3222.75
1844.9800867883	3225.5
1847.33998883598	3221.25
1849.69918891729	3212.75
1852.05768735091	3230.5
1854.4154844553	3224.5
1856.77258054875	3211.25
1859.12897594938	3245.5
1861.4846709751	3290
1863.83966594366	3226.75
1866.19396117261	3260.5
1868.54755697932	3253.25
1870.90045368099	3280.5
1873.25265159463	3271
1875.60415103708	3280.5
1877.95495232501	3289.25
1880.30505577486	3279.5
1882.65446170299	3334
1885.00317042548	3361.5
1887.35118225832	3312.25
1889.69849751726	3345.5
1892.04511651792	3339.5
1894.39103957574	3373.75
1896.73626700596	3371.75
1899.08079912368	3387
1901.42463624384	3372.5
1903.76777868116	3399.25
1906.11022675025	3413.5
1908.4519807655	3364.5
1910.79304104117	3422.75
1913.13340789134	3428.5
1915.47308162992	3401
1917.81206257067	3397
1920.15035102718	3436
1922.48794731286	3408.75
1924.82485174096	3432.5
1927.16106462461	3414.5
1929.49658627672	3456.5
1931.83141701008	3448
1934.1655571373	3441.5
1936.49900697085	3446.5
1938.83176682301	3468
1941.16383700594	3424.75
1943.49521783161	3461.75
1945.82590961186	3409
1948.15591265835	3447.5
1950.48522728262	3444.5
1952.81385379602	3466.75
1955.14179250976	3411
1957.46904373489	3443.5
1959.79560778233	3440.5
1962.12148496284	3466.25
1964.44667558701	3429.5
1966.77117996529	3432.5
1969.09499840799	3465.75
1971.41813122527	3473.25
1973.74057872714	3477.75
1976.06234122345	3485.25
1978.38341902391	3502.25
1980.7038124381	3460.75
1983.02352177543	3507.5
1985.34254734518	3477.75
1987.66088945649	3494.75
1989.97854841833	3529.25
1992.29552453956	3503.5
1994.61181812887	3528
1996.92742949483	3539.5
1999.24235894586	3511.75
2001.55660679023	3573.75
2003.87017333608	3565.5
2006.18305889143	3541
2008.49526376413	3541
2010.80678826189	3562.5
2013.1176326923	3590.5
2015.42779736282	3606.25
2017.73728258075	3608.25
2020.04608865326	3592.5
2022.3542158874	3623.5
2024.66166459008	3640.75
2026.96843506807	3613.5
2029.274527628	3661.5
2031.57994257637	3628.75
2033.88468021957	3673.75
2036.18874086383	3643.75
2038.49212481526	3683.75
2040.79483237983	3641.5
2043.0968638634	3678.25
2045.39821957169	3692.25
2047.69889981028	3665
2049.99890488462	3705.5
2052.29823510006	3663
2054.59689076181	3665.25
2056.89487217492	3673
2059.19217964437	3695.75
2061.48881347497	3657.75
2063.7847739714	3704.5
2066.08006143826	3683.75
2068.37467618	3679.75
2070.66861850093	3725.25
2072.96188870527	3661.25
2075.25448709707	3670.25
2077.54641398031	3742.25
2079.83766965881	3688.25
2082.12825443629	3679.5
2084.41816861634	3656.25
2086.70741250242	3718.25
2088.99598639789	3709.75
2091.28389060597	3672.5
2093.57112542978	3677.5
2095.85769117232	3731.25
2098.14358813644	3667.75
2100.42881662491	3691.75
2102.71337694037	3719.5
2104.99726938532	3695.25
2107.28049426219	3659.25
2109.56305187325	3691
2111.84494252069	3764.25
2114.12616650655	3702.75
2116.40672413278	3707.75
2118.68661570121	3726.5
2120.96584151355	3789.25
2123.24440187138	3750.75
2125.52229707622	3756.75
2127.79952742943	3721.75
2130.07609323227	3766.5
2132.35199478588	3796
2134.62723239132	3794.75
2136.90180634949	3800.25
2139.17571696123	3813.5
2141.44896452723	3812.75
2143.72154934809	3810.5
2145.99347172429	3836.5
2148.26473195623	3827.25
2150.53533034415	3836
2152.80526718821	3819
2155.07454278848	3821.5
2157.3431574449	3843.25
2159.61111145728	3862
2161.87840512538	3860
2164.1450387488	3850
2166.41101262707	3879.25
2168.67632705959	3866.25
2170.94098234567	3868.25
2173.20497878451	3889
2175.46831667519	3910.5
2177.73099631672	3882.25
2179.99301800797	3884.75
2182.25438204772	3923.75
2184.51508873466	3918.5
2186.77513836735	3914.25
2189.03453124427	3904.25
2191.29326766378	3874.75
2193.55134792416	3866.5
2195.80877232355	3910.25
2198.06554116004	3862.25
2200.32165473157	3873.75
2202.577113336	3908
2204.83191727111	3874.75
2207.08606683453	3867.5
2209.33956232384	3895.75
2211.59240403648	3920
2213.84459226982	3905.5
2216.09612732112	3925.75
2218.34700948753	3907.75
2220.59723906612	3920.5
2222.84681635385	3912.5
2225.09574164758	3875.5
2227.34401524408	3905.75
2229.59163744002	3874.75
2231.83860853197	3906.25
2234.08492881639	3886.5
2236.33059858968	3883.25
2238.5756181481	3940.5
2240.81998778784	3914.75
2243.06370780499	3927.5
2245.30677849555	3912
2247.54920015539	3952.75
2249.79097308033	3887
2252.03209756607	3919.75
2254.27257390822	3894
2256.51240240228	3905
2258.75158334369	3920.25
2260.99011702777	3881
2263.22800374976	3931.25
2265.46524380477	3910
2267.70183748786	3947.75
2269.93778509399	3935
2272.17308691801	3912.5
2274.40774325467	3953.5
2276.64175439866	3908.25
2278.87512064454	3951
2281.10784228682	3897.25
2283.33991961987	3927
2285.571352938	3907.75
2287.80214253541	3940.5
2290.03228870623	3957
2292.26179174449	3927
2294.4906519441	3953.5
2296.71886959892	4005
2298.9464450027	3927.75
2301.1733784491	3945
2303.39967023169	3916.75
2305.62532064395	3936
2307.85032997926	3941.5
2310.07469853093	3940.5
2312.29842659216	3909.75
2314.52151445608	3957.25
2316.7439624157	3929.5
2318.96577076397	3941.75
2321.18693979374	3948.75
2323.40746979777	3960.25
2325.62736106873	3946.75
2327.8466138992	3957.25
2330.06522858166	3919.5
2332.28320540853	3947.5
2334.50054467212	3983.25
2336.71724666465	3927.25
2338.93331167827	3930.25
2341.14874000501	3890.25
2343.36353193685	3931.5
2345.57768776564	3907.75
2347.79120778319	3917.75
2350.00409228117	3935.5
2352.21634155121	3946.75
2354.42795588482	3930.75
2356.63893557342	3946
2358.84928090838	3939
2361.05899218094	3966.25
2363.26806968228	3922
2365.47651370347	3947
2367.68432453552	3946.75
2369.89150246933	3954
2372.09804779571	3933
2374.30396080541	3904
2376.50924178907	3892.25
2378.71389103725	3918
2380.91790884042	3907
2383.12129548897	3909.75
2385.3240512732	3863.5
2387.52617648332	3885
2389.72767140946	3847
2391.92853634165	3886
2394.12877156985	3857
2396.32837738392	3948.75
2398.52735407365	3905.25
2400.72570192873	3874.75
2402.92342123875	3850.5
2405.12051229325	3844.25
2407.31697538167	3847.5
2409.51281079333	3895.5
2411.70801881751	3899.75
2413.90259974339	3880.5
2416.09655386004	3928.5
2418.28988145648	3857.5
2420.48258282162	3873.25
2422.6746582443	3866.75
2424.86610801325	3920.75
2427.05693241713	3859
2429.24713174452	3848.25
2431.43670628389	3860.25
2433.62565632365	3871.75
2435.81398215212	3852
2438.00168405752	3852.25
2440.18876232799	3845.75
2442.37521725158	3864.25
2444.56104911628	3816.25
2446.74625820994	3859.25
2448.93084482038	3832.5
2451.1148092353	3847
2453.29815174233	3867.75
2455.480872629	3820.25
2457.66297218275	3802
2459.84445069097	3758.75
2462.02530844092	3792.75
2464.2055457198	3808.5
2466.38516281471	3787.75
2468.56416001267	3772.25
2470.74253760061	3809.25
2472.92029586537	3778.5
2475.09743509372	3823.75
2477.27395557232	3824.75
2479.44985758777	3844
2481.62514142655	3808.25
2483.79980737508	3789.25
2485.97385571969	3815
2488.14728674661	3770.5
2490.32010074198	3816.5
2492.49229799188	3783.25
2494.66387878228	3791.25
2496.83484339905	3822.5
2499.00519212802	3769.5
2501.17492525488	3786.5
2503.34404306528	3766.75
2505.51254584473	3807.5
2507.6804338787	3789
2509.84770745254	3815.25
2512.01436685153	3817.25
2514.18041236085	3779.25
2516.34584426561	3837.5
2518.51066285081	3834.75
2520.67486840138	3839.5
2522.83846120214	3836.75
2525.00144153784	3827
2527.16380969314	3802.75
2529.32556595261	3848.25
2531.48671060072	3861.75
2533.64724392186	3836.25
2535.80716620033	3817
2537.96647772034	3851.5
2540.12517876602	3830
2542.2832696214	3829
2544.44075057041	3808.5
2546.59762189691	3828
2548.75388388466	3809
2550.90953681735	3817
2553.06458097853	3859
2555.21901665172	3837.5
2557.37284412031	3797.5
2559.5260636676	3820.75
2561.67867557684	3814
2563.83068013113	3814
2565.98207761351	3797.5
2568.13286830695	3814.75
2570.28305249429	3775
2572.43263045829	3735.25
2574.58160248163	3755.25
2576.72996884689	3774.25
2578.87772983655	3747.25
2581.02488573303	3755.5
2583.1714368186	3786
2585.31738337549	3785.75
2587.46272568582	3789.25
2589.60746403161	3768
2591.75159869479	3800
2593.89512995722	3768.75
2596.03805810061	3770.25
2598.18038340665	3769.5
2600.32210615686	3772.5
2602.46322663274	3786
2604.60374511563	3780.25
2606.74366188683	3733.25
2608.88297722751	3738
2611.02169141875	3735
2613.15980474156	3776.75
2615.29731747681	3833.75
2617.43422990532	3788.5
2619.57054230779	3721
2621.70625496483	3799
2623.84136815694	3800.25
2625.97588216456	3798
2628.10979726799	3769
2630.24311374746	3770.75
2632.3758318831	3789
2634.50795195493	3782.25
2636.6394742429	3838.25
2638.77039902682	3782.25
2640.90072658645	3779
2643.0304572014	3809.25
2645.15959115123	3756.75
2647.28812871538	3804
2649.41607017319	3815.25
2651.5434158039	3809.25
2653.67016588665	3809.5
2655.79632070049	3823
2657.92188052436	3780.75
2660.04684563711	3824.5
2662.17121631749	3815
2664.29499284413	3822.75
2666.41817549558	3815.5
2668.54076455027	3796.25
2670.66276028656	3789.75
2672.78416298267	3790.75
2674.90497291675	3785.5
2677.02519036682	3821.75
2679.14481561082	3814.75
2681.26384892658	3804.75
2683.38229059182	3834.75
2685.50014088417	3794.25
2687.61740008114	3820.25
2689.73406846017	3809.5
2691.85014629854	3820.75
2693.96563387347	3809.75
2696.08053146206	3802.75
2698.1948393413	3820.25
2700.3085577881	3794.5
2702.42168707924	3805.5
2704.53422749139	3797.25
2706.64617930112	3793.75
2708.75754278492	3849.5
2710.86831821913	3809.25
2712.97850588002	3811.75
2715.08810604372	3862.75
2717.19711898628	3880
2719.30554498363	3882.25
2721.41338431158	3873.25
2723.52063724586	3850.75
2725.62730406206	3886.25
2727.73338503569	3837
2729.83888044213	3837.75
2731.94379055664	3860.5
2734.04811565441	3860
2736.15185601048	3844.25
2738.25501189979	3839.75
2740.35758359718	3854
2742.45957137738	3837
2744.56097551499	3852.5
2746.6617962845	3826.5
2748.7620339603	3831.5
2750.86168881666	3847.75
2752.96076112774	3820.25
2755.05925116758	3842.25
2757.15715921012	3831.75
2759.25448552917	3810.5
2761.35123039843	3816
2763.44739409148	3833
2765.5429768818	3810
2767.63797904275	3789.5
2769.73240084756	3815.75
2771.82624256934	3851.25
2773.91950448113	3837.75
2776.01218685579	3837.75
2778.10428996609	3802.25
2780.19581408469	3807.25
2782.28675948414	3831.75
2784.37712643683	3850
2786.46691521507	3850
2788.55612609104	3834.75
2790.64475933678	3853.75
2792.73281522425	3785
2794.82029402525	3804.25
2796.90719601149	3835.5
2798.99352145453	3811.25
2801.07927062583	3860
2803.16444379672	3831
2805.24904123841	3884.5
2807.33306322197	3880.75
2809.41651001838	3863.25
2811.49938189847	3876
2813.58167913296	3931
2815.66340199243	3948
2817.74455074734	3929.25
2819.82512566805	3919
2821.90512702475	3942.5
2823.98455508754	3905.75
2826.06341012637	3943.5
2828.14169241109	3960.5
2830.2194022114	4040.5
2832.29653979686	4062.5
2834.37310543694	4217.25
2836.44909940096	4236.5
2838.5245219581	4281
2840.59937337744	4315
2842.67365392791	4326.5
2844.74736387829	4375.25
2846.82050349727	4375.25
2848.8930730534	4445.25
2850.96507281506	4418.25
2853.03650305056	4433.25
2855.10736402802	4430
2857.17765601545	4409
2859.24737928074	4420.25
2861.31653409164	4533.25
2863.38512071574	4539
2865.45313942054	4650
2867.52059047335	4669.75
2869.58747414139	4738.75
2871.65379069173	4697
2873.7195403913	4697.25
2875.78472350688	4712.5
2877.84934030515	4794
2879.91339105262	4821.25
2881.97687601567	4811.75
2884.03979546053	4848.75
2886.10214965332	4852.25
2888.16393886	4796.75
2890.22516334639	4778.25
2892.28582337816	4714.75
2894.34591922087	4670.75
2896.40545113992	4692.25
2898.46441940054	4717.75
2900.52282426787	4678.5
2902.58066600687	4699.5
2904.63794488237	4798.5
2906.69466115906	4659
2908.75081510147	4725.75
2910.806406974	4705.5
2912.8614370409	4618.75
2914.91590556626	4664.75
2916.96981281404	4633
2919.02315904807	4617.5
2921.07594453199	4644.5
2923.12816952932	4652.75
2925.17983430343	4596.5
2927.23093911753	4556
2929.28148423469	4494.25
2931.33146991782	4467.25
2933.3808964297	4407
2935.42976403294	4370.25
2937.47807299	4330
2939.5258235632	4271
2941.57301601469	4230
2943.61965060648	4270.5
2945.66572760042	4275.25
2947.71124725823	4337.75
2949.75620984143	4381.25
2951.80061561143	4428.5
2953.84446482945	4428.75
2955.88775775656	4537.5
2957.9304946537	4553
2959.97267578162	4664
2962.01430140095	4674.25
2964.05537177211	4582.5
2966.09588715541	4491.75
2968.13584781097	4414.5
2970.17525399875	4330.5
2972.21410597859	4179.5
2974.25240401011	4123.25
2976.29014835283	4088.75
2978.32733926604	4069.75
2980.36397700892	4037.75
2982.40006184049	4027.5
2984.43559401955	4023.5
2986.4705738048	4037
2988.50500145473	3994.75
2990.53887722771	4030.5
2992.57220138189	4002.25
2994.6049741753	3970
2996.63719586576	4031.5
2998.66886671097	3978
3000.69998696843	4008.25
3002.73055689549	4013.25
3004.7605767493	4021.5
3006.79004678688	4020.75
3008.81896726505	4000.5
3010.84733844048	4012
3012.87516056966	4012.5
3014.9024339089	4026.75
3016.92915871433	4044.75
3018.95533524196	4048.25
3020.98096374756	4010.5
3023.00604448675	4049.5
3025.030577715	4075
3027.05456368757	4053.75
3029.07800265956	4057.5
3031.10089488589	4032
3033.12324062131	4067.5
3035.14504012038	4064.5
3037.16629363749	4046.5
3039.18700142685	4076
3041.20716374249	4029.25
3043.22678083826	4062
3045.24585296782	4094.75
3047.26438038468	4077
3049.28236334212	4078.25
3051.29980209329	4130.5
3053.31669689111	4062
3055.33304798835	4059.25
3057.34885563757	4078.75
3059.36412009117	4084
3061.37884160134	4052.75
3063.39302042011	4132
3065.40665679931	4101.75
3067.41975099058	4135.5
3069.43230324538	4117.25
3071.44431381495	4069
3073.45578295041	4090.25
3075.46671090261	4093.75
3077.47709792227	4060
3079.48694425989	4062
3081.49625016578	4068
3083.50501589008	4068.5
3085.5132416827	4087.5
3087.5209277934	4073.5
3089.52807447169	4050.25
3091.53468196695	4068.5
3093.54075052832	4047.25
3095.54628040476	4052.75
3097.55127184503	4066
3099.55572509769	4050.75
3101.55964041111	4036
3103.56301803346	4072
3105.5658582127	4073.75
3107.56816119661	4074.5
3109.56992723275	4052
3111.57115656849	4041
3113.571849451	4010.75
3115.57200612724	4036.25
3117.57162684397	4033.5
3119.57071184775	4066
3121.56926138493	4048.25
3123.56727570166	4071.5
3125.56475504389	4044.25
3127.56169965735	4049
3129.55810978757	4074
3131.55398567987	4032.25
3133.54932757937	4089
3135.54413573099	4116.5
3137.53841037939	4086.75
3139.53215176909	4076.25
3141.52536014435	4121.5
3143.51803574924	4052.25
3145.51017882762	4112
3147.50178962311	4129.75
3149.49286837916	4116.25
3151.48341533897	4096.5
3153.47343074553	4142
3155.46291484164	4100.25
3157.45186786985	4112
3159.44029007252	4115
3161.42818169179	4077
3163.41554296955	4128.25
3165.40237414753	4130.25
3167.38867546718	4127
3169.37444716975	4101.25
3171.35968949631	4141.5
3173.34440268764	4132.25
3175.32858698436	4120.75
3177.31224262682	4127
3179.29536985517	4142.5
3181.27796890934	4102.25
3183.26004002902	4115.5
3185.24158345368	4136
3187.22259942256	4074.25
3189.2030881747	4113.5
3191.18304994886	4171.25
3193.16248498363	4127.5
3195.14139351733	4130.75
3197.11977578807	4099
3199.09763203371	4089
3201.07496249191	4131.75
3203.05176740007	4171
3205.02804699537	4104
3207.00380151475	4153
3208.97903119493	4196
3210.95373627238	4146
3212.92791698335	4142.5
3214.90157356383	4137
3216.8747062496	4152.25
3218.84731527619	4161.5
3220.81940087889	4166.25
3222.79096329275	4245.75
3224.76200275259	4182.75
3226.73251949298	4187.75
3228.70251374825	4241.5
3230.67198575251	4164.25
3232.64093573959	4213.25
3234.6093639431	4242.25
3236.57727059641	4202.75
3238.54465593261	4262.75
3240.51152018461	4207.5
3242.47786358502	4215.25
3244.44368636621	4227.25
3246.40898876031	4223.25
3248.37377099923	4213.5
3250.33803331458	4295.5
3252.30177593775	4271.5
3254.26499909987	4237.75
3256.22770303184	4301.25
3258.18988796427	4250
3260.15155412755	4275.75
3262.1127017518	4243
3264.0733310669	4215.25
3266.03344230246	4277.75
3267.99303568784	4247.75
3269.95211145215	4237.75
3271.91066982422	4321.5
3273.86871103267	4263.25
3275.82623530581	4301
3277.7832428717	4276.5
3279.73973395818	4274.5
3281.69570879278	4282.5
3283.6511676028	4305.25
3285.60611061527	4300.25
3287.56053805694	4306.25
3289.51445015432	4287.75
3291.46784713364	4271.5
3293.42072922088	4282.25
3295.37309664173	4298
3297.32494962163	4283.25
3299.27628838575	4274.25
3301.227113159	4290.25
3303.17742416601	4271.25
3305.12722163114	4288
3307.07650577848	4265
3309.02527683185	4270.5
3310.9735350148	4227
3312.9212805506	4293
3314.86851366225	4287.75
3316.81523457249	4300.25
3318.76144350377	4292.25
3320.70714067825	4268.75
3322.65232631783	4262
3324.59700064415	4253
3326.54116387854	4271.75
3328.48481624207	4249.25
3330.42795795551	4258.5
3332.37058923938	4284.75
3334.31271031389	4257.5
3336.25432139898	4266.25
3338.19542271432	4265.75
3340.13601447927	4264.25
3342.07609691292	4272
3344.01567023407	4267.75
3345.95473466124	4267.75
3347.89329041266	4280.75
3349.83133770627	4278.25
3351.76887675973	4246.5
3353.70590779039	4204.5
3355.64243101534	4223.25
3357.57844665135	4252.75
3359.51395491492	4281.5
3361.44895602224	4281.75
3363.38345018922	4275.25
3365.31743763148	4279
3367.25091856432	4296.75
3369.18389320278	4305
3371.11636176156	4265.25
3373.0483244551	4342.25
3374.97978149754	4333
3376.91073310269	4312.5
3378.84117948409	4303.75
3380.77112085498	4294.25
3382.70055742826	4316
3384.62948941659	4307.5
3386.55791703227	4280
3388.48584048733	4307.5
3390.41325999348	4345.75
3392.34017576214	4343.25
3394.2665880044	4319
3396.19249693107	4349.5
3398.11790275263	4313.25
3400.04280567926	4343.25
3401.96720592084	4360
3403.89110368692	4335.5
3405.81449918675	4335.75
3407.73739262928	4339.5
3409.65978422311	4333
3411.58167417658	4370.5
3413.50306269768	4394.25
3415.42394999408	4369.25
3417.34433627316	4377.75
3419.26422174195	4378.25
3421.18360660721	4372.25
3423.10249107532	4326.5
3425.02087535239	4338
3426.93875964421	4346.25
3428.8561441562	4353
3430.77302909353	4321.75
3432.68941466097	4375
3434.60530106301	4375.25
3436.52068850383	4333.5
3438.43557718726	4365.75
3440.34996731681	4367.75
3442.26385909565	4317.75
3444.17725272664	4301.5
3446.09014841231	4352.5
3448.00254635486	4320.25
3449.91444675614	4322
3451.82584981771	4308.75
3453.73675574076	4362.25
3455.64716472616	4331.5
3457.55707697445	4310.25
3459.46649268584	4298.75
3461.37541206018	4328.25
3463.28383529703	4379
3465.19176259555	4334
3467.09919415464	4310.5
3469.00613017278	4290.5
3470.91257084817	4324.25
3472.81851637863	4289.5
3474.72396696168	4338.5
3476.62892279446	4293
3478.53338407379	4315
3480.43735099614	4276.25
3482.34082375764	4287
3484.24380255404	4315.25
3486.1462875808	4318.5
3488.048279033	4313.75
3489.94977710537	4320.5
3491.85078199231	4327.5
3493.75129388783	4242
3495.65131298566	4323.25
3497.5508394791	4267.25
3499.44987356115	4286.75