200.090469251521	645.400024414063
202.974751419364	653
205.858021632265	648.799987792969
208.740280737522	648
211.621529580445	654.400024414063
214.501769004372	651.400024414063
217.380999850628	649.099975585938
220.259222958593	652
223.136439165649	650.599975585938
226.012649307235	652.700012207031
228.887854216822	654.099975585938
231.762054725918	657.299987792969
234.635251664113	651.299987792969
237.507445859023	655.400024414063
240.378638136347	657.5
243.248829319856	660.700012207031
246.118020231373	657.599975585938
248.986211690827	657.900024414063
251.853404516227	653.200012207031
254.719599523657	658.599975585938
257.584797527337	660.599975585938
260.448999339541	659.5
263.312205770686	660
266.174417629303	658
269.035635722017	660.599975585938
271.89586085361	659.299987792969
274.755093826979	660.099975585938
277.613335443147	659.400024414063
280.470586501312	663.099975585938
283.326847798768	661
286.18212013102	663.5
289.036404291687	660.799987792969
291.889701072576	662.299987792969
294.742011263643	659.799987792969
297.593335653049	661.799987792969
300.443675027094	666
303.293030170298	664
306.141401865367	666.799987792969
308.988790893176	662.900024414063
311.835198032838	663.599975585938
314.680624061637	666.599975585938
317.525069755113	667
320.36853588697	664.400024414063
323.211023229181	667.5
326.052532551923	664.599975585938
328.893064623606	668.900024414063
331.732620210886	668.400024414063
334.571200078671	669.299987792969
337.408804990093	666.299987792969
340.245435706565	669.099975585938
343.081092987735	670.599975585938
345.915777591524	672.900024414063
348.749490274149	669.200012207031
351.582231790051	671.200012207031
354.414002892	668.200012207031
357.244804331024	669.599975585938
360.074636856445	672.400024414063
362.903501215886	673.900024414063
365.731398155266	677.400024414063
368.558328418816	673.5
371.384292749062	673.900024414063
374.209291886871	675
377.033326571409	675.599975585938
379.856397540173	675.299987792969
382.678505529011	677.400024414063
385.499651272066	674.599975585938
388.319835501873	677.5
391.139058949262	673.200012207031
393.957322343455	673.599975585938
396.774626412012	673.900024414063
399.590971880849	674.599975585938
402.406359474259	676.599975585938
405.220789914895	677.700012207031
408.034263923803	683.700012207031
410.846782220402	680.700012207031
413.658345522482	680
416.468954546245	682.700012207031
419.278610006279	686.099975585938
422.087312615559	684.400024414063
424.895063085505	684.5
427.701862125904	686.299987792969
430.507710444984	692.099975585938
433.312608749369	690.200012207031
436.116557744146	691.5
438.919558132792	688.700012207031
441.72161061724	693.299987792969
444.522715897858	692.200012207031
447.322874673459	693.200012207031
450.122087641299	690.299987792969
452.920355497093	695.799987792969
455.71767893501	690
458.514058647682	688.400024414063
461.30949532622	688.400024414063
464.10398966019	688.599975585938
466.897542337651	687.900024414063
469.690154045117	688
472.481825467627	690.200012207031
475.272557288677	686.400024414063
478.062350190282	688.5
480.851204852952	688.400024414063
483.639121955686	684.299987792969
486.426102176009	685.099975585938
489.212146189958	688.299987792969
491.997254672092	689.099975585938
494.781428295473	686.900024414063
497.564667731718	687.900024414063
500.346973650961	690.5
503.12834672188	691.599975585938
505.908787611691	691.099975585938
508.688296986151	691.200012207031
511.466875509572	694.400024414063
514.244523844834	691.200012207031
517.021242653355	691.299987792969
519.797032595132	690.799987792969
522.571894328732	690.599975585938
525.34582851128	697.700012207031
528.118835798493	695.099975585938
530.890916844657	692.299987792969
533.66207230267	691.700012207031
536.432302823987	695.700012207031
539.201609058685	694.799987792969
541.969991655422	692.700012207031
544.737451261476	692
547.503988522724	693.299987792969
550.269604083663	691.099975585938
553.034298587396	694.099975585938
555.798072675669	693.299987792969
558.560926988819	690.700012207031
561.322862165851	699.5
564.083878844371	691.900024414063
566.843977660657	699.5
569.603159249605	696.200012207031
572.361424244772	701.299987792969
575.118773278369	697.099975585938
577.875206981241	701.900024414063
580.630725982908	704.700012207031
583.385330911566	703.099975585938
586.139022394078	698.200012207031
588.891801055957	700.200012207031
591.643667521408	705.099975585938
594.394622413318	706.5
597.144666353275	706.200012207031
599.893799961513	706.900024414063
602.642023857012	710.200012207031
605.389338657416	708.799987792969
608.13574497909	706.700012207031
610.881243437093	707.099975585938
613.625834645192	703.599975585938
616.369519215883	706
619.112297760377	705.5
621.854170888605	708
624.595139209227	707.299987792969
627.335203329614	706.599975585938
630.074363855917	704
632.81262139299	706.400024414063
635.549976544439	705.299987792969
638.286429912615	708.099975585938
641.021982098637	706.200012207031
643.756633702364	701.099975585938
646.490385322412	705.400024414063
649.223237556177	709.299987792969
651.955190999809	703.799987792969
654.686246248224	702.400024414063
657.416403895136	703.5
660.145664533012	708.799987792969
662.874028753135	710.299987792969
665.601497145537	703.5
668.328070299073	707.599975585938
671.05374880138	708.400024414063
673.778533238886	709.900024414063
676.502424196839	707.5
679.225422259297	707.599975585938
681.947528009102	707.099975585938
684.66874202793	705.5
687.389064896282	712.799987792969
690.108497193467	706.599975585938
692.827039497622	713.200012207031
695.544692385727	705.299987792969
698.261456433588	706.299987792969
700.97733221585	709.5
703.692320305984	713.700012207031
706.406421276339	709.599975585938
709.119635698082	703.099975585938
711.831964141257	710.5
714.543407174743	706.799987792969
717.253965366306	713.799987792969
719.963639282554	713.599975585938
722.672429488964	707.299987792969
725.380336549907	710.400024414063
728.087361028599	713.400024414063
730.793503487167	713.599975585938
733.498764486595	711.200012207031
736.203144586759	710.200012207031
738.906644346449	707.299987792969
741.609264323313	715.900024414063
744.311005073915	712.299987792969
747.01186715373	718.900024414063
749.711851117123	713.400024414063
752.410957517377	717.900024414063
755.109186906677	712.200012207031
757.806539836135	714.099975585938
760.503016855782	717.400024414063
763.198618514553	720.099975585938
765.893345360349	715.099975585938
768.587197939965	717
771.280176799143	716.099975585938
773.972282482569	717.599975585938
776.66351553386	716.5
779.353876495577	716
782.043365909243	712.799987792969
784.731984315328	714
787.419732253236	717.299987792969
790.106610261368	712.299987792969
792.792618877059	717.599975585938
795.477758636619	717.200012207031
798.162030075316	722.799987792969
800.845433727424	716.900024414063
803.527970126152	720.299987792969
806.209639803714	719.099975585938
808.890443291307	715.799987792969
811.5703811191	717.400024414063
814.249453816264	722.700012207031
816.927661910961	713.900024414063
819.605005930361	714.599975585938
822.281486400606	721
824.957103846867	722
827.631858793319	720.700012207031
830.305751763137	716.200012207031
832.978783278521	721.900024414063
835.650953860679	724.599975585938
838.322264029851	729
840.992714305294	730
843.662305205292	723.099975585938
846.331037247159	726.599975585938
848.998910947244	731.599975585938
851.665926820937	728.200012207031
854.332085382674	726.099975585938
856.997387145915	732.099975585938
859.661832623193	729.700012207031
862.325422326067	731.799987792969
864.988156765174	731.299987792969
867.650036450184	730.099975585938
870.311061889847	724.799987792969
872.971233591961	730.299987792969
875.630552063409	731.5
878.28901781013	734.200012207031
880.946631337141	731
883.603393148535	733.299987792969
886.259303747486	734.799987792969
888.914363636247	733.099975585938
891.568573316158	733.299987792969
894.22193328767	729.299987792969
896.874444050283	732.900024414063
899.526106102627	731.799987792969
902.176919942417	731.400024414063
904.826886066483	734
907.47600497075	738.299987792969
910.124277150257	737
912.771703099131	733.5
915.418283310643	739.900024414063
918.064018277177	740.200012207031
920.708908490222	736.700012207031
923.352954440405	737.5
925.996156617489	742.900024414063
928.638515510336	738.900024414063
931.280031606966	745.599975585938
933.920705394522	741.799987792969
936.560537359305	740.700012207031
939.19952798674	746.299987792969
941.837677761394	745.799987792969
944.474987167007	747.099975585938
947.111456686439	742.099975585938
949.747086801736	746.400024414063
952.381877994073	751.299987792969
955.015830743793	745.200012207031
957.648945530419	748
960.281222832634	746.099975585938
962.912663128263	744.099975585938
965.543266894337	748.099975585938
968.173034607059	750.599975585938
970.80196674178	747.599975585938
973.430063773072	756.099975585938
976.057326174661	752.599975585938
978.683754419475	751.599975585938
981.309348979625	747.799987792969
983.934110326421	755.099975585938
986.558038930362	750.200012207031
989.181135261147	753.200012207031
991.803399787692	757.200012207031
994.424832978086	755
997.045435299653	755.799987792969
999.665207218908	761.200012207031
1002.2841492016	755.400024414063
1004.90226171266	756.799987792969
1007.51954521628	758.700012207031
1010.13600017584	757.400024414063
1012.75162705397	764.200012207031
1015.3664263125	761.700012207031
1017.98039841251	765.5
1020.5935438143	765.099975585938
1023.20586297741	762.200012207031
1025.81735636063	766.599975585938
1028.42802442196	771.700012207031
1031.03786761869	764.5
1033.64688640732	767.400024414063
1036.2550812436	770.299987792969
1038.86245258256	771.700012207031
1041.46900087844	769.599975585938
1044.07472658479	770
1046.67963015438	773
1049.28371203926	773.5
1051.88697269076	779.5
1054.48941255943	779.400024414063
1057.09103209513	792.400024414063
1059.691831747	790.299987792969
1062.29181196343	793.599975585938
1064.89097319211	791.700012207031
1067.48931587999	785.900024414063
1070.08684047333	786.599975585938
1072.68354741766	777.200012207031
1075.2794371578	782.599975585938
1077.87451013787	781.200012207031
1080.46876680127	784.5
1083.06220759071	787.200012207031
1085.65483294822	780.200012207031
1088.24664331509	781.900024414063
1090.83763913194	783.200012207031
1093.4278208387	786.900024414063
1096.01718887459	789.200012207031
1098.60574367818	786.599975585938
1101.19348568732	791.900024414063
1103.78041533919	791
1106.3665330703	795.299987792969
1108.95183931646	792.599975585938
1111.53633451284	786.299987792969
1114.12001909391	796.099975585938
1116.70289349349	800.200012207031
1119.28495814471	798.700012207031
1121.86621348006	812.700012207031
1124.44665993134	817.900024414063
1127.02629792974	825.799987792969
1129.60512790574	828.299987792969
1132.18315028919	816.599975585938
1134.76036550929	811.900024414063
1137.3367739946	808.700012207031
1139.912376173	811
1142.48717247176	806.900024414063
1145.06116331749	813.799987792969
1147.63434913616	810.799987792969
1150.20673035312	818.5
1152.77830739307	812.099975585938
1155.34908068007	813.099975585938
1157.91905063757	819
1160.48821768838	822.700012207031
1163.05658225471	812.299987792969
1165.6241447581	813.799987792969
1168.19090561951	816.200012207031
1170.75686525927	817.5
1173.32202409709	823.400024414063
1175.88638255206	809.400024414063
1178.44994104269	814.099975585938
1181.01269998685	819
1183.57465980182	819.599975585938
1186.13582090427	814.099975585938
1188.69618371026	816.299987792969
1191.25574863529	818.5
1193.8145160942	820.700012207031
1196.37248650129	827.5
1198.92966027025	826.099975585938
1201.48603781417	826.799987792969
1204.04161954556	826.299987792969
1206.59640587635	823.700012207031
1209.15039721788	830.200012207031
1211.70359398092	834.900024414063
1214.25599657564	835.200012207031
1216.80760541166	834.400024414063
1219.35842089801	838.099975585938
1221.90844344314	839.700012207031
1224.45767345496	838.400024414063
1227.00611134077	839.099975585938
1229.55375750736	838.099975585938
1232.10061236092	842.799987792969
1234.64667630707	844.400024414063
1237.1919497509	847.200012207031
1239.73643309692	857
1242.28012674912	846.099975585938
1244.82303111089	861.799987792969
1247.36514658511	858
1249.90647357411	860.400024414063
1252.44701247964	868.599975585938
1254.98676370294	860
1257.52572764469	870.900024414063
1260.06390470506	872.400024414063
1262.60129528365	874.200012207031
1265.13789977955	878
1267.67371859128	879
1270.20875211688	890
1272.74300075384	882.099975585938
1275.2764648991	884.400024414063
1277.80914494911	892.5
1280.34104129979	889.799987792969
1282.87215434652	896.5
1285.40248448419	896.700012207031
1287.93203210715	903.700012207031
1290.46079760927	918.099975585938
1292.98878138385	934.299987792969
1295.51598382375	934.799987792969
1298.04240532127	929.700012207031
1300.56804626823	920.200012207031
1303.09290705594	921
1305.6169880752	933.799987792969
1308.14028971632	925.299987792969
1310.66281236913	927.599975585938
1313.18455642292	935.400024414063
1315.70552226653	927.900024414063
1318.22571028829	923.400024414063
1320.74512087603	933.099975585938
1323.26375441711	940.700012207031
1325.7816112984	941.5
1328.29869190629	946.700012207031
1330.81499662667	951
1333.33052584497	952.200012207031
1335.84527994613	963.200012207031
1338.35925931464	966.900024414063
1340.87246433447	966.200012207031
1343.38489538916	961.700012207031
1345.89655286177	980
1348.40743713487	983.5
1350.91754859059	985.299987792969
1353.42688761059	992.700012207031
1355.93545457606	985.200012207031
1358.44324986772	996.200012207031
1360.95027386588	1009.79998779297
1363.45652695032	1003.09997558594
1365.96200950043	1020.20001220703
1368.4667218951	1013.59997558594
1370.97066451281	1022.70001220703
1373.47383773156	1016
1375.97624192891	1035.80004882813
1378.47787748199	1026.30004882813
1380.97874476746	1025.5
1383.47884416157	1037.19995117188
1385.9781760401	1035.90002441406
1388.4767407784	1043.5
1390.9745387514	1045.09997558594
1393.47157033358	1051.40002441406
1395.96783589898	1058.59997558594
1398.46333582124	1058.40002441406
1400.95807047355	1067
1403.45204022865	1069.59997558594
1405.94524545889	1071.40002441406
1408.4376865362	1080.69995117188
1410.92936383205	1088
1413.42027771753	1103.5
1415.91042856328	1121.40002441406
1418.39981673955	1108.19995117188
1420.88844261615	1118.59997558594
1423.37630656249	1119.40002441406
1425.86340894757	1136.19995117188
1428.34975013999	1147.90002441406
1430.83533050792	1155.19995117188
1433.32015041912	1169.59997558594
1435.80421024098	1171.19995117188
1438.28751034046	1195
1440.77005108411	1197
1443.25183283812	1208.59997558594
1445.73285596824	1220.30004882813
1448.21312083984	1222.69995117188
1450.69262781791	1227.30004882813
1453.17137726702	1233.80004882813
1455.64936955137	1240.90002441406
1458.12660503477	1258.5
1460.60308408063	1253.30004882813
1463.07880705198	1264.90002441406
1465.55377431145	1282.30004882813
1468.02798622133	1281.40002441406
1470.50144314349	1288.5
1472.97414543941	1302.09997558594
1475.44609347025	1303.69995117188
1477.91728759673	1307.19995117188
1480.38772817924	1328.90002441406
1482.85741557777	1336.19995117188
1485.32635015194	1336.19995117188
1487.79453226103	1342.19995117188
1490.26196226392	1350.5
1492.72864051911	1364
1495.1945673848	1366.59997558594
1497.65974321875	1379.80004882813
1500.1241683784	1387
1502.58784322083	1393.5
1505.05076810274	1411.80004882813
1507.51294338049	1425.90002441406
1509.97436941009	1435.59997558594
1512.43504654718	1434.09997558594
1514.89497514704	1448.19995117188
1517.35415556462	1455.40002441406
1519.8125881545	1475.80004882813
1522.27027327095	1480.59997558594
1524.72721126785	1486.69995117188
1527.18340249875	1492.59997558594
1529.63884731684	1524.09997558594
1532.09354607502	1528.19995117188
1534.5474991258	1550.5
1537.00070682136	1543
1539.45316951355	1556.5
1541.90488755388	1575.69995117188
1544.35586129354	1566.59997558594
1546.80609108336	1613.09997558594
1549.25557727385	1606.59997558594
1551.70432021519	1621.40002441406
1554.15232025725	1633.80004882813
1556.59957774954	1659.40002441406
1559.04609304125	1683.09997558594
1561.49186648127	1675.90002441406
1563.93689841815	1688.40002441406
1566.38118920011	1689.69995117188
1568.82473917506	1722.19995117188
1571.2675486906	1727.90002441406
1573.70961809399	1741.30004882813
1576.15094773219	1756.5
1578.59153795185	1765
1581.03138909928	1773.80004882813
1583.47050152051	1796.90002441406
1585.90887556123	1787.59997558594
1588.34651156686	1806.30004882813
1590.78340988246	1812
1593.21957085283	1819.19995117188
1595.65499482245	1818.30004882813
1598.08968213547	1828.09997558594
1600.52363313578	1837.40002441406
1602.95684816695	1859.69995117188
1605.38932757224	1853.90002441406
1607.82107169462	1852.59997558594
1610.25208087678	1857.5
1612.68235546107	1878.5
1615.1118957896	1879.19995117188
1617.54070220415	1885.59997558594
1619.96877504622	1879.59997558594
1622.39611465702	1900.80004882813
1624.82272137746	1895.90002441406
1627.24859554818	1905.80004882813
1629.67373750953	1890.40002441406
1632.09814760155	1919.69995117188
1634.52182616404	1907.40002441406
1636.94477353648	1923
1639.36699005807	1913.59997558594
1641.78847606776	1947.90002441406
1644.20923190419	1949.80004882813
1646.62925790573	1950.59997558594
1649.04855441048	1958.19995117188
1651.46712175628	1976.80004882813
1653.88496028066	1966.09997558594
1656.3020703209	1998.59997558594
1658.71845221401	2002.5
1661.13410629671	2032.5
1663.54903290548	2044.90002441406
1665.96323237649	2045.5
1668.37670504571	2053.80004882813
1670.78945124877	2058.19995117188
1673.20147132109	2063.5
1675.61276559779	2089.60009765625
1678.02333441377	2085.69995117188
1680.43317810362	2090.39990234375
1682.84229700171	2115.5
1685.25069144213	2119.60009765625
1687.65836175872	2126.80004882813
1690.06530828507	2126.80004882813
1692.47153135451	2121.89990234375
1694.8770313001	2135.10009765625
1697.28180845468	2161
1699.6858631508	2153
1702.08919572081	2162.39990234375
1704.49180649676	2169.80004882813
1706.89369581049	2177.19995117188
1709.29486399356	2184.19995117188
1711.69531137731	2183
1714.09503829282	2181.39990234375
1716.49404507096	2178.39990234375
1718.89233204229	2220.30004882813
1721.28989953721	2204.10009765625
1723.68674788581	2200
1726.08287741798	2205.19995117188
1728.47828846338	2224
1730.87298135139	2203.80004882813
1733.26695641119	2229.39990234375
1735.66021397173	2219.89990234375
1738.05275436169	2235.60009765625
1740.44457790955	2254.69995117188
1742.83568494355	2253
1745.22607579168	2257.89990234375
1747.61575078175	2243.39990234375
1750.00471024128	2265.39990234375
1752.39295449761	2268
1754.78048387783	2276.5
1757.16729870881	2276.39990234375
1759.5533993172	2293.19995117188
1761.93878602942	2296.60009765625
1764.32345917168	2309.89990234375
1766.70741906995	2331.19995117188
1769.09066604999	2320.60009765625
1771.47320043736	2349.89990234375
1773.85502255735	2346.19995117188
1776.2361327351	2353.39990234375
1778.61653129548	2350.30004882813
1780.99621856318	2368.10009765625
1783.37519486264	2381.5
1785.75346051813	2396
1788.13101585368	2402.19995117188
1790.50786119311	2398.39990234375
1792.88399686002	2417.69995117188
1795.25942317785	2446.69995117188
1797.63414046977	2416.89990234375
1800.00814905878	2437.19995117188
1802.38144926766	2443.39990234375
1804.75404141898	2467.60009765625
1807.12592583514	2456.5
1809.49710283829	2464.60009765625
1811.86757275039	2465.39990234375
1814.23733589322	2491.10009765625
1816.60639258834	2474.39990234375
1818.97474315712	2484.39990234375
1821.34238792073	2487.30004882813
1823.70932720012	2487
1826.07556131608	2504
1828.44109058918	2506
1830.8059153398	2511.60009765625
1833.17003588812	2518.60009765625
1835.53345255413	2511.89990234375
1837.89616565765	2536.60009765625
1840.25817551827	2527.80004882813
1842.61948245541	2549.80004882813
1844.9800867883	2545.60009765625
1847.33998883598	2549.10009765625
1849.6991889173	2557.89990234375
1852.05768735091	2578.69995117188
1854.4154844553	2573.69995117188
1856.77258054875	2573.19995117188
1859.12897594938	2572.30004882813
1861.48467097511	2588.69995117188
1863.83966594367	2580.19995117188
1866.19396117261	2590.5
1868.54755697932	2604.5
1870.90045368099	2619.30004882813
1873.25265159463	2610.69995117188
1875.60415103708	2645.60009765625
1877.95495232501	2664.39990234375
1880.30505577487	2664.60009765625
1882.65446170299	2667
1885.00317042549	2692
1887.35118225832	2686.39990234375
1889.69849751726	2693.39990234375
1892.04511651792	2693.30004882813
1894.39103957574	2724.89990234375
1896.73626700596	2698.89990234375
1899.08079912369	2734.60009765625
1901.42463624384	2754
1903.76777868116	2749
1906.11022675025	2772.30004882813
1908.4519807655	2762.60009765625
1910.79304104117	2777.80004882813
1913.13340789134	2780.89990234375
1915.47308162993	2779.60009765625
1917.81206257067	2799.30004882813
1920.15035102718	2811.60009765625
1922.48794731286	2790
1924.82485174096	2795
1927.16106462461	2806.5
1929.49658627672	2815.30004882813
1931.83141701008	2797.60009765625
1934.1655571373	2795.5
1936.49900697085	2790.69995117188
1938.83176682301	2802.10009765625
1941.16383700594	2822.60009765625
1943.49521783161	2795.69995117188
1945.82590961186	2809.89990234375
1948.15591265835	2786.89990234375
1950.48522728262	2813.69995117188
1952.81385379602	2798
1955.14179250976	2806.39990234375
1957.46904373489	2812.89990234375
1959.79560778233	2814.30004882813
1962.12148496284	2815.19995117188
1964.44667558701	2809.60009765625
1966.77117996529	2813.89990234375
1969.094998408	2823.60009765625
1971.41813122527	2836.69995117188
1973.74057872714	2860.60009765625
1976.06234122345	2856.10009765625
1978.38341902391	2828
1980.7038124381	2864.10009765625
1983.02352177544	2881.60009765625
1985.34254734518	2875.39990234375
1987.66088945649	2891.69995117188
1989.97854841833	2881.69995117188
1992.29552453956	2885.19995117188
1994.61181812887	2876.69995117188
1996.92742949483	2908.39990234375
1999.24235894586	2915.19995117188
2001.55660679023	2919.30004882813
2003.87017333609	2930.10009765625
2006.18305889143	2931.60009765625
2008.49526376413	2937.19995117188
2010.80678826189	2940.19995117188
2013.1176326923	2955.69995117188
2015.42779736282	2960.30004882813
2017.73728258075	2968.19995117188
2020.04608865326	2976.89990234375
2022.35421588741	2969.19995117188
2024.66166459008	3014.5
2026.96843506807	3004.19995117188
2029.274527628	3043.30004882813
2031.57994257638	3040.39990234375
2033.88468021957	3021.69995117188
2036.18874086383	3038.60009765625
2038.49212481526	3040
2040.79483237983	3049.39990234375
2043.0968638634	3064.60009765625
2045.39821957169	3073.19995117188
2047.69889981028	3071
2049.99890488462	3055.69995117188
2052.29823510007	3086.80004882813
2054.59689076181	3074.19995117188
2056.89487217492	3084.39990234375
2059.19217964437	3077.5
2061.48881347497	3085.5
2063.7847739714	3102.10009765625
2066.08006143827	3105.89990234375
2068.37467618	3078.69995117188
2070.66861850093	3110.19995117188
2072.96188870527	3106.10009765625
2075.25448709708	3081.80004882813
2077.54641398031	3121.60009765625
2079.83766965881	3119.89990234375
2082.12825443629	3131.39990234375
2084.41816861634	3139.39990234375
2086.70741250242	3108.30004882813
2088.99598639789	3134.39990234375
2091.28389060597	3143.19995117188
2093.57112542978	3132.69995117188
2095.85769117232	3142
2098.14358813644	3152.39990234375
2100.42881662491	3139.39990234375
2102.71337694037	3156.80004882813
2104.99726938533	3153.10009765625
2107.28049426219	3163.39990234375
2109.56305187326	3168.89990234375
2111.84494252069	3205.69995117188
2114.12616650655	3190.60009765625
2116.40672413278	3167.10009765625
2118.68661570121	3189.89990234375
2120.96584151355	3224
2123.24440187139	3235.89990234375
2125.52229707622	3231.5
2127.79952742943	3215.60009765625
2130.07609323227	3242.19995117188
2132.35199478588	3249.39990234375
2134.62723239132	3263.19995117188
2136.90180634949	3264
2139.17571696123	3257.30004882813
2141.44896452723	3271.60009765625
2143.72154934809	3281.10009765625
2145.9934717243	3276.60009765625
2148.26473195623	3269.5
2150.53533034415	3313.10009765625
2152.80526718822	3291.10009765625
2155.07454278848	3292
2157.3431574449	3278.69995117188
2159.61111145728	3287.80004882813
2161.87840512538	3301.5
2164.1450387488	3305.5
2166.41101262707	3288.60009765625
2168.67632705959	3311
2170.94098234567	3292.89990234375
2173.20497878451	3278
2175.4683166752	3290.60009765625
2177.73099631673	3287
2179.99301800797	3315
2182.25438204773	3293.10009765625
2184.51508873466	3277.10009765625
2186.77513836735	3291.30004882813
2189.03453124427	3291.10009765625
2191.29326766378	3272.30004882813
2193.55134792416	3287.89990234375
2195.80877232355	3299.80004882813
2198.06554116004	3245.5
2200.32165473157	3241.30004882813
2202.577113336	3243.60009765625
2204.83191727111	3269.30004882813
2207.08606683453	3253.89990234375
2209.33956232384	3235.19995117188
2211.59240403649	3238.69995117188
2213.84459226982	3225.60009765625
2216.09612732112	3216.19995117188
2218.34700948753	3210
2220.59723906612	3195
2222.84681635385	3200.19995117188
2225.09574164758	3172.39990234375
2227.34401524408	3194.19995117188
2229.59163744002	3169.80004882813
2231.83860853197	3178.30004882813
2234.08492881639	3154.19995117188
2236.33059858968	3138.39990234375
2238.5756181481	3176.60009765625
2240.81998778785	3144.5
2243.06370780499	3127.60009765625
2245.30677849555	3139.80004882813
2247.54920015539	3121.89990234375
2249.79097308033	3107.89990234375
2252.03209756607	3106.30004882813
2254.27257390822	3092.10009765625
2256.51240240228	3110.69995117188
2258.75158334369	3065.19995117188
2260.99011702777	3086.10009765625
2263.22800374976	3080.60009765625
2265.46524380477	3070.60009765625
2267.70183748787	3055.30004882813
2269.93778509399	3042
2272.17308691801	3051
2274.40774325467	3044.5
2276.64175439866	3019.5
2278.87512064454	3026.19995117188
2281.10784228682	3019.19995117188
2283.33991961987	3007.69995117188
2285.571352938	2999.30004882813
2287.80214253541	2989
2290.03228870623	3001.10009765625
2292.26179174449	2977.5
2294.4906519441	2960.60009765625
2296.71886959893	2966.89990234375
2298.94644500271	2936.5
2301.1733784491	2936.89990234375
2303.39967023169	2919.39990234375
2305.62532064395	2910.89990234375
2307.85032997926	2904.69995117188
2310.07469853093	2890.30004882813
2312.29842659216	2878.5
2314.52151445608	2895.5
2316.7439624157	2865.89990234375
2318.96577076398	2876.19995117188
2321.18693979374	2866.69995117188
2323.40746979777	2839.60009765625
2325.62736106873	2822
2327.8466138992	2833.10009765625
2330.06522858166	2815.60009765625
2332.28320540853	2817.80004882813
2334.50054467212	2816.5
2336.71724666465	2796.10009765625
2338.93331167827	2780.39990234375
2341.14874000501	2782
2343.36353193685	2758.80004882813
2345.57768776564	2735
2347.79120778319	2731.80004882813
2350.00409228117	2727.89990234375
2352.21634155121	2720.19995117188
2354.42795588482	2699.89990234375
2356.63893557343	2719.69995117188
2358.84928090839	2677.10009765625
2361.05899218094	2703.69995117188
2363.26806968228	2683.69995117188
2365.47651370347	2669.10009765625
2367.68432453552	2677
2369.89150246933	2675.30004882813
2372.09804779571	2645.5
2374.30396080541	2642
2376.50924178907	2622.80004882813
2378.71389103725	2608.39990234375
2380.91790884042	2599
2383.12129548898	2594.89990234375
2385.32405127321	2597.10009765625
2387.52617648332	2563.30004882813
2389.72767140946	2575
2391.92853634165	2559.80004882813
2394.12877156985	2549.80004882813
2396.32837738393	2578.19995117188
2398.52735407365	2555.19995117188
2400.72570192873	2544.19995117188
2402.92342123875	2515.19995117188
2405.12051229325	2518.19995117188
2407.31697538167	2530.5
2409.51281079334	2516.19995117188
2411.70801881751	2500.89990234375
2413.90259974339	2515.69995117188
2416.09655386005	2513.5
2418.28988145648	2478.39990234375
2420.48258282163	2471
2422.6746582443	2450
2424.86610801325	2466.10009765625
2427.05693241713	2447.89990234375
2429.24713174452	2440.69995117188
2431.43670628389	2462
2433.62565632365	2446.39990234375
2435.81398215213	2422.10009765625
2438.00168405752	2425.30004882813
2440.18876232799	2426.80004882813
2442.37521725158	2418.69995117188
2444.56104911628	2395.80004882813
2446.74625820994	2412.10009765625
2448.93084482038	2390
2451.1148092353	2398.69995117188
2453.29815174233	2374.39990234375
2455.480872629	2352.89990234375
2457.66297218276	2363.60009765625
2459.84445069097	2325.19995117188
2462.02530844092	2344
2464.2055457198	2311.60009765625
2466.38516281471	2326
2468.56416001267	2314.19995117188
2470.74253760061	2288.80004882813
2472.92029586537	2299
2475.09743509372	2309.10009765625
2477.27395557232	2294.89990234375
2479.44985758777	2297.30004882813
2481.62514142655	2300.5
2483.79980737509	2283.69995117188
2485.97385571969	2263.19995117188
2488.1472867466	2257
2490.32010074198	2253.60009765625
2492.49229799188	2257.5
2494.66387878228	2243.39990234375
2496.83484339905	2263.69995117188
2499.00519212802	2241.5
2501.17492525489	2245.5
2503.34404306528	2242.39990234375
2505.51254584473	2239
2507.6804338787	2230.80004882813
2509.84770745254	2223.80004882813
2512.01436685153	2235.60009765625
2514.18041236085	2214.89990234375
2516.34584426561	2231.39990234375
2518.51066285081	2201.80004882813
2520.67486840138	2218.89990234375
2522.83846120214	2216.10009765625
2525.00144153785	2199.10009765625
2527.16380969314	2191.5
2529.32556595261	2198
2531.48671060072	2185.80004882813
2533.64724392186	2182.60009765625
2535.80716620033	2197.10009765625
2537.96647772035	2178.60009765625
2540.12517876602	2187.10009765625
2542.2832696214	2162.60009765625
2544.44075057041	2158.60009765625
2546.59762189692	2135
2548.75388388467	2134
2550.90953681735	2133.5
2553.06458097853	2126.30004882813
2555.21901665172	2136.80004882813
2557.37284412031	2129.19995117188
2559.5260636676	2129
2561.67867557684	2114.60009765625
2563.83068013113	2091.19995117188
2565.98207761352	2103.10009765625
2568.13286830695	2100.60009765625
2570.28305249429	2082.89990234375
2572.43263045829	2097.69995117188
2574.58160248163	2063.39990234375
2576.72996884689	2075.39990234375
2578.87772983656	2050.89990234375
2581.02488573303	2059.39990234375
2583.1714368186	2046.59997558594
2585.3173833755	2027.09997558594
2587.46272568582	2024.69995117188
2589.60746403161	2058.39990234375
2591.75159869479	2041.69995117188
2593.89512995722	2020.80004882813
2596.03805810062	2027.69995117188
2598.18038340665	2019.69995117188
2600.32210615686	2006.90002441406
2602.46322663274	2022
2604.60374511563	2020
2606.74366188683	1997
2608.88297722751	1993.69995117188
2611.02169141875	1996.30004882813
2613.15980474156	2001.30004882813
2615.29731747681	1998.19995117188
2617.43422990532	1979.09997558594
2619.57054230779	1992.80004882813
2621.70625496483	1984.30004882813
2623.84136815695	1977.80004882813
2625.97588216456	1997.90002441406
2628.10979726799	1972.80004882813
2630.24311374746	1984.59997558594
2632.3758318831	1971.80004882813
2634.50795195493	1972.90002441406
2636.6394742429	1985.80004882813
2638.77039902682	1980.30004882813
2640.90072658645	1968.80004882813
2643.0304572014	1974.19995117188
2645.15959115123	1975.30004882813
2647.28812871538	1982.09997558594
2649.41607017319	1977.80004882813
2651.5434158039	1977.5
2653.67016588665	1955.90002441406
2655.79632070049	1945.5
2657.92188052436	1958.90002441406
2660.04684563712	1962.40002441406
2662.17121631749	1953.40002441406
2664.29499284413	1961.80004882813
2666.41817549558	1930.59997558594
2668.54076455028	1955.59997558594
2670.66276028656	1952.40002441406
2672.78416298267	1945.69995117188
2674.90497291675	1959.90002441406
2677.02519036682	1930.90002441406
2679.14481561082	1948.5
2681.26384892658	1956.59997558594
2683.38229059183	1944.09997558594
2685.50014088417	1936.69995117188
2687.61740008115	1945.30004882813
2689.73406846017	1951.59997558594
2691.85014629854	1950.40002441406
2693.96563387347	1942.59997558594
2696.08053146206	1930.5
2698.1948393413	1922.30004882813
2700.3085577881	1935.90002441406
2702.42168707924	1927.30004882813
2704.53422749139	1934.90002441406
2706.64617930112	1921.59997558594
2708.75754278492	1927.69995117188
2710.86831821914	1931.90002441406
2712.97850588002	1928.30004882813
2715.08810604372	1937.80004882813
2717.19711898628	1942.09997558594
2719.30554498363	1933.90002441406
2721.41338431159	1923.19995117188
2723.52063724587	1928.90002441406
2725.62730406207	1930.5
2727.73338503569	1934.30004882813
2729.83888044213	1918.59997558594
2731.94379055665	1924.5
2734.04811565441	1933.5
2736.15185601048	1948.69995117188
2738.25501189979	1934
2740.35758359718	1926.80004882813
2742.45957137738	1929.69995117188
2744.56097551499	1938.69995117188
2746.6617962845	1921.09997558594
2748.7620339603	1921.59997558594
2750.86168881666	1923.09997558594
2752.96076112774	1937.09997558594
2755.05925116759	1939.5
2757.15715921013	1935
2759.25448552917	1929.40002441406
2761.35123039843	1914.80004882813
2763.44739409148	1932.40002441406
2765.54297688181	1932.09997558594
2767.63797904275	1924.19995117188
2769.73240084756	1941.09997558594
2771.82624256935	1933.40002441406
2773.91950448113	1916.69995117188
2776.01218685579	1943.69995117188
2778.10428996609	1927.40002441406
2780.1958140847	1944.80004882813
2782.28675948414	1927.09997558594
2784.37712643683	1953.30004882813
2786.46691521507	1943.59997558594
2788.55612609103	1931.30004882813
2790.64475933678	1939.40002441406
2792.73281522425	1939.30004882813
2794.82029402525	1940.59997558594
2796.90719601149	1937.30004882813
2798.99352145453	1933.30004882813
2801.07927062583	1934
2803.16444379672	1954.40002441406
2805.24904123841	1945.40002441406
2807.33306322197	1939.90002441406
2809.41651001838	1955.59997558594
2811.49938189847	1960.19995117188
2813.58167913296	1955.30004882813
2815.66340199243	1941.5
2817.74455074734	1949.80004882813
2819.82512566805	1976.09997558594
2821.90512702475	1964.40002441406
2823.98455508754	1979
2826.06341012637	1986.59997558594
2828.14169241109	1990.09997558594
2830.2194022114	2002
2832.29653979686	2000.59997558594
2834.37310543694	2049.19995117188
2836.44909940096	2069.89990234375
2838.52452195811	2118.10009765625
2840.59937337745	2147.69995117188
2842.67365392791	2177.89990234375
2844.7473638783	2205.80004882813
2846.82050349728	2219.80004882813
2848.8930730534	2220.60009765625
2850.96507281507	2196.30004882813
2853.03650305056	2189.89990234375
2855.10736402802	2172.19995117188
2857.17765601545	2149.5
2859.24737928075	2151.80004882813
2861.31653409164	2153.60009765625
2863.38512071574	2146.10009765625
2865.45313942054	2146.19995117188
2867.52059047335	2142.5
2869.58747414139	2160.19995117188
2871.65379069173	2156.69995117188
2873.7195403913	2188.5
2875.78472350688	2197.60009765625
2877.84934030515	2272.89990234375
2879.91339105262	2297.10009765625
2881.97687601567	2284.80004882813
2884.03979546054	2264.39990234375
2886.10214965333	2225.30004882813
2888.16393886001	2211.39990234375
2890.22516334639	2219.39990234375
2892.28582337816	2204.89990234375
2894.34591922087	2201.80004882813
2896.40545113992	2208.69995117188
2898.46441940054	2210.30004882813
2900.52282426787	2198.80004882813
2902.58066600687	2200.69995117188
2904.63794488237	2224.89990234375
2906.69466115906	2186.89990234375
2908.75081510147	2187.5
2910.806406974	2188.30004882813
2912.86143704089	2188.19995117188
2914.91590556626	2190.89990234375
2916.96981281405	2198.5
2919.02315904807	2175.5
2921.07594453199	2204
2923.12816952932	2191.10009765625
2925.17983430343	2196.89990234375
2927.23093911753	2208.19995117188
2929.28148423469	2206.30004882813
2931.33146991782	2197.10009765625
2933.3808964297	2177.69995117188
2935.42976403294	2179.5
2937.47807299	2197.39990234375
2939.5258235632	2179.80004882813
2941.57301601469	2175.80004882813
2943.61965060648	2165.30004882813
2945.66572760042	2170.30004882813
2947.71124725823	2169
2949.75620984144	2170.89990234375
2951.80061561143	2187.80004882813
2953.84446482945	2165
2955.88775775656	2171.30004882813
2957.9304946537	2166.60009765625
2959.97267578162	2167.30004882813
2962.01430140095	2174.19995117188
2964.05537177211	2185.60009765625
2966.09588715541	2187.69995117188
2968.13584781097	2190.80004882813
2970.17525399875	2185.39990234375
2972.21410597859	2194.5
2974.25240401012	2206.19995117188
2976.29014835283	2212.60009765625
2978.32733926604	2217.39990234375
2980.36397700893	2219.60009765625
2982.40006184049	2215.89990234375
2984.43559401955	2228.19995117188
2986.4705738048	2231.80004882813
2988.50500145474	2249.10009765625
2990.53887722771	2247.5
2992.57220138189	2257.89990234375
2994.6049741753	2256.69995117188
2996.63719586576	2268.39990234375
2998.66886671097	2257.5
3000.69998696843	2277.80004882813
3002.73055689549	2286.69995117188
3004.7605767493	2304.89990234375
3006.79004678688	2298.39990234375
3008.81896726505	2290.60009765625
3010.84733844048	2286.5
3012.87516056966	2305
3014.9024339089	2303.5
3016.92915871434	2331.89990234375
3018.95533524196	2327.30004882813
3020.98096374756	2344.10009765625
3023.00604448676	2322.89990234375
3025.030577715	2347.30004882813
3027.05456368757	2358.19995117188
3029.07800265956	2334.89990234375
3031.10089488589	2344.80004882813
3033.12324062131	2373.5
3035.14504012038	2373.19995117188
3037.16629363749	2363.10009765625
3039.18700142685	2382.5
3041.20716374249	2383.39990234375
3043.22678083826	2367.60009765625
3045.24585296783	2377.5
3047.26438038468	2377.30004882813
3049.28236334212	2379.30004882813
3051.29980209329	2399
3053.31669689111	2367.89990234375
3055.33304798835	2397.60009765625
3057.34885563757	2385.30004882813
3059.36412009117	2389.5
3061.37884160135	2371.30004882813
3063.39302042012	2393.69995117188
3065.40665679932	2404.69995117188
3067.41975099059	2399.60009765625
3069.43230324538	2404.5
3071.44431381495	2387
3073.45578295041	2394.80004882813
3075.46671090261	2397.5
3077.47709792227	2407.80004882813
3079.48694425989	2389.5
3081.49625016579	2393.10009765625
3083.50501589008	2397.89990234375
3085.51324168271	2418.89990234375
3087.5209277934	2398.69995117188
3089.52807447169	2426.10009765625
3091.53468196695	2411.80004882813
3093.54075052832	2410.19995117188
3095.54628040476	2431.60009765625
3097.55127184503	2435.10009765625
3099.55572509769	2417.5
3101.55964041111	2430.19995117188
3103.56301803346	2430.89990234375
3105.5658582127	2442.19995117188
3107.56816119661	2451.69995117188
3109.56992723275	2428.19995117188
3111.5711565685	2440.60009765625
3113.57184945101	2438.89990234375
3115.57200612724	2454.5
3117.57162684397	2433.69995117188
3119.57071184775	2482.69995117188
3121.56926138493	2466.80004882813
3123.56727570166	2477.69995117188
3125.56475504389	2452.5
3127.56169965735	2467.89990234375
3129.55810978757	2458.69995117188
3131.55398567988	2469.60009765625
3133.54932757938	2482.39990234375
3135.54413573099	2504.10009765625
3137.53841037939	2474.69995117188
3139.53215176909	2470.5
3141.52536014435	2510.39990234375
3143.51803574925	2494.39990234375
3145.51017882762	2500.80004882813
3147.50178962312	2513.89990234375
3149.49286837916	2525.19995117188
3151.48341533897	2508.89990234375
3153.47343074553	2527.69995117188
3155.46291484164	2493.30004882813
3157.45186786985	2533.5
3159.44029007252	2499.69995117188
3161.42818169179	2488.39990234375
3163.41554296956	2526
3165.40237414753	2553
3167.38867546717	2531.19995117188
3169.37444716976	2520.5
3171.35968949631	2543.60009765625
3173.34440268765	2531.69995117188
3175.32858698436	2530.10009765625
3177.31224262683	2546.5
3179.29536985518	2543
3181.27796890934	2550.19995117188
3183.26004002902	2540.69995117188
3185.24158345368	2570.89990234375
3187.22259942256	2541.30004882813
3189.2030881747	2546.60009765625
3191.18304994886	2546.69995117188
3193.16248498363	2572.19995117188
3195.14139351733	2558.69995117188
3197.11977578807	2578.19995117188
3199.09763203372	2560
3201.07496249191	2576.39990234375
3203.05176740007	2570.5
3205.02804699537	2564.5
3207.00380151475	2585.5
3208.97903119493	2564.5
3210.95373627239	2595.60009765625
3212.92791698335	2606.30004882813
3214.90157356383	2588.19995117188
3216.8747062496	2595.10009765625
3218.84731527619	2607.89990234375
3220.81940087889	2613.19995117188
3222.79096329275	2620
3224.76200275259	2610.89990234375
3226.73251949298	2631.89990234375
3228.70251374826	2634.30004882813
3230.67198575251	2609.39990234375
3232.64093573959	2624.89990234375
3234.6093639431	2639.80004882813
3236.57727059641	2643.5
3238.54465593262	2655.89990234375
3240.51152018462	2649.39990234375
3242.47786358502	2647.30004882813
3244.44368636621	2656.80004882813
3246.40898876032	2635.60009765625
3248.37377099923	2665
3250.33803331458	2671.69995117188
3252.30177593775	2672.69995117188
3254.26499909988	2666.39990234375
3256.22770303184	2690.5
3258.18988796427	2663.5
3260.15155412755	2684.30004882813
3262.1127017518	2661.69995117188
3264.0733310669	2681
3266.03344230246	2670.30004882813
3267.99303568784	2676.5
3269.95211145215	2672.39990234375
3271.91066982422	2690.80004882813
3273.86871103267	2687.5
3275.82623530581	2695.89990234375
3277.78324287171	2710
3279.73973395818	2699
3281.69570879278	2715.39990234375
3283.65116760281	2719.19995117188
3285.60611061527	2714.60009765625
3287.56053805694	2692.80004882813
3289.51445015432	2699.30004882813
3291.46784713364	2713.39990234375
3293.42072922088	2698.5
3295.37309664173	2705.89990234375
3297.32494962163	2696.80004882813
3299.27628838576	2689.10009765625
3301.22711315901	2701.69995117188
3303.17742416601	2698.39990234375
3305.12722163114	2717.10009765625
3307.07650577848	2682.80004882813
3309.02527683185	2725.69995117188
3310.9735350148	2703.89990234375
3312.9212805506	2726.10009765625
3314.86851366225	2698.69995117188
3316.81523457249	2700.69995117188
3318.76144350377	2703.10009765625
3320.70714067825	2694.19995117188
3322.65232631784	2692.30004882813
3324.59700064415	2677.39990234375
3326.54116387854	2691.19995117188
3328.48481624207	2693.5
3330.42795795552	2688.10009765625
3332.37058923938	2675.89990234375
3334.31271031389	2679.19995117188
3336.25432139899	2674.89990234375
3338.19542271433	2675.60009765625
3340.13601447927	2679.80004882813
3342.07609691292	2676.30004882813
3344.01567023407	2670.69995117188
3345.95473466125	2660.69995117188
3347.89329041266	2685.39990234375
3349.83133770628	2672.5
3351.76887675973	2674.69995117188
3353.70590779039	2648.39990234375
3355.64243101534	2666.30004882813
3357.57844665135	2670.60009765625
3359.51395491492	2659.69995117188
3361.44895602224	2688.69995117188
3363.38345018922	2674.39990234375
3365.31743763148	2674.19995117188
3367.25091856432	2669.69995117188
3369.18389320278	2654.39990234375
3371.11636176156	2663.69995117188
3373.0483244551	2675.5
3374.97978149754	2682.39990234375
3376.91073310269	2675.39990234375
3378.84117948409	2672.80004882813
3380.77112085498	2674.30004882813
3382.70055742827	2689.19995117188
3384.62948941659	2674
3386.55791703227	2645.80004882813
3388.48584048733	2664.10009765625
3390.41325999348	2698.39990234375
3392.34017576214	2683.80004882813
3394.26658800441	2676.69995117188
3396.19249693107	2669.19995117188
3398.11790275263	2658.60009765625
3400.04280567926	2681.10009765625
3401.96720592084	2686.5
3403.89110368692	2669.89990234375
3405.81449918675	2698.80004882813
3407.73739262928	2671.10009765625
3409.65978422312	2686.30004882813
3411.58167417659	2691.5
3413.50306269768	2684.10009765625
3415.42394999408	2683.10009765625
3417.34433627316	2687.10009765625
3419.26422174196	2688
3421.18360660721	2685.10009765625
3423.10249107532	2654.39990234375
3425.0208753524	2676
3426.93875964421	2673.10009765625
3428.85614415621	2685.89990234375
3430.77302909353	2660.30004882813
3432.68941466097	2664.5
3434.60530106302	2676.89990234375
3436.52068850384	2682.10009765625
3438.43557718726	2671.60009765625
3440.34996731681	2657.5
3442.26385909565	2654.80004882813
3444.17725272664	2665.69995117188
3446.09014841231	2668.30004882813
3448.00254635485	2659.89990234375
3449.91444675614	2656.10009765625
3451.82584981771	2651
3453.73675574076	2635.80004882813
3455.64716472616	2648
3457.55707697445	2644.39990234375
3459.46649268584	2638.69995117188
3461.37541206019	2654.39990234375
3463.28383529703	2645.5
3465.19176259556	2630.80004882813
3467.09919415464	2642.80004882813
3469.00613017278	2639.5
3470.91257084817	2639.69995117188
3472.81851637863	2648.19995117188
3474.72396696168	2650.10009765625
3476.62892279446	2628.89990234375
3478.5333840738	2627
3480.43735099614	2597.80004882813
3482.34082375764	2607.80004882813
3484.24380255404	2634
3486.1462875808	2637.89990234375
3488.048279033	2637
3489.94977710537	2609.5
3491.85078199231	2643
3493.75129388784	2629.69995117188
3495.65131298566	2605.60009765625
3497.5508394791	2626.10009765625
3499.44987356115	2609.60009765625