201.866871357053	1005.25
204.754250281456	1005.75
207.640596790939	1013.25
210.525911876301	1002.25
213.41019652569	1008
216.293451724511	998.75
219.175678455486	1017.75
222.056877698663	1003.75
224.937050431391	1008.5
227.816197628365	1016.25
230.694320261604	1018
233.571419300504	1029.5
236.447495711765	1018.5
239.322550459507	1045
242.196584505184	1058.25
245.069598807628	1042.75
247.94159432308	1042.5
250.812572005157	1041.5
253.682532804885	1040
256.551477670701	1063
259.419407548458	1035
262.286323381442	1033
265.152226110364	1043.25
268.017116673389	1038.25
270.880996006118	1040
273.743865041624	1043.5
276.605724710438	1045.25
279.466575940565	1062.75
282.326419657499	1056.75
285.185256784201	1065.5
288.04308824116	1061.5
290.899914946356	1049.5
293.75573781526	1054
296.610557760899	1047.25
299.464375693819	1049.25
302.317192522079	1055.75
305.169009151297	1057.75
308.019826484655	1053.25
310.869645422872	1054
313.718466864235	1047.75
316.566291704615	1067.75
319.41312083746	1070
322.258955153805	1051.5
325.103795542294	1062
327.947642889129	1063
330.79049807819	1044.25
333.63236199093	1048.75
336.473235506447	1055.75
339.313119501453	1055.75
342.152014850323	1057.75
344.989922425064	1065.75
347.826843095356	1084
350.662777728529	1082.25
353.497727189577	1082.25
356.331692341196	1070.5
359.164674043732	1073.5
361.996673155267	1081.75
364.827690531538	1074.25
367.657727026021	1075.5
370.486783489887	1084
373.314860772046	1083.5
376.14195971912	1072.5
378.968081175469	1090.25
381.793225983214	1094.5
384.617394982201	1089.25
387.44058901005	1100.75
390.262808902134	1121.25
393.084055491614	1131.5
395.904329609395	1153
398.723632084216	1155
401.541963742572	1128.25
404.359325408781	1134.75
407.17571790494	1124.5
409.991142050985	1113.25
412.805598664665	1106.25
415.619088561551	1115
418.431612555051	1106
421.243171456419	1109.25
424.05376607476	1116
426.86339721702	1120.75
429.672065688025	1096.75
432.479772290455	1112
435.28651782488	1130
438.092303089737	1127.25
440.897128881362	1128
443.700995993992	1130.5
446.503905219761	1151.75
449.305857348711	1155.25
452.106853168798	1157.5
454.906893465921	1160.25
457.705979023886	1157.25
460.504110624441	1148
463.301289047302	1134
466.09751507009	1127.5
468.892789468424	1122.25
471.687113015869	1135.25
474.480486483952	1110.25
477.272910642201	1127.75
480.064386258111	1130
482.854914097161	1145
485.644494922841	1139
488.433129496637	1138.75
491.22081857805	1127.75
494.007562924587	1120.25
496.793363291787	1149.25
499.578220433219	1130
502.362135100475	1144.25
505.145108043209	1149
507.927140009101	1146
510.70823174391	1134.25
513.488383991435	1149.75
516.267597493556	1159.75
519.045872990221	1152.5
521.823211219462	1155.25
524.5996129174	1152.5
527.375078818234	1176
530.149609654287	1177.25
532.923206155968	1167.5
535.695869051803	1158.75
538.46759906845	1181.25
541.238396930667	1166.25
544.008263361365	1154.5
546.777199081581	1144.5
549.545204810496	1180.75
552.312281265439	1149.5
555.078429161901	1151.5
557.843649213536	1162.25
560.607942132158	1170.25
563.371308627753	1162.75
566.133749408497	1155.5
568.895265180758	1165.75
571.655856649067	1156.25
574.415524516192	1182
577.174269483075	1176.25
579.932092248886	1169.75
582.688993510996	1178.5
585.444973965024	1184.75
588.200034304796	1175.75
590.954175222372	1178.5
593.707397408072	1189.5
596.459701550436	1179.5
599.211088336284	1165
601.961558450671	1182.75
604.711112576934	1179
607.459751396673	1181
610.207475589751	1172.25
612.954285834339	1175.25
615.70018280688	1190.5
618.445167182103	1177
621.189239633057	1186.25
623.932400831087	1167
626.674651445839	1177.5
629.415992145303	1186
632.156423595745	1195.5
634.895946461815	1166.5
637.634561406448	1185
640.372269090962	1187
643.109070174981	1170
645.84496531651	1184.25
648.579955171891	1187.75
651.314040395848	1184.5
654.047221641459	1187.75
656.779499560178	1199.25
659.510874801831	1196.25
662.241348014646	1207.5
664.970919845243	1215
667.699590938608	1203.5
670.427361938164	1216
673.154233485732	1195.25
675.880206221526	1202
678.605280784208	1213.25
681.329457810832	1221.75
684.052737936921	1190.25
686.77512179639	1217.75
689.496610021632	1224.75
692.217203243456	1216.75
694.936902091147	1205
697.655707192428	1212.5
700.373619173495	1198.5
703.090638659013	1216
705.806766272093	1214.75
708.522002634379	1229.5
711.236348365948	1221
713.949804085381	1210.25
716.662370409764	1230
719.374047954676	1221.25
722.084837334191	1211.5
724.79473916091	1215.75
727.50375404595	1219
730.21188259892	1222.75
732.919125427998	1227.25
735.625483139858	1233
738.330956339726	1231.5
741.035545631373	1226.75
743.739251617109	1233.5
746.44207489779	1244.25
749.144016072856	1252.25
751.845075740273	1253.25
754.545254496604	1252.75
757.244552936979	1247
759.942971655083	1245.75
762.640511243225	1245.25
765.337172292252	1241.75
768.032955391651	1270.75
770.727861129485	1240.25
773.421890092416	1250.25
776.11504286572	1254.25
778.807320033299	1255.25
781.49872217765	1256.75
784.189249879911	1248.25
786.87890371984	1246.5
789.567684275826	1272.25
792.255592124909	1280.5
794.942627842762	1263
797.628792003709	1286.75
800.314085180718	1270.25
802.998507945429	1358.75
805.682060868145	1453.25
808.364744517821	1487.5
811.046559462106	1459.25
813.727506267312	1382.5
816.407585498422	1344.25
819.086797719131	1305.75
821.765143491823	1303.25
824.442623377565	1324.25
827.119237936129	1304.25
829.794987726006	1314
832.469873304377	1321.25
835.143895227169	1326.5
837.817054048985	1364.25
840.489350323206	1340.75
843.160784601894	1354
845.831357435894	1335.75
848.501069374742	1333.25
851.169920966756	1328.75
853.837912758989	1315
856.505045297233	1321.5
859.171319126073	1310
861.836734788825	1319.75
864.501292827581	1316.5
867.164993783208	1322.25
869.827838195363	1328
872.489826602455	1317.25
875.150959541702	1315.75
877.811237549104	1310.25
880.470661159458	1309.5
883.129230906359	1338.5
885.786947322208	1313.5
888.443810938208	1324.5
891.099822284387	1327.25
893.754981889586	1314.5
896.409290281453	1357.75
899.062747986487	1345
901.715355530001	1328
904.367113436154	1341
907.018022227933	1339.75
909.668082427173	1321
912.317294554575	1341
914.965659129661	1354.75
917.613176670838	1355.5
920.259847695365	1356.5
922.90567271936	1370.25
925.550652257826	1351.75
928.194786824624	1355
930.838076932514	1364.5
933.480523093111	1370.75
936.122125816956	1379.75
938.762885613448	1386.5
941.402802990899	1376.5
944.041878456524	1405
946.680112516429	1404
949.317505675633	1392.25
951.954058438084	1395.75
954.589771306634	1376
957.224644783051	1409.5
959.858679368047	1403
962.491875561238	1405.25
965.124233861212	1419.5
967.755754765453	1457.5
970.386438770423	1506.75
973.016286371502	1505.5
975.645298063046	1486
978.273474338357	1466.75
980.900815689675	1430.5
983.527322608245	1414
986.152995584248	1432.5
988.777835106835	1428.25
991.401841664151	1435
994.025015743307	1426
996.64735783041	1446
999.268868410535	1439
1001.88954796777	1472.25
1004.50939698518	1471.25
1007.12841594484	1447.5
1009.74660532783	1439.5
1012.36396561423	1464
1014.98049728314	1445.25
1017.59620081267	1453.75
1020.21107667995	1453
1022.82512536112	1457.25
1025.43834733138	1472.25
1028.05074306492	1461.25
1030.66231303501	1485
1033.27305771392	1476.75
1035.88297757299	1484.5
1038.49207308257	1478.75
1041.10034471211	1475.5
1043.70779293008	1494.25
1046.31441820402	1492
1048.92022100052	1483.5
1051.52520178525	1511
1054.12936102295	1499.75
1056.73269917742	1523.75
1059.33521671154	1502.75
1061.93691408729	1508.5
1064.53779176572	1499.25
1067.13785020694	1491.25
1069.73708987022	1499.25
1072.33551121386	1516.25
1074.93311469528	1506.5
1077.52990077103	1512.5
1080.12586989674	1536.5
1082.72102252715	1562.25
1085.31535911612	1591.75
1087.90888011663	1608.5
1090.50158598078	1573.5
1093.09347715979	1553.25
1095.68455410403	1546.5
1098.27481726296	1545.5
1100.86426708523	1545
1103.45290401857	1566.25
1106.04072850991	1546.25
1108.6277410053	1533.5
1111.21394194993	1560.75
1113.79933178816	1581
1116.3839109635	1561.75
1118.96767991862	1591.5
1121.55063909539	1598.5
1124.13278893477	1618.5
1126.71412987696	1607.5
1129.29466236132	1605
1131.87438682637	1637
1134.45330370982	1642.5
1137.03141344858	1639.5
1139.60871647873	1652.25
1142.18521323554	1666
1144.7609041535	1706
1147.33578966629	1728.5
1149.90987020677	1767.75
1152.48314620702	1798.25
1155.05561809835	1820.75
1157.62728631126	1806.5
1160.19815127545	1791.25
1162.76821341988	1785.75
1165.33747317271	1805.5
1167.90593096133	1799.75
1170.47358721235	1779.75
1173.04044235163	1760
1175.60649680425	1735.5
1178.17175099454	1720
1180.73620534607	1715
1183.29986028165	1700
1185.86271622336	1719.5
1188.42477359249	1688.75
1190.98603280964	1693
1193.54649429462	1722.5
1196.10615846653	1704
1198.66502574373	1695
1201.22309654385	1713
1203.78037128379	1732.5
1206.33685037971	1717.75
1208.89253424709	1723.25
1211.44742330063	1743.5
1214.00151795439	1745.5
1216.55481862163	1733
1219.10732571498	1751.5
1221.65903964631	1755
1224.20996082683	1743.25
1226.760089667	1756
1229.30942657664	1760.75
1231.85797196483	1776.5
1234.40572623998	1785.5
1236.95268980981	1782.25
1239.49886308136	1786.25
1242.04424646099	1785.5
1244.58884035435	1828.5
1247.13264516647	1817.75
1249.67566130166	1831.5
1252.21788916359	1849
1254.75932915524	1869.25
1257.29998167896	1865.5
1259.8398471364	1866.75
1262.37892592858	1884
1264.91721845586	1869
1267.45472511795	1876.25
1269.9914463139	1896.75
1272.52738244213	1935.25
1275.06253390041	1917.75
1277.59690108587	1933.25
1280.130484395	1949
1282.66328422368	1922.25
1285.19530096712	1945.25
1287.72653501993	1974
1290.25698677609	1964
1292.78665662895	2003.5
1295.31554497125	1992.75
1297.84365219511	2011.75
1300.37097869203	1998.5
1302.89752485292	2006
1305.42329106806	2017.75
1307.94827772713	2037
1310.47248521921	2048.5
1312.99591393279	2067
1315.51856425575	2037.5
1318.04043657537	2062.5
1320.56153127836	2092.75
1323.08184875083	2126.75
1325.6013893783	2153.25
1328.12015354572	2200.25
1330.63814163744	2181.5
1333.15535403727	2209.75
1335.67179112839	2206.75
1338.18745329347	2172
1340.70234091455	2171.25
1343.21645437314	2204.5
1345.72979405019	2209.25
1348.24236032607	2207
1350.75415358059	2241.25
1353.26517419303	2239.75
1355.7754225421	2285.75
1358.28489900594	2301.25
1360.79360396218	2332.5
1363.30153778788	2301.25
1365.80870085955	2306.5
1368.31509355319	2316
1370.82071624425	2296.25
1373.32556930762	2308
1375.8296531177	2310.75
1378.33296804833	2315.75
1380.83551447282	2321.5
1383.33729276399	2343.5
1385.83830329408	2347
1388.33854643489	2336.25
1390.83802255762	2329.75
1393.33673203302	2334.25
1395.83467523128	2370.75
1398.33185252212	2339.75
1400.82826427472	2363.25
1403.32391085777	2376.25
1405.81879263948	2392.25
1408.31290998752	2394
1410.80626326908	2396
1413.29885285087	2415.75
1415.79067909909	2434.5
1418.28174237944	2447.75
1420.77204305717	2479.75
1423.26158149702	2440
1425.75035806323	2475
1428.2383731196	2525
1430.72562702943	2521
1433.21212015554	2580.5
1435.69785286029	2607.75
1438.18282550555	2670.25
1440.66703845276	2651
1443.15049206284	2652.25
1445.6331866963	2696
1448.11512271316	2700.5
1450.59630047298	2732.5
1453.07672033486	2787.25
1455.55638265748	2813
1458.03528779902	2829.25
1460.51343611725	2841.5
1462.99082796946	2841.25
1465.46746371252	2836.75
1467.94334370285	2808.75
1470.41846829642	2802.5
1472.89283784878	2806.25
1475.36645271503	2792.75
1477.83931324984	2825.5
1480.31141980743	2826.75
1482.78277274164	2833.5
1485.25337240583	2822
1487.72321915297	2846.25
1490.19231333557	2870
1492.66065530577	2874.75
1495.12824541525	2884.75
1497.5950840153	2936.25
1500.06117145678	2921.25
1502.52650809014	2972
1504.99109426543	2969.5
1507.45493033228	2998
1509.91801663992	3033.25
1512.38035353717	3061.25
1514.84194137248	3072.75
1517.30278049386	3061.75
1519.76287124895	3056
1522.22221398497	3043.25
1524.68080904877	3025.5
1527.13865678681	3058.5
1529.59575754514	3065
1532.05211166946	3111.25
1534.50771950503	3085.5
1536.96258139678	3106.75
1539.41669768925	3126.25
1541.87006872656	3161.75
1544.32269485252	3142
1546.77457641051	3169
1549.22571374357	3205.5
1551.67610719434	3220
1554.12575710513	3232.75
1556.57466381786	3217.75
1559.02282767408	3240
1561.470249015	3273.75
1563.91692818144	3279.25
1566.3628655139	3311
1568.80806135249	3329.5
1571.252516037	3358.75
1573.6962299068	3407.75
1576.139203301	3370
1578.58143655828	3428
1581.02293001704	3464.75
1583.46368401528	3464.25
1585.90369889071	3469.5
1588.34297498065	3453
1590.7815126221	3513.25
1593.21931215174	3474.5
1595.65637390588	3549.5
1598.09269822053	3530
1600.52828543135	3571.75
1602.96313587367	3606.25
1605.3972498825	3590.5
1607.83062779252	3570.5
1610.26326993808	3606.5
1612.69517665322	3622.5
1615.12634827165	3639.5
1617.55678512676	3571.75
1619.98648755164	3566.5
1622.41545587903	3552.75
1624.84369044138	3566
1627.27119157085	3593.25
1629.69795959924	3593.75
1632.12399485809	3601.75
1634.54929767859	3615.75
1636.97386839165	3603.25
1639.39770732789	3633.25
1641.8208148176	3611.75
1644.24319119078	3634.25
1646.66483677715	3645.75
1649.08575190611	3673.5
1651.50593690677	3694.5
1653.92539210795	3722.5
1656.3441178382	3682
1658.76211442575	3730.5
1661.17938219855	3766.25
1663.59592148428	3753.5
1666.01173261033	3768
1668.42681590377	3816
1670.84117169145	3832.75
1673.25480029991	3840.25
1675.66770205541	3876
1678.07987728393	3846
1680.49132631119	3919.25
1682.90204946263	3907
1685.31204706342	3911
1687.72131943847	3956.25
1690.1298669124	3945
1692.53768980957	4016.75
1694.94478845411	3971.75
1697.35116316982	3973.5
1699.75681428031	4003.5
1702.16174210887	4011.25
1704.56594697858	4005
1706.96942921222	4057.5
1709.37218913235	4036.75
1711.77422706126	4029.5
1714.17554332098	4069.25
1716.57613823331	4082.25
1718.97601211977	4035
1721.37516530169	4064.25
1723.77359810006	4027.75
1726.17131083573	4076.5
1728.56830382922	4101.5
1730.96457740087	4054
1733.36013187075	4077.75
1735.75496755868	4072.75
1738.14908478428	4051.5
1740.54248386689	4127.5
1742.93516512566	4072
1745.32712887946	4148.5
1747.71837544697	4118.5
1750.10890514662	4112.75
1752.49871829661	4141.75
1754.88781521492	4120.25
1757.27619621929	4101.25
1759.66386162726	4130.5
1762.05081175613	4162.25
1764.43704692297	4169.25
1766.82256744465	4184.75
1769.20737363782	4199.5
1771.59146581888	4196.75
1773.97484430405	4229.75
1776.35750940932	4204
1778.73946145048	4193.25
1781.12070074309	4214.75
1783.50122760249	4295.25
1785.88104234385	4292
1788.26014528209	4272.5
1790.63853673197	4275.75
1793.01621700796	4303
1795.39318642444	4344.5
1797.76944529549	4337.5
1800.14499393504	4334.75
1802.51983265681	4372.75
1804.8939617743	4364
1807.26738160085	4374
1809.64009244957	4390.5
1812.01209463339	4358.5
1814.38338846504	4430
1816.75397425706	4397.25
1819.12385232181	4419.5
1821.49302297142	4419.5
1823.86148651789	4418
1826.22924327299	4392.5
1828.59629354831	4432.75
1830.96263765526	4397.75
1833.32827590507	4434
1835.69320860877	4449.75
1838.05743607724	4446
1840.42095862113	4423.75
1842.78377655097	4412
1845.14589017707	4429
1847.50729980956	4469.5
1849.86800575843	4449
1852.22800833346	4425.25
1854.58730784427	4468.75
1856.94590460032	4531.75
1859.30379891087	4533
1861.66099108503	4499.5
1864.01748143175	4512
1866.37327025978	4515.5
1868.72835787773	4516.25
1871.08274459404	4567.75
1873.43643071697	4529
1875.78941655464	4561.5
1878.14170241499	4551
1880.4932886058	4595.5
1882.84417543469	4592.75
1885.19436320915	4605.5
1887.54385223646	4634.25
1889.89264282378	4684.75
1892.24073527809	4639.75
1894.58812990625	4654.75
1896.93482701494	4731.5
1899.28082691067	4685.75
1901.62612989985	4735
1903.97073628868	4738
1906.31464638326	4758.75
1908.6578604895	4760.75
1911.00037891321	4763.25
1913.34220196001	4809.25
1915.68332993538	4814.75
1918.02376314468	4832
1920.36350189311	4851
1922.70254648573	4869.25
1925.04089722744	4828.5
1927.37855442304	4811
1929.71551837715	4861
1932.05178939427	4858.25
1934.38736777876	4877.5
1936.72225383484	4839.75
1939.0564478666	4883
1941.38995017799	4883
1943.72276107283	4881
1946.05488085479	4848.5
1948.38630982744	4835.5
1950.71704829419	4907
1953.04709655832	4869.5
1955.376454923	4850.75
1957.70512369126	4860
1960.03310316599	4894.75
1962.36039364999	4892.5
1964.68699544589	4866
1967.01290885622	4856
1969.33813418338	4872.25
1971.66267172965	4893.5
1973.98652179718	4888.25
1976.309684688	4913
1978.63216070402	4976.5
1980.95395014705	4989.25
1983.27505331873	4966
1985.59547052064	4918.75
1987.9152020542	4976.25
1990.23424822074	5000.25
1992.55260932146	4962.5
1994.87028565746	4976
1997.18727752968	4989.5
1999.50358523901	4963
2001.81920908618	4987.25
2004.13414937184	5015.5
2006.44840639651	5087.25
2008.7619804606	5093
2011.07487186442	5103.5
2013.38708090815	5092.25
2015.6986078919	5118.5
2018.00945311564	5096.5
2020.31961687924	5155.25
2022.62909948247	5141.5
2024.93790122499	5170.75
2027.24602240636	5152.25
2029.55346332604	5233.75
2031.86022428337	5136.75
2034.16630557761	5155.25
2036.47170750791	5195.25
2038.77643037331	5208.25
2041.08047447275	5211.25
2043.38384010509	5177.5
2045.68652756907	5233
2047.98853716335	5201.25
2050.28986918648	5195.5
2052.59052393692	5224
2054.89050171302	5252.25
2057.18980281307	5274.25
2059.4884275352	5222.5
2061.78637617753	5268
2064.08364903802	5253.5
2066.38024641457	5245.25
2068.67616860497	5274.5
2070.97141590694	5258.5
2073.26598861809	5239.5
2075.55988703595	5231
2077.85311145796	5223
2080.14566218145	5212
2082.43753950371	5205.75
2084.72874372188	5196
2087.01927513307	5184
2089.30913403428	5231.75
2091.59832072241	5197.25
2093.88683549429	5210.75
2096.17467864666	5197.25
2098.46185047619	5229.5
2100.74835127944	5239.75
2103.03418135292	5277.75
2105.31934099303	5188
2107.6038304961	5210.5
2109.88765015838	5262.75
2112.17080027602	5230
2114.45328114513	5250.5
2116.7350930617	5271
2119.01623632165	5248.25
2121.29671122085	5220.25
2123.57651805505	5258.25
2125.85565711996	5245.5
2128.13412871117	5264
2130.41193312424	5301.5
2132.68907065462	5284.5
2134.96554159771	5254
2137.24134624881	5322.5
2139.51648490317	5305
2141.79095785594	5328.25
2144.0647654022	5330.75
2146.33790783698	5319.75
2148.61038545524	5290.25
2150.88219855182	5340.5
2153.15334742154	5310
2155.42383235911	5292.5
2157.69365365921	5353.25
2159.9628116164	5282.75
2162.23130652522	5300.25
2164.49913868011	5303.25
2166.76630837544	5349
2169.03281590553	5338
2171.29866156461	5296.5
2173.56384564685	5270
2175.82836844637	5272.25
2178.0922302572	5232.25
2180.35543137332	5268
2182.61797208862	5299.75
2184.87985269695	5261.75
2187.14107349208	5251.5
2189.40163476773	5281.25
2191.66153681753	5238.5
2193.92077993507	5180.25
2196.17936441386	5232.75
2198.43729054735	5235
2200.69455862894	5222
2202.95116895194	5255.75
2205.20712180963	5200.5
2207.4624174952	5186.5
2209.71705630179	5174.5
2211.97103852248	5172.25
2214.22436445031	5143.5
2216.47703437819	5149
2218.72904859905	5097
2220.98040740571	5194.25
2223.23111109096	5121.75
2225.4811599475	5119.75
2227.730554268	5145.25
2229.97929434505	5106
2232.22738047118	5094.5
2234.47481293889	5078.75
2236.72159204058	5153.75
2238.96771806864	5079.75
2241.21319131537	5078
2243.458012073	4985
2245.70218063374	5097.75
2247.94569728973	5095.25
2250.18856233304	5096.75
2252.4307760557	5028.75
2254.67233874967	5054.5
2256.91325070687	5034.25
2259.15351221915	5029.25
2261.39312357831	5067.25
2263.63208507611	4994.25
2265.87039700422	5023.25
2268.1080596543	5033.75
2270.34507331792	4989
2272.5814382866	4980.25
2274.81715485183	4992.75
2277.05222330502	4995.75
2279.28664393755	5000
2281.52041704073	4994.75
2283.75354290581	4984.25
2285.98602182401	4981.25
2288.21785408649	4963.75
2290.44903998434	4959.75
2292.67957980862	4945.5
2294.90947385033	4968.5
2297.1387224004	4977.75
2299.36732574976	4949.75
2301.59528418921	4952.5
2303.82259800958	4951.25
2306.04926750158	4949
2308.27529295593	4890.75
2310.50067466325	4909.75
2312.72541291412	4930.5
2314.9495079991	4885.25
2317.17296020866	4883.25
2319.39576983324	4914
2321.61793716322	4886.5
2323.83946248895	4856.75
2326.0603461007	4956.75
2328.28058828871	4867.5
2330.50018934317	4861.5
2332.7191495542	4861.25
2334.93746921192	4828.5
2337.15514860633	4791
2339.37218802743	4830.25
2341.58858776516	4762.5
2343.80434810941	4762
2346.01946935001	4760.75
2348.23395177676	4755.5
2350.44779567939	4767.5
2352.66100134759	4762.25
2354.87356907102	4708.5
2357.08549913925	4720.75
2359.29679184185	4736.25
2361.50744746829	4725.25
2363.71746630804	4733
2365.92684865049	4674.5
2368.13559478499	4696.25
2370.34370500083	4731.25
2372.55117958727	4702.75
2374.75801883353	4650
2376.96422302874	4658.25
2379.16979246202	4638.5
2381.37472742244	4637.5
2383.57902819898	4622.75
2385.78269508063	4617.5
2387.98572835629	4591.5
2390.18812831482	4626.75
2392.38989524505	4634.75
2394.59102943573	4576.5
2396.79153117559	4585.75
2398.9914007533	4563.25
2401.19063845748	4591.25
2403.38924457672	4573.75
2405.58721939951	4505.75
2407.78456321435	4526.5
2409.98127630966	4537.75
2412.17735897383	4513.5
2414.37281149518	4471.75
2416.56763416198	4539
2418.76182726249	4488.5
2420.95539108487	4459
2423.14832591726	4487.75
2425.34063204776	4464.5
2427.53230976439	4469
2429.72335935513	4476.25
2431.91378110795	4460.25
2434.10357531071	4452.25
2436.29274225126	4457.5
2438.48128221739	4458
2440.66919549684	4427.75
2442.8564823773	4388.5
2445.04314314641	4430
2447.22917809176	4410.75
2449.4145875009	4413.75
2451.59937166131	4387
2453.78353086044	4369.25
2455.96706538567	4373.25
2458.14997552437	4359.75
2460.33226156379	4344.5
2462.51392379119	4318
2464.69496249376	4287.5
2466.87537795862	4328.25
2469.05517047288	4307.75
2471.23434032358	4273.25
2473.41288779767	4283.75
2475.59081318212	4250.75
2477.76811676378	4268
2479.9447988295	4258.5
2482.12085966605	4218
2484.29629956016	4251.75
2486.4711187985	4248.75
2488.64531766769	4261.75
2490.8188964543	4247
2492.99185544484	4208.25
2495.16419492579	4228
2497.33591518353	4258.25
2499.50701650444	4208.5
2501.67749917482	4212.5
2503.84736348091	4172.5
2506.01660970891	4211
2508.18523814496	4188.75
2510.35324907515	4165
2512.52064278551	4200.25
2514.68741956201	4233.5
2516.85357969058	4228.75
2519.01912345709	4229
2521.18405114735	4186.25
2523.34836304711	4208.75
2525.51205944209	4209.25
2527.6751406179	4197.25
2529.83760686016	4191
2531.99945845439	4185
2534.16069568607	4244.5
2536.3213188406	4183.5
2538.48132820336	4135.5
2540.64072405965	4182.75
2542.79950669471	4139.25
2544.95767639373	4179
2547.11523344184	4172.75
2549.27217812411	4156
2551.42851072555	4134.25
2553.58423153111	4158
2555.7393408257	4120
2557.89383889413	4113.75
2560.04772602119	4111.5
2562.20100249158	4094.5
2564.35366858996	4072
2566.50572460093	4052.75
2568.65717080901	4076.25
2570.80800749867	4064.75
2572.95823495433	4094.75
2575.10785346031	4085.5
2577.25686330093	4021.25
2579.40526476038	4010.75
2581.55305812282	4016.25
2583.70024367237	4020
2585.84682169303	4021.5
2587.99279246879	4018.75
2590.13815628354	4009.5
2592.28291342112	3999
2594.42706416531	4003.75
2596.57060879981	4026.25
2598.71354760826	4030.5
2600.85588087425	3961
2602.99760888127	3981.5
2605.13873191278	3950.75
2607.27925025215	3974
2609.41916418269	3983.75
2611.55847398764	3990.75
2613.69717995017	3950.25
2615.8352823534	4001.25
2617.97278148034	4014.25
2620.10967761398	3975.5
2622.2459710372	4015.25
2624.38166203284	4004.75
2626.51675088365	4018
2628.65123787232	3922.5
2630.78512328145	3939.25
2632.9184073936	3990.25
2635.05109049124	3980.75
2637.18317285676	3999
2639.31465477249	4012.25
2641.44553652067	3976.25
2643.5758183835	4013.5
2645.70550064309	3986.5
2647.83458358144	3994.5
2649.96306748053	4006.25
2652.09095262224	4029
2654.21823928836	4027
2656.34492776063	4009.75
2658.47101832071	4006.5
2660.59651125015	4011.25
2662.72140683047	4011.75
2664.84570534309	3986.25
2666.96940706935	3959.25
2669.0925122905	3990.75
2671.21502128773	4007
2673.33693434216	3988.75
2675.45825173479	4020.25
2677.57897374658	3977.25
2679.6991006584	4022.75
2681.81863275101	3961
2683.93757030512	3991.5
2686.05591360133	3958
2688.17366292021	3968
2690.29081854218	4015.75
2692.40738074762	3964.75
2694.52334981681	3976.25
2696.63872602995	3956
2698.75350966714	3971.5
2700.86770100842	4014.5
2702.98130033372	3966.25
2705.09430792289	3987
2707.20672405572	4009.5
2709.31854901185	3983
2711.42978307091	3989.75
2713.54042651238	4020
2715.65047961567	4013
2717.7599426601	4036.5
2719.86881592492	4064.25
2721.97709968924	4038.75
2724.08479423213	4052.5
2726.19189983255	4063
2728.29841676935	4037
2730.40434532131	4052.5
2732.5096857671	4041
2734.61443838532	4027
2736.71860345444	4050.5
2738.82218125287	4001
2740.92517205889	4039.25
2743.02757615073	4046.75
2745.12939380646	4011
2747.23062530411	4024
2749.33127092159	4087
2751.4313309367	3987.75
2753.53080562717	4021
2755.62969527058	4068.5
2757.72800014448	4007
2759.82572052625	4022.25
2761.92285669323	4011.75
2764.0194089226	4046
2766.11537749147	4047.75
2768.21076267686	4035.75
2770.30556475566	3979.25
2772.39978400465	4046.5
2774.49342070054	4000.75
2776.58647511991	4060.5
2778.67894753923	4015.25
2780.77083823487	4043.5
2782.8621474831	4052.75
2784.95287556007	4059
2787.04302274184	3994.75
2789.13258930433	4048.5
2791.22157552338	4010.75
2793.30998167471	4023
2795.39780803392	4093.75
2797.48505487651	4078.25
2799.57172247786	4033
2801.65781111324	4018.5
2803.74332105781	4041.5
2805.82825258661	4078
2807.91260597457	4093
2809.9963814965	4048.25
2812.07957942711	4065
2814.16220004096	4039
2816.24424361252	4088.75
2818.32571041614	4099.25
2820.40660072604	4089.25
2822.48691481632	4080.5
2824.56665296098	4113
2826.64581543388	4108.75
2828.72440250876	4183.25
2830.80241445925	4256.75
2832.87985155885	4248
2834.95671408094	4383.5
2837.03300229875	4483.25
2839.10871648544	4511
2841.18385691399	4531.25
2843.25842385729	4537.25
2845.33241758808	4427.25
2847.40583837899	4487.25
2849.4786865025	4425.25
2851.550962231	4386
2853.6226658367	4396
2855.69379759174	4377
2857.76435776806	4421
2859.83434663753	4495.25
2861.90376447184	4574.5
2863.97261154259	4738.25
2866.04088812121	4792.75
2868.10859447901	4808.75
2870.17573088717	4810
2872.24229761673	4820.5
2874.30829493859	4871.75
2876.37372312353	4896
2878.43858244215	5073.5
2880.50287316496	5084.75
2882.56659556231	5126.75
2884.6297499044	5143.5
2886.69233646129	5089.75
2888.75435550293	5012.25
2890.81580729909	4981
2892.87669211941	4897.5
2894.9370102334	4864.75
2896.99676191039	4860.75
2899.05594741961	4882.25
2901.11456703011	4889
2903.1726210108	4966.25
2905.23010963045	4945
2907.28703315768	4958.75
2909.34339186096	4920.5
2911.39918600861	4888.5
2913.45441586879	4810.5
2915.50908170953	4815.5
2917.56318379867	4805.5
2919.61672240395	4832
2921.66969779291	4833.25
2923.72211023296	4843.75
2925.77395999134	4833.5
2927.82524733515	4816.25
2929.87597253133	4759.75
2931.92613584663	4725
2933.9757375477	4647
2936.02477790097	4638.75
2938.07325717276	4581.25
2940.1211756292	4601.5
2942.16853353626	4630.75
2944.21533115977	4644.5
2946.26156876536	4688
2948.30724661853	4718
2950.3523649846	4850.75
2952.39692412872	4908.75
2954.44092431587	4954.5
2956.4843658109	4972.75
2958.52724887843	5095.25
2960.56957378296	5183.75
2962.6113407888	5187.25
2964.65255016011	5065
2966.69320216083	5024.75
2968.73329705479	4926.75
2970.77283510559	4809
2972.81181657671	4723
2974.85024173141	4624.75
2976.88811083279	4603.5
2978.92542414379	4563.25
2980.96218192714	4551.5
2982.99838444541	4547.25
2985.034031961	4554.25
2987.06912473612	4564.25
2989.1036630328	4498.5
2991.13764711289	4517.75
2993.17107723804	4521
2995.20395366975	4530.5
2997.23627666931	4506.75
2999.26804649782	4553.75
3001.29926341624	4574.25
3003.32992768528	4578.5
3005.3600395655	4536.25
3007.38959931727	4613.25
3009.41860720076	4589.25
3011.44706347595	4602.75
3013.47496840263	4543.5
3015.50232224042	4617.25
3017.5291252487	4606.5
3019.5553776867	4585.5
3021.58107981344	4635.5
3023.60623188773	4673
3025.63083416822	4689.75
3027.65488691331	4702
3029.67839038125	4683
3031.70134483007	4653.5
3033.72375051759	4709.75
3035.74560770145	4668.5
3037.76691663907	4674
3039.78767758768	4688.75
3041.80789080431	4705.5
3043.82755654577	4728.5
3045.84667506867	4713.75
3047.8652466294	4726
3049.88327148418	4708.5
3051.90074988899	4712
3053.91768209961	4756.75
3055.93406837161	4660.75
3057.94990896033	4746.5
3059.96520412095	4749.5
3061.97995410838	4752.25
3063.99415917734	4730.75
3066.00781958234	4691
3068.02093557766	4758.25
3070.03350741738	4729.25
3072.04553535535	4727.25
3074.05701964521	4720.5
3076.06796054036	4719
3078.07835829401	4739.5
3080.08821315912	4760
3082.09752538846	4773.75
3084.10629523454	4700
3086.11452294967	4760
3088.12220878592	4720.25
3090.12935299515	4814.25
3092.13595582898	4776.25
3094.1420175388	4785
3096.1475383758	4788.5
3098.15251859088	4775
3100.15695843477	4798
3102.16085815793	4800.5
3104.16421801062	4748
3106.16703824282	4784.5
3108.16931910432	4802
3110.17106084464	4786
3112.17226371308	4822.25
3114.17292795872	4768.25
3116.17305383034	4844.75
3118.17264157657	4816.25
3120.17169144571	4852.5
3122.17020368587	4808.75
3124.16817854492	4830.5
3126.16561627044	4826.25
3128.16251710982	4850.5
3130.15888131017	4882.5
3132.15470911837	4873
3134.15000078104	4878
3136.14475654455	4896.75
3138.13897665502	4853.5
3140.13266135835	4921.5
3142.12581090015	4868.25
3144.11842552578	4978.25
3146.11050548036	4997.75
3148.10205100875	4951.25
3150.09306235557	4928.75
3152.08353976515	4899.75
3154.07348348158	4894.5
3156.06289374869	4941.5
3158.05177081006	4934.75
3160.04011490899	4949
3162.02792628852	4971.5
3164.01520519145	4949.25
3166.00195186029	4910.25
3167.98816653728	4942.5
3169.97384946442	4950.75
3171.95900088344	4917
3173.94362103577	4924
3175.9277101626	4972
3177.91126850484	4976.75
3179.89429630312	4947
3181.87679379782	4953.5
3183.85876122904	4934.5
3185.84019883657	5023
3187.82110685997	5008.25
3189.80148553851	5014.5
3191.78133511116	5016.25
3193.76065581664	4984
3195.73944789337	4999.75
3197.7177115795	4998
3199.6954471129	5011.75
3201.67265473114	5033.5
3203.64933467153	5003.25
3205.62548717107	4983.25
3207.60111246649	5035
3209.57621079422	5014
3211.55078239041	5035
3213.52482749093	5047.25
3215.49834633133	5061.5
3217.4713391469	5075.25
3219.44380617262	5041.25
3221.41574764318	5103.75
3223.38716379296	5061.25
3225.35805485607	5101.5
3227.32842106631	5080.75
3229.29826265718	5195.25
3231.26757986187	5099
3233.2363729133	5133.5
3235.20464204405	5120
3237.17238748644	5143.75
3239.13960947243	5090.25
3241.10630823374	5178
3243.07248400174	5172.5
3245.03813700748	5182.5
3247.00326748177	5197
3248.96787565503	5194.5
3250.93196175742	5208.5
3252.89552601877	5172.75
3254.8585686686	5163.25
3256.82108993612	5199.5
3258.78309005022	5161.75
3260.74456923948	5204.75
3262.70552773215	5217.75
3264.66596575617	5242
3266.62588353916	5176.25
3268.58528130843	5141.75
3270.54415929094	5198.5
3272.50251771336	5152.5
3274.46035680202	5206.5
3276.4176767829	5220.25
3278.37447788171	5180.5
3280.33076032379	5214
3282.28652433416	5172
3284.24177013751	5222.5
3286.1964979582	5225.25
3288.15070802027	5232
3290.10440054741	5218
3292.05757576298	5181
3294.01023389001	5219.75
3295.96237515119	5230
3297.91399976887	5178
3299.86510796506	5208.5
3301.81569996143	5210.5
3303.76577597932	5216.75
3305.71533623971	5254
3307.66438096325	5253.5
3309.61291037024	5241
3311.56092468063	5205.5
3313.50842411404	5165
3315.45540888971	5259
3317.40187922656	5243.5
3319.34783534315	5230.5
3321.29327745768	5226.5
3323.23820578801	5136.25
3325.18262055164	5210.5
3327.1265219657	5178.25
3329.06991024699	5185.75
3331.01278561194	5219
3332.95514827663	5197.5
3334.89699845675	5245.5
3336.83833636766	5239
3338.77916222434	5179.5
3340.71947624143	5221
3342.65927863317	5232.5
3344.59856961347	5207
3346.53734939584	5239.5
3348.47561819344	5208
3350.41337621907	5216.5
3352.35062368513	5209.5
3354.28736080368	5212.25
3356.22358778637	5200
3358.15930484452	5245
3360.09451218904	5270
3362.02921003047	5255.25
3363.96339857899	5225.75
3365.89707804437	5252.25
3367.83024863603	5218.75
3369.76291056299	5210
3371.69506403389	5228.5
3373.62670925699	5248.5
3375.55784644016	5272.5
3377.4884757909	5231.25
3379.41859751629	5235.25
3381.34821182305	5246.25
3383.27731891749	5216.5
3385.20591900555	5265.25
3387.13401229276	5270.5
3389.06159898426	5297.5
3390.9886792848	5317
3392.91525339872	5324.25
3394.84132152998	5324.75
3396.76688388213	5310.25
3398.69194065834	5285
3400.61649206133	5302.5
3402.54053829348	5287.5
3404.46407955672	5287.5
3406.3871160526	5249.25
3408.30964798225	5277.75
3410.23167554639	5312.75
3412.15319894535	5313
3414.07421837904	5272
3415.99473404695	5317.5
3417.91474614817	5312
3419.83425488136	5350.75
3421.7532604448	5308.75
3423.67176303631	5308.5
3425.58976285332	5303
3427.50726009283	5279.5
3429.42425495143	5300.75
3431.34074762528	5318.25
3433.25673831012	5248.5
3435.17222720127	5305.5
3437.08721449362	5252
3439.00170038164	5225.5
3440.91568505936	5271.25
3442.8291687204	5210.75
3444.74215155792	5242.75
3446.65463376469	5290.75
3448.566615533	5244.25
3450.47809705476	5230.5
3452.3890785214	5173.5
3454.29956012393	5279.5
3456.20954205293	5209.25
3458.11902449853	5227.5
3460.02800765042	5210
3461.93649169784	5177.25
3463.84447682962	5172.25
3465.75196323412	5211.25
3467.65895109925	5152
3469.56544061249	5223.75
3471.47143196086	5190.75
3473.37692533094	5153
3475.28192090884	5166.25
3477.18641888026	5202.25
3479.09041943039	5188.75
3480.99392274402	5150.75
3482.89692900545	5146
3484.79943839853	5160.75
3486.70145110666	5176.75
3488.60296731277	5137.25
3490.50398719933	5149.75
3492.40451094836	5099.75
3494.30453874141	5106
3496.20407075956	5113.75
3498.10310718342	5171
3500.00164819315	5075.25