201.866871357051	858.75
204.754250281454	858.75
207.640596790938	859.75
210.525911876299	876.25
213.410196525689	867.25
216.293451724508	865.75
219.175678455485	877.5
222.056877698662	860.5
224.937050431388	868.25
227.816197628363	865.75
230.694320261602	873.25
233.571419300504	880
236.447495711764	875.25
239.322550459507	871.25
242.196584505182	888.5
245.069598807626	868.5
247.941594323078	875.75
250.812572005154	878
253.682532804884	878
256.551477670699	880
259.419407548456	877
262.286323381439	884.75
265.152226110364	885.75
268.017116673389	880.25
270.880996006115	880
273.743865041622	872.25
276.605724710436	885
279.466575940562	887
282.326419657496	881.5
285.1852567842	888.75
288.043088241157	887
290.899914946349	892
293.75573781526	886.25
296.610557760898	888.5
299.464375693817	887.25
302.317192522078	886.75
305.169009151297	901
308.019826484655	888.5
310.86964542287	887
313.718466864233	886
316.566291704614	892
319.413120837457	882.5
322.258955153804	888
325.103795542291	881.75
327.947642889128	887
330.79049807819	888
333.632361990927	878
336.473235506444	878
339.31311950145	883
342.152014850322	883.5
344.989922425062	910.75
347.826843095354	893.5
350.662777728528	898
353.497727189577	904.25
356.331692341195	890.75
359.164674043732	897
361.996673155267	905.25
364.827690531536	902.25
367.65772702602	893.5
370.486783489887	899.5
373.314860772047	895
376.14195971912	899.75
378.968081175466	896.75
381.793225983212	911.25
384.617394982201	902.5
387.44058901005	900.75
390.262808902131	908.25
393.08405549161	897.75
395.904329609395	901.75
398.723632084213	896
401.541963742569	902.25
404.359325408779	912.25
407.175717904938	906
409.991142050982	908.75
412.805598664665	916.75
415.619088561551	899
418.43161255505	912.25
421.243171456415	898.5
424.053766074758	906.5
426.863397217017	910.5
429.672065688024	918.5
432.479772290455	906.5
435.286517824879	919.25
438.092303089736	918.25
440.897128881359	917.5
443.70099599399	906.75
446.503905219761	917.5
449.305857348711	911.25
452.106853168796	929.5
454.906893465919	919.25
457.705979023885	917.75
460.504110624439	912
463.3012890473	928
466.097515070087	908.5
468.892789468424	919.5
471.687113015869	907.75
474.48048648395	905
477.272910642198	908.25
480.064386258109	924.25
482.854914097159	920.5
485.644494922839	904.25
488.433129496636	912.25
491.220818578047	923
494.007562924584	925
496.793363291785	918.75
499.578220433217	919.75
502.362135100473	926.25
505.145108043209	922.5
507.927140009098	926
510.708231743909	921
513.488383991433	933.75
516.267597493556	926
519.04587299022	924
521.82321121946	928.25
524.599612917398	931.5
527.375078818233	943.5
530.149609654287	917.75
532.923206155967	923.25
535.695869051804	930.75
538.467599068448	927.75
541.238396930665	933.5
544.008263361364	925.75
546.777199081578	927
549.545204810493	923.5
552.312281265436	916.75
555.078429161898	928.75
557.843649213533	935
560.607942132156	931.75
563.371308627753	931
566.133749408495	930.75
568.895265180756	931.75
571.655856649064	937.5
574.415524516189	930.75
577.174269483075	934.75
579.932092248884	937.5
582.688993510994	946.75
585.444973965023	944.75
588.200034304795	936
590.95417522237	940.25
593.70739740807	944
596.459701550433	946.25
599.21108833628	941.5
601.961558450668	928.75
604.711112576933	928.25
607.459751396673	928.25
610.207475589748	931.5
612.954285834338	928
615.700182806879	930
618.445167182101	931.5
621.189239633055	931.5
623.932400831087	943.75
626.674651445839	924.25
629.415992145303	928.5
632.156423595745	922
634.895946461813	925
637.634561406449	926.25
640.37226909096	923
643.109070174978	931.5
645.844965316508	940.75
648.579955171888	933.25
651.314040395846	933.5
654.047221641456	933.75
656.779499560176	930.75
659.510874801828	929.5
662.241348014642	926.25
664.97091984524	932.5
667.699590938606	930.25
670.427361938164	942.5
673.15423348573	946
675.880206221526	928.25
678.605280784206	944.5
681.329457810829	938.25
684.05273793692	951.5
686.775121796389	940.75
689.49661002163	942.75
692.217203243454	943.25
694.936902091144	937
697.655707192425	934
700.373619173493	936
703.09063865901	918.75
705.806766272093	933
708.522002634378	933.75
711.236348365946	942.5
713.94980408538	935
716.662370409762	931.25
719.374047954676	944.25
722.08483733419	934
724.794739160909	939
727.503754045949	948.5
730.21188259892	940
732.919125427998	942.75
735.625483139855	939.25
738.330956339723	937.5
741.035545631374	944.25
743.739251617106	935.25
746.44207489779	937.25
749.144016072852	955.75
751.845075740272	952.75
754.545254496603	938.75
757.244552936976	951.25
759.94297165508	948
762.640511243222	947
765.337172292249	946.75
768.032955391649	945
770.727861129482	938
773.421890092413	949.25
776.11504286572	936.75
778.807320033298	956
781.49872217765	939.5
784.18924987991	931.25
786.87890371984	942.75
789.567684275826	948.75
792.255592124908	941
794.94262784276	932.5
797.628792003703	938.75
800.314085180715	932.25
802.998507945427	933.25
805.682060868145	943.25
808.364744517821	935.5
811.046559462105	944.25
813.727506267311	948.75
816.407585498422	936.25
819.08679771913	935.5
821.765143491822	945.75
824.442623377563	956.5
827.119237936127	952
829.794987726003	951
832.469873304377	944
835.143895227167	941.25
837.817054048985	936.75
840.489350323205	938.25
843.160784601892	936.25
845.831357435894	950
848.501069374739	950.75
851.169920966753	952.75
853.837912758987	954.75
856.505045297232	948.5
859.171319126071	960.25
861.836734788823	952.75
864.501292827579	952.25
867.164993783208	951.5
869.827838195361	961
872.489826602454	943.5
875.150959541701	954
877.811237549104	954
880.470661159456	953.5
883.129230906357	938.25
885.786947322205	934
888.443810938206	945.75
891.099822284385	950.5
893.754981889586	941
896.409290281452	951.25
899.062747986485	954.25
901.715355529999	972
904.367113436154	945
907.01802222793	949
909.668082427172	959.5
912.317294554574	948.5
914.965659129659	944.25
917.613176670835	957
920.259847695364	964.75
922.90567271936	946.5
925.550652257825	963.5
928.194786824621	956.75
930.838076932512	965
933.480523093109	959
936.122125816953	965
938.762885613447	959
941.402802990899	960.75
944.041878456523	973.25
946.680112516428	958
949.31750567563	949
951.954058438081	955.5
954.589771306633	961.5
957.224644783048	978
959.858679368044	970.25
962.491875561238	960.5
965.12423386121	960.25
967.75575476545	962.75
970.386438770423	955
973.016286371501	959
975.645298063046	948.75
978.273474338355	952
980.900815689674	957
983.527322608243	968.75
986.152995584245	964.75
988.777835106834	964.5
991.401841664148	968.5
994.025015743307	977.25
996.647357830407	962.75
999.268868410534	976.5
1001.88954796777	976.75
1004.50939698518	965.75
1007.12841594484	969.25
1009.74660532783	974
1012.36396561423	981.5
1014.98049728314	968
1017.59620081267	971.75
1020.21107667995	977.25
1022.82512536112	977
1025.43834733138	974.25
1028.05074306493	985.25
1030.66231303501	989.25
1033.27305771392	965.75
1035.88297757299	973.5
1038.49207308257	971.75
1041.10034471211	987
1043.70779293008	984.25
1046.31441820402	984.25
1048.92022100052	988.75
1051.52520178525	995.5
1054.12936102295	1004.5
1056.73269917742	1030.75
1059.33521671154	1062
1061.93691408729	1059.25
1064.53779176571	1054.75
1067.13785020694	1030.75
1069.73708987022	1030.75
1072.33551121386	995.25
1074.93311469528	998.5
1077.52990077103	996
1080.12586989674	986.5
1082.72102252714	998.75
1085.31535911611	1000.75
1087.90888011663	987
1090.50158598078	987.25
1093.09347715979	999.25
1095.68455410403	993.75
1098.27481726296	993.25
1100.86426708523	1009
1103.45290401857	1005.75
1106.04072850991	997
1108.6277410053	997.5
1111.21394194993	985.25
1113.79933178816	981.25
1116.3839109635	1017.25
1118.96767991862	1009
1121.55063909539	1014
1124.13278893477	1040.5
1126.71412987696	1062.25
1129.29466236132	1065.75
1131.87438682637	1060.5
1134.45330370982	1025.25
1137.03141344858	1022
1139.60871647872	1014.5
1142.18521323554	1013
1144.7609041535	1010.5
1147.33578966629	1026.5
1149.90987020676	1018
1152.48314620702	1026.25
1155.05561809835	1015.5
1157.62728631125	1018
1160.19815127545	1016.5
1162.76821341988	1013.75
1165.33747317271	1034
1167.90593096133	1013.25
1170.47358721235	1012.25
1173.04044235163	1019
1175.60649680425	1005.25
1178.17175099454	998.5
1180.73620534607	1006.5
1183.29986028165	1000
1185.86271622336	1003.25
1188.42477359249	1003
1190.98603280964	1017.75
1193.54649429462	997.75
1196.10615846653	1007
1198.66502574372	992.5
1201.22309654385	1023.75
1203.78037128378	1018
1206.33685037971	992.25
1208.89253424709	1001.25
1211.44742330063	999.25
1214.00151795438	1005.25
1216.55481862163	1011.75
1219.10732571497	1011
1221.65903964631	1011.25
1224.20996082683	1008.25
1226.760089667	1010.25
1229.30942657664	1000.75
1231.85797196483	1002.75
1234.40572623998	1008.5
1236.95268980981	1010
1239.49886308136	1007.5
1242.04424646098	1024.75
1244.58884035435	1021.25
1247.13264516647	1016.25
1249.67566130166	1011
1252.21788916358	1009
1254.75932915524	1040
1257.29998167896	1034.25
1259.83984713639	1040.5
1262.37892592857	1027
1264.91721845586	1027
1267.45472511795	1055.5
1269.9914463139	1025
1272.52738244213	1033
1275.0625339004	1035.75
1277.59690108587	1037.75
1280.130484395	1037.75
1282.66328422367	1050.5
1285.19530096712	1043
1287.72653501993	1093.75
1290.25698677608	1111
1292.78665662894	1182.75
1295.31554497125	1203.75
1297.8436521951	1143.25
1300.37097869203	1096.5
1302.89752485292	1082.5
1305.42329106805	1064.75
1307.94827772713	1067.25
1310.47248521921	1063.75
1312.99591393279	1061
1315.51856425575	1056
1318.04043657536	1057
1320.56153127836	1065.75
1323.08184875083	1058
1325.6013893783	1066.75
1328.12015354572	1055
1330.63814163744	1067.75
1333.15535403727	1073.75
1335.67179112839	1068
1338.18745329347	1056.5
1340.70234091454	1067.5
1343.21645437314	1081.25
1345.72979405019	1085.75
1348.24236032607	1083
1350.75415358059	1063.75
1353.26517419303	1062
1355.7754225421	1087.75
1358.28489900594	1098
1360.79360396218	1078
1363.30153778787	1094
1365.80870085955	1096
1368.31509355319	1105
1370.82071624424	1096.25
1373.32556930762	1081.5
1375.8296531177	1088
1378.33296804832	1076.75
1380.83551447282	1087
1383.33729276399	1086.75
1385.83830329408	1087.25
1388.33854643489	1092.75
1390.83802255762	1084.5
1393.33673203301	1089.5
1395.83467523128	1097.5
1398.33185252211	1089.75
1400.82826427471	1088.5
1403.32391085777	1099
1405.81879263947	1097.25
1408.31290998752	1096.5
1410.80626326908	1102.5
1413.29885285087	1124.75
1415.79067909909	1143.25
1418.28174237944	1126.75
1420.77204305717	1132.5
1423.26158149702	1139
1425.75035806323	1135
1428.2383731196	1145.5
1430.72562702942	1166.75
1433.21212015554	1175.75
1435.69785286028	1212.25
1438.18282550555	1243.5
1440.66703845275	1266
1443.15049206284	1232.75
1445.6331866963	1229.25
1448.11512271316	1224.5
1450.59630047298	1199.75
1453.07672033486	1212.75
1455.55638265748	1225.25
1458.03528779902	1218.75
1460.51343611725	1225.5
1462.99082796946	1225.75
1465.46746371252	1226
1467.94334370285	1226.25
1470.41846829642	1203.75
1472.89283784878	1209
1475.36645271503	1195.75
1477.83931324983	1193
1480.31141980743	1198.5
1482.78277274164	1196.25
1485.25337240583	1174.5
1487.72321915297	1185.75
1490.19231333557	1172.25
1492.66065530578	1186.75
1495.12824541525	1184
1497.5950840153	1194.25
1500.06117145678	1175.75
1502.52650809014	1189.25
1504.99109426543	1212.75
1507.45493033227	1189
1509.91801663992	1185.25
1512.38035353717	1201
1514.84194137248	1210
1517.30278049386	1185.75
1519.76287124894	1198
1522.22221398497	1206.5
1524.68080904876	1201.5
1527.13865678681	1215.25
1529.59575754514	1199.5
1532.05211166945	1222.5
1534.50771950503	1223.5
1536.96258139678	1214.75
1539.41669768924	1232.75
1541.87006872656	1225.75
1544.32269485252	1238.25
1546.77457641051	1233.5
1549.22571374357	1251.25
1551.67610719434	1247
1554.12575710513	1243.75
1556.57466381785	1258
1559.02282767408	1249.5
1561.47024901499	1261.25
1563.91692818144	1255.75
1566.3628655139	1260
1568.80806135249	1269.75
1571.252516037	1263.75
1573.6962299068	1292.25
1576.13920330099	1282.25
1578.58143655828	1282
1581.02293001704	1293.25
1583.46368401528	1291.25
1585.90369889071	1293
1588.34297498065	1303.25
1590.7815126221	1310.25
1593.21931215173	1292
1595.65637390588	1320.75
1598.09269822053	1306.5
1600.52828543135	1326
1602.96313587367	1319.5
1605.3972498825	1310.25
1607.83062779252	1315.25
1610.26326993808	1320.25
1612.69517665322	1310.25
1615.12634827165	1316.5
1617.55678512676	1321.75
1619.98648755163	1303
1622.41545587902	1307.75
1624.84369044138	1311.25
1627.27119157085	1322.25
1629.69795959924	1333.25
1632.12399485808	1331
1634.54929767859	1328.25
1636.97386839165	1329
1639.39770732789	1328.25
1641.8208148176	1327.25
1644.24319119078	1328.75
1646.66483677715	1346.25
1649.0857519061	1343
1651.50593690677	1355.75
1653.92539210795	1359.5
1656.3441178382	1330.25
1658.76211442575	1337.75
1661.17938219855	1329.75
1663.59592148428	1372
1666.01173261032	1373
1668.42681590377	1375.5
1670.84117169145	1377
1673.25480029991	1386
1675.66770205541	1368.25
1678.07987728393	1389.25
1680.49132631119	1397.75
1682.90204946263	1402.5
1685.31204706342	1395.75
1687.72131943846	1383.75
1690.1298669124	1416.75
1692.53768980957	1425.5
1694.94478845411	1439.75
1697.35116316982	1410.5
1699.75681428031	1417.75
1702.16174210887	1420
1704.56594697858	1427.25
1706.96942921222	1438.5
1709.37218913235	1430.75
1711.77422706125	1435.25
1714.17554332098	1426
1716.5761382333	1457.75
1718.97601211977	1438.5
1721.37516530169	1444
1723.77359810006	1428.75
1726.17131083572	1431.75
1728.56830382922	1438.25
1730.96457740087	1450.75
1733.36013187075	1450.25
1735.75496755868	1442.25
1738.14908478428	1448.25
1740.54248386689	1442.75
1742.93516512565	1463.75
1745.32712887946	1463
1747.71837544697	1451.25
1750.10890514662	1454.75
1752.49871829661	1447
1754.88781521492	1487
1757.27619621929	1484
1759.66386162726	1473.25
1762.05081175612	1469.5
1764.43704692297	1465.25
1766.82256744465	1484.5
1769.20737363782	1488.5
1771.59146581887	1492.75
1773.97484430405	1506
1776.35750940932	1502.25
1778.73946145048	1510.75
1781.12070074309	1512.75
1783.50122760249	1528.25
1785.88104234385	1517.5
1788.26014528209	1532.25
1790.63853673196	1533.5
1793.01621700796	1525
1795.39318642443	1547.25
1797.76944529549	1552
1800.14499393503	1522.75
1802.51983265681	1536
1804.8939617743	1560.5
1807.26738160085	1563
1809.64009244957	1557.75
1812.01209463339	1557
1814.38338846504	1564.75
1816.75397425706	1548
1819.12385232181	1588
1821.49302297142	1576.25
1823.86148651789	1582.5
1826.22924327299	1567.5
1828.59629354831	1608
1830.96263765526	1585.25
1833.32827590507	1590.25
1835.69320860877	1605.5
1838.05743607724	1588.75
1840.42095862113	1591.75
1842.78377655097	1618.5
1845.14589017707	1598.75
1847.50729980956	1584.25
1849.86800575843	1613
1852.22800833346	1582
1854.58730784427	1599.5
1856.94590460032	1636.5
1859.30379891087	1628
1861.66099108503	1624.5
1864.01748143175	1638.25
1866.37327025978	1625
1868.72835787773	1615.5
1871.08274459403	1638
1873.43643071697	1630.5
1875.78941655464	1643.5
1878.14170241498	1653.75
1880.4932886058	1655
1882.84417543469	1662
1885.19436320915	1659.75
1887.54385223646	1661.75
1889.89264282378	1684.5
1892.24073527809	1681.75
1894.58812990625	1691
1896.93482701493	1677.25
1899.28082691067	1699.75
1901.62612989984	1675.5
1903.97073628868	1710.75
1906.31464638326	1700
1908.6578604895	1734.5
1911.00037891321	1726.5
1913.34220196	1741
1915.68332993537	1734.25
1918.02376314468	1745.5
1920.36350189311	1705.25
1922.70254648573	1725.5
1925.04089722744	1714.25
1927.37855442303	1739
1929.71551837715	1739.5
1932.05178939426	1742.25
1934.38736777876	1758.75
1936.72225383484	1733.75
1939.0564478666	1776.25
1941.38995017799	1732.5
1943.72276107283	1776.25
1946.05488085479	1752.25
1948.38630982744	1748.25
1950.71704829419	1766
1953.04709655832	1771.25
1955.376454923	1772.25
1957.70512369126	1755.5
1960.03310316599	1792.5
1962.36039364999	1789.5
1964.68699544589	1784.5
1967.01290885622	1786.75
1969.33813418338	1805.5
1971.66267172965	1796
1973.98652179718	1772.5
1976.309684688	1796.25
1978.63216070402	1799.75
1980.95395014705	1817.5
1983.27505331873	1797
1985.59547052063	1827.5
1987.9152020542	1832
1990.23424822074	1815.75
1992.55260932146	1813.5
1994.87028565746	1815.5
1997.18727752968	1822.75
1999.503585239	1846
2001.81920908618	1856.5
2004.13414937184	1846.75
2006.44840639651	1875.25
2008.7619804606	1878.25
2011.07487186442	1883.5
2013.38708090815	1879
2015.6986078919	1895.25
2018.00945311564	1935.75
2020.31961687923	1883.75
2022.62909948246	1900.75
2024.93790122498	1911.25
2027.24602240636	1916
2029.55346332604	1961
2031.86022428337	1905.5
2034.16630557761	1937.75
2036.47170750791	1946.5
2038.77643037331	1948.25
2041.08047447275	1940.5
2043.38384010509	1965.25
2045.68652756907	1963.75
2047.98853716335	1963
2050.28986918648	1955.5
2052.59052393692	1960.75
2054.89050171302	1984.5
2057.18980281306	1972.25
2059.4884275352	1973.5
2061.78637617753	1987.25
2064.08364903802	1978.5
2066.38024641457	1989.75
2068.67616860497	1979.5
2070.97141590694	2006.25
2073.26598861809	2022.75
2075.55988703595	1973.25
2077.85311145796	2011.5
2080.14566218145	1998.75
2082.43753950371	2021.5
2084.72874372188	2031
2087.01927513307	2011
2089.30913403428	1996.75
2091.59832072241	2011.25
2093.88683549429	2010
2096.17467864666	2030.5
2098.46185047619	2029.75
2100.74835127944	2046
2103.03418135292	2051.25
2105.31934099303	2045.75
2107.6038304961	2072
2109.88765015838	2046.75
2112.17080027602	2038
2114.45328114513	2070.5
2116.7350930617	2063.5
2119.01623632165	2043.5
2121.29671122085	2055
2123.57651805505	2078.25
2125.85565711996	2077
2128.13412871117	2071.5
2130.41193312424	2064.75
2132.68907065462	2083
2134.96554159771	2077
2137.24134624881	2097.75
2139.51648490317	2095.75
2141.79095785593	2105.5
2144.0647654022	2103.25
2146.33790783698	2074.25
2148.61038545524	2090
2150.88219855182	2115.5
2153.15334742154	2098.5
2155.42383235911	2116.5
2157.6936536592	2085
2159.9628116164	2118.5
2162.23130652522	2123
2164.49913868011	2097.75
2166.76630837544	2102.25
2169.03281590552	2099
2171.2986615646	2116.75
2173.56384564685	2111
2175.82836844637	2125
2178.0922302572	2124
2180.35543137332	2117.25
2182.61797208862	2110
2184.87985269695	2094.75
2187.14107349208	2114.5
2189.40163476773	2110.25
2191.66153681753	2066.75
2193.92077993507	2137.25
2196.17936441386	2065.5
2198.43729054735	2093.25
2200.69455862894	2072.5
2202.95116895194	2110.25
2205.20712180962	2073.75
2207.46241749519	2070
2209.71705630179	2098.25
2211.97103852248	2071
2214.2243644503	2087.25
2216.47703437819	2055
2218.72904859905	2060.25
2220.98040740571	2073.5
2223.23111109095	2053.75
2225.4811599475	2053.75
2227.73055426799	2079.25
2229.97929434504	2056
2232.22738047118	2057.25
2234.47481293889	2058.75
2236.72159204058	2032.75
2238.96771806864	2067.25
2241.21319131536	2061.25
2243.458012073	2058
2245.70218063374	2031.5
2247.94569728973	2068.75
2250.18856233304	2039
2252.4307760557	2031.5
2254.67233874967	2019.75
2256.91325070687	2042.75
2259.15351221915	2021
2261.39312357831	2005.25
2263.63208507611	2023.5
2265.87039700422	2006.25
2268.1080596543	2018.75
2270.34507331792	2019.5
2272.5814382866	1999.75
2274.81715485183	1998.25
2277.05222330502	2001.75
2279.28664393755	1990.25
2281.52041704072	1979
2283.75354290581	1990.75
2285.98602182401	1997.75
2288.21785408648	1988
2290.44903998434	1979.75
2292.67957980862	2013
2294.90947385033	1975
2297.1387224004	1984.25
2299.36732574975	1998.75
2301.59528418921	1991.75
2303.82259800958	1987.5
2306.04926750158	1939.5
2308.27529295593	1973.5
2310.50067466325	1949
2312.72541291412	1965
2314.9495079991	1943.5
2317.17296020866	1911.5
2319.39576983323	1967
2321.61793716322	1929
2323.83946248894	1954.25
2326.06034610069	1927.25
2328.28058828871	1944
2330.50018934317	1919.75
2332.7191495542	1911
2334.93746921192	1912.5
2337.15514860633	1917.25
2339.37218802743	1911.25
2341.58858776516	1893.25
2343.80434810941	1900
2346.01946935001	1911.5
2348.23395177675	1920.75
2350.44779567939	1880.25
2352.66100134759	1910.5
2354.87356907101	1895.5
2357.08549913925	1908.25
2359.29679184185	1887.25
2361.50744746829	1884.75
2363.71746630804	1903
2365.92684865048	1860.5
2368.13559478499	1886.75
2370.34370500083	1872.75
2372.55117958727	1855
2374.75801883352	1874.75
2376.96422302874	1869
2379.16979246202	1870.75
2381.37472742243	1869.25
2383.57902819898	1858.25
2385.78269508063	1839.25
2387.98572835629	1855.75
2390.18812831482	1859.25
2392.38989524505	1847
2394.59102943573	1834.75
2396.79153117559	1863.25
2398.9914007533	1841.25
2401.19063845748	1825.75
2403.38924457672	1840.75
2405.58721939951	1842.5
2407.78456321435	1825
2409.98127630966	1831.25
2412.17735897382	1812.5
2414.37281149517	1810.5
2416.56763416198	1824.5
2418.76182726249	1812.5
2420.95539108487	1812.25
2423.14832591726	1809.25
2425.34063204776	1805.75
2427.53230976439	1794.75
2429.72335935513	1820
2431.91378110795	1796.75
2434.10357531071	1798.75
2436.29274225125	1807.75
2438.48128221739	1802.75
2440.66919549683	1764.5
2442.8564823773	1803.5
2445.04314314641	1777.75
2447.22917809176	1785.25
2449.4145875009	1772.25
2451.59937166131	1765.25
2453.78353086044	1765.75
2455.96706538568	1786.25
2458.14997552436	1764.5
2460.33226156379	1754.75
2462.51392379119	1781.25
2464.69496249376	1749.25
2466.87537795862	1759.25
2469.05517047288	1747.25
2471.23434032357	1764
2473.41288779767	1740
2475.59081318211	1736.75
2477.76811676378	1735.5
2479.9447988295	1741.5
2482.12085966605	1747.5
2484.29629956016	1746.5
2486.4711187985	1759.25
2488.64531766769	1755.25
2490.8188964543	1744
2492.99185544484	1730.5
2495.16419492579	1729
2497.33591518353	1720.75
2499.50701650444	1725.5
2501.67749917482	1721.25
2503.84736348091	1737.25
2506.01660970891	1725
2508.18523814496	1702.75
2510.35324907514	1709.75
2512.52064278551	1705.25
2514.68741956201	1716.5
2516.85357969058	1718.5
2519.01912345709	1722
2521.18405114735	1691.25
2523.34836304711	1704
2525.51205944208	1722.75
2527.6751406179	1699.25
2529.83760686016	1697
2531.99945845439	1714
2534.16069568606	1701
2536.3213188406	1693.5
2538.48132820336	1699.25
2540.64072405965	1701.25
2542.79950669471	1688.25
2544.95767639373	1702
2547.11523344184	1683.5
2549.27217812411	1710.75
2551.42851072555	1689.5
2553.58423153111	1705
2555.73934082569	1680.75
2557.89383889412	1695
2560.04772602118	1679.5
2562.20100249158	1684.25
2564.35366858996	1659.25
2566.50572460093	1691.25
2568.65717080901	1678.75
2570.80800749867	1668.75
2572.95823495433	1674.25
2575.10785346031	1671.25
2577.25686330093	1658
2579.40526476038	1640.75
2581.55305812282	1651.25
2583.70024367237	1668.5
2585.84682169303	1659.5
2587.99279246879	1645.25
2590.13815628354	1666.5
2592.28291342112	1646
2594.42706416531	1653.5
2596.5706087998	1630.75
2598.71354760826	1644
2600.85588087425	1643.25
2602.99760888127	1647.5
2605.13873191278	1637.5
2607.27925025214	1610.5
2609.41916418269	1651.75
2611.55847398764	1648
2613.69717995017	1629.75
2615.83528235339	1618.75
2617.97278148034	1640.25
2620.10967761398	1628.25
2622.2459710372	1616.25
2624.38166203284	1619.75
2626.51675088365	1615.75
2628.65123787231	1618
2630.78512328145	1629.75
2632.9184073936	1620.25
2635.05109049124	1636.75
2637.18317285676	1619.75
2639.31465477248	1617
2641.44553652067	1606
2643.5758183835	1619.75
2645.70550064309	1617.25
2647.83458358144	1615.5
2649.96306748053	1625
2652.09095262223	1608.5
2654.21823928836	1627.25
2656.34492776063	1613.25
2658.47101832071	1617
2660.59651125015	1634
2662.72140683047	1623.5
2664.84570534309	1631.25
2666.96940706934	1614.75
2669.0925122905	1620
2671.21502128773	1622.75
2673.33693434215	1618
2675.45825173479	1634.5
2677.57897374658	1622.25
2679.69910065839	1642.5
2681.818632751	1617.25
2683.93757030511	1622
2686.05591360133	1628.75
2688.17366292021	1619.25
2690.29081854218	1623.25
2692.40738074762	1613.25
2694.52334981681	1616.25
2696.63872602995	1630.25
2698.75350966713	1660.75
2700.86770100841	1631.25
2702.98130033371	1624.25
2705.09430792289	1636
2707.20672405571	1648.25
2709.31854901185	1650
2711.42978307091	1667.25
2713.54042651238	1675.25
2715.65047961567	1681.75
2717.7599426601	1702.5
2719.86881592491	1719
2721.97709968924	1689.5
2724.08479423213	1679.25
2726.19189983255	1692.25
2728.29841676934	1662.5
2730.4043453213	1649.5
2732.5096857671	1657
2734.61443838532	1607.25
2736.71860345444	1614.25
2738.82218125286	1613.75
2740.92517205889	1601.5
2743.02757615072	1612
2745.12939380646	1626.5
2747.23062530411	1621.25
2749.33127092159	1605.5
2751.4313309367	1600
2753.53080562716	1600.75
2755.62969527058	1596
2757.72800014448	1600
2759.82572052625	1592.75
2761.92285669323	1593.25
2764.0194089226	1598.25
2766.11537749147	1591.25
2768.21076267686	1590
2770.30556475566	1602
2772.39978400465	1593
2774.49342070054	1597
2776.58647511991	1592.75
2778.67894753923	1586.5
2780.77083823487	1605.25
2782.8621474831	1587.5
2784.95287556007	1631
2787.04302274184	1602.75
2789.13258930433	1594.25
2791.22157552338	1594
2793.30998167471	1583.25
2795.39780803392	1616.5
2797.4850548765	1601.25
2799.57172247786	1589.5
2801.65781111324	1616
2803.74332105781	1601.25
2805.82825258661	1633
2807.91260597457	1624.25
2809.9963814965	1607
2812.07957942711	1628.5
2814.16220004096	1627.75
2816.24424361252	1624.75
2818.32571041614	1627.5
2820.40660072604	1645.5
2822.48691481631	1672
2824.56665296098	1669
2826.64581543388	1692.25
2828.72440250876	1736.75
2830.80241445925	1770.75
2832.87985155885	1848.25
2834.95671408093	1953.25
2837.03300229875	2097.75
2839.10871648544	2246.25
2841.18385691399	2483
2843.25842385729	2700.75
2845.33241758808	2780.25
2847.40583837898	2836.25
2849.4786865025	2761.5
2851.550962231	2686.25
2853.6226658367	2592
2855.69379759173	2494.75
2857.76435776806	2461
2859.83434663753	2386.75
2861.90376447184	2310
2863.97261154259	2286.75
2866.0408881212	2249.75
2868.10859447901	2235
2870.17573088717	2275.5
2872.24229761673	2323
2874.30829493859	2412.25
2876.37372312352	2603.75
2878.43858244215	2901.75
2880.50287316496	3114.75
2882.56659556231	3028
2884.62974990439	2715.5
2886.69233646129	2509.5
2888.75435550293	2345.75
2890.81580729909	2314.25
2892.87669211941	2282
2894.93701023339	2247.5
2896.99676191039	2267.5
2899.05594741961	2253.25
2901.1145670301	2203.25
2903.1726210108	2155
2905.23010963045	2164.75
2907.28703315768	2105.5
2909.34339186096	2063.5
2911.39918600861	2048
2913.45441586879	2008
2915.50908170952	1983.75
2917.56318379867	1968.5
2919.61672240395	1977.5
2921.66969779291	1976.25
2923.72211023295	1995.25
2925.77395999134	1957.5
2927.82524733515	1981.5
2929.87597253132	1957.5
2931.92613584663	1929
2933.97573754769	1941.75
2936.02477790097	1873
2938.07325717276	1843
2940.1211756292	1831.5
2942.16853353626	1807
2944.21533115976	1764.25
2946.26156876536	1716.5
2948.30724661853	1704.75
2950.3523649846	1694
2952.39692412872	1686.75
2954.44092431587	1679.5
2956.48436581089	1656.75
2958.52724887843	1654
2960.56957378296	1663
2962.6113407888	1643.5
2964.65255016011	1665.5
2966.69320216083	1672
2968.73329705479	1630.25
2970.77283510559	1670.25
2972.81181657671	1657.5
2974.8502417314	1647.75
2976.88811083279	1664.25
2978.92542414378	1675.5
2980.96218192713	1659.25
2982.99838444541	1673.5
2985.034031961	1659.25
2987.06912473612	1659.25
2989.1036630328	1647.75
2991.13764711288	1677.25
2993.17107723804	1665.5
2995.20395366974	1671.5
2997.23627666931	1672.5
2999.26804649782	1695.75
3001.29926341624	1674.25
3003.32992768528	1668.25
3005.3600395655	1668.25
3007.38959931726	1674.75
3009.41860720076	1691
3011.44706347595	1694.5
3013.47496840263	1671.5
3015.50232224041	1693.25
3017.5291252487	1699.75
3019.5553776867	1684.75
3021.58107981344	1706
3023.60623188773	1719.75
3025.63083416822	1709.75
3027.65488691331	1712
3029.67839038125	1696.5
3031.70134483007	1691.25
3033.72375051759	1721.5
3035.74560770144	1710.5
3037.76691663907	1717
3039.78767758768	1729.5
3041.80789080431	1702.5
3043.82755654577	1720.5
3045.84667506867	1728.75
3047.8652466294	1730
3049.88327148418	1718.25
3051.90074988899	1724.75
3053.91768209961	1721.5
3055.9340683716	1706
3057.94990896033	1731.75
3059.96520412095	1731.75
3061.97995410838	1721.75
3063.99415917734	1742.25
3066.00781958234	1717.75
3068.02093557766	1706.75
3070.03350741738	1717.75
3072.04553535535	1731.5
3074.05701964521	1746.5
3076.06796054036	1729.25
3078.078358294	1740
3080.08821315912	1733.25
3082.09752538846	1750
3084.10629523454	1724.75
3086.11452294967	1735.75
3088.12220878592	1748.25
3090.12935299515	1736.5
3092.13595582898	1742.25
3094.1420175388	1726.25
3096.14753837579	1739.75
3098.15251859088	1740.75
3100.15695843477	1735.75
3102.16085815793	1713
3104.16421801061	1744.75
3106.16703824282	1730.75
3108.16931910432	1742
3110.17106084464	1739.5
3112.17226371308	1724.5
3114.17292795872	1740.25
3116.17305383034	1755.75
3118.17264157657	1731.25
3120.17169144571	1729.5
3122.17020368587	1768.75
3124.16817854492	1725.25
3126.16561627044	1746
3128.16251710982	1783
3130.15888131017	1777.75
3132.15470911837	1766.25
3134.15000078104	1766
3136.14475654455	1777.75
3138.13897665502	1786
3140.13266135835	1772.75
3142.12581090014	1775
3144.11842552577	1778.25
3146.11050548036	1797
3148.10205100875	1795.5
3150.09306235557	1821.25
3152.08353976515	1793.25
3154.07348348158	1776.5
3156.06289374869	1782.75
3158.05177081006	1781.5
3160.04011490899	1805.5
3162.02792628852	1810.75
3164.01520519145	1794.75
3166.00195186029	1808.25
3167.98816653728	1805
3169.97384946442	1812.5
3171.95900088344	1783.25
3173.94362103577	1788.75
3175.92771016259	1790.5
3177.91126850484	1800
3179.89429630312	1801.5
3181.87679379782	1800.25
3183.85876122903	1814.75
3185.84019883657	1803.75
3187.82110685997	1835.5
3189.80148553851	1814.5
3191.78133511116	1832.25
3193.76065581664	1828.75
3195.73944789337	1803.5
3197.7177115795	1808.75
3199.6954471129	1821.25
3201.67265473114	1828.5
3203.64933467153	1829.25
3205.62548717107	1821
3207.60111246648	1825.5
3209.57621079421	1840
3211.55078239041	1844.75
3213.52482749093	1809.5
3215.49834633133	1834.75
3217.4713391469	1833.75
3219.44380617262	1851.25
3221.41574764317	1851.75
3223.38716379296	1830.25
3225.35805485607	1854
3227.32842106631	1854
3229.29826265718	1876
3231.26757986187	1856.75
3233.2363729133	1881.5
3235.20464204405	1845.75
3237.17238748643	1854.5
3239.13960947243	1854.5
3241.10630823374	1866.75
3243.07248400174	1890
3245.03813700748	1862.25
3247.00326748177	1874.5
3248.96787565503	1883
3250.93196175742	1914.75
3252.89552601877	1900.5
3254.8585686686	1889.75
3256.82108993612	1910
3258.78309005022	1880.25
3260.74456923948	1883
3262.70552773215	1898.25
3264.66596575617	1922.5
3266.62588353916	1913.75
3268.58528130843	1909.5
3270.54415929094	1899.25
3272.50251771336	1877.25
3274.46035680201	1905
3276.4176767829	1932
3278.37447788171	1911.75
3280.33076032379	1914.5
3282.28652433416	1915.25
3284.24177013751	1909.25
3286.1964979582	1905.75
3288.15070802027	1921.5
3290.10440054741	1915.75
3292.05757576298	1913.75
3294.01023389001	1937.5
3295.96237515119	1923
3297.91399976887	1926.75
3299.86510796506	1931.75
3301.81569996142	1927.75
3303.76577597932	1918.5
3305.7153362397	1951.5
3307.66438096324	1919.75
3309.61291037024	1940
3311.56092468064	1940.75
3313.50842411404	1911.5
3315.45540888971	1918
3317.40187922656	1942.25
3319.34783534315	1963
3321.29327745768	1926.5
3323.23820578801	1898.75
3325.18262055164	1931
3327.1265219657	1917.75
3329.06991024699	1942
3331.01278561194	1939.5
3332.95514827662	1928
3334.89699845674	1925.75
3336.83833636766	1924.25
3338.77916222434	1941.25
3340.71947624143	1941.75
3342.65927863317	1930.75
3344.59856961346	1936.25
3346.53734939584	1944.75
3348.47561819344	1932.5
3350.41337621906	1929
3352.35062368513	1940.5
3354.28736080368	1926
3356.22358778637	1923
3358.15930484452	1927
3360.09451218904	1961
3362.02921003047	1940.25
3363.96339857898	1943
3365.89707804436	1939.25
3367.83024863602	1932
3369.76291056299	1931.25
3371.69506403389	1941
3373.62670925699	1958.25
3375.55784644016	1953.5
3377.4884757909	1943.75
3379.41859751629	1963.5
3381.34821182305	1949.75
3383.27731891749	1929.5
3385.20591900555	1958.25
3387.13401229276	1971
3389.06159898426	1981
3390.9886792848	1994.25
3392.91525339872	1962.25
3394.84132152998	1976.5
3396.76688388213	1953.75
3398.69194065833	1993.25
3400.61649206133	1970.75
3402.54053829348	1976.75
3404.46407955672	1979.5
3406.3871160526	1984
3408.30964798225	1994
3410.23167554639	1999.75
3412.15319894535	1994.25
3414.07421837904	1996.25
3415.99473404695	2013.25
3417.91474614817	1970.75
3419.83425488136	2000.25
3421.75326044479	1998
3423.67176303631	1987.75
3425.58976285332	2010
3427.50726009282	1986.5
3429.42425495143	2008
3431.34074762528	2020
3433.25673831012	1999.75
3435.17222720127	2020.25
3437.08721449362	2020.25
3439.00170038164	1993
3440.91568505936	1994.75
3442.82916872039	1986
3444.74215155791	1993.5
3446.65463376468	1985.5
3448.566615533	1993.5
3450.47809705476	1994.5
3452.3890785214	1981
3454.29956012393	1992.25
3456.20954205293	1987
3458.11902449853	2003.75
3460.02800765041	1978
3461.93649169784	2000
3463.84447682962	1976
3465.75196323412	1956.25
3467.65895109925	1952
3469.56544061249	1992.5
3471.47143196086	1997.75
3473.37692533093	1979
3475.28192090884	1986.25
3477.18641888026	1990.5
3479.09041943039	1975.25
3480.99392274402	1995.75
3482.89692900545	1980
3484.79943839853	1987.75
3486.70145110666	1991.75
3488.60296731277	2002
3490.50398719933	1979.5
3492.40451094836	1970.75
3494.30453874141	2005.75
3496.20407075956	1969.25
3498.10310718342	1980
3500.00164819315	1971.25