201.866871357051	621.75
204.754250281454	618.75
207.640596790938	622.75
210.525911876299	616.75
213.410196525689	615.25
216.293451724508	627
219.175678455485	617.75
222.056877698662	619
224.937050431388	622
227.816197628363	624.5
230.694320261602	622.5
233.571419300504	627
236.447495711764	633.25
239.322550459507	639.25
242.196584505182	651
245.069598807626	661
247.941594323078	658.5
250.812572005154	662.25
253.682532804884	661.25
256.551477670699	657.25
259.419407548456	634.25
262.286323381439	633
265.152226110364	635
268.017116673389	627.75
270.880996006115	630.5
273.743865041622	622.75
276.605724710436	621.75
279.466575940562	622
282.326419657496	625.25
285.1852567842	611.75
288.043088241157	616.75
290.899914946349	619.25
293.75573781526	613
296.610557760898	618.25
299.464375693817	614.25
302.317192522078	619.75
305.169009151297	621
308.019826484655	620.5
310.86964542287	629.5
313.718466864233	624
316.566291704614	628.5
319.413120837457	631.5
322.258955153804	632.5
325.103795542291	631
327.947642889128	631
330.79049807819	629
333.632361990927	622.5
336.473235506444	618.25
339.31311950145	621.25
342.152014850322	614.75
344.989922425062	616
347.826843095354	620.25
350.662777728528	618
353.497727189577	622.25
356.331692341195	625
359.164674043732	615.25
361.996673155267	617.25
364.827690531536	618
367.65772702602	625.75
370.486783489887	619.75
373.314860772047	622.5
376.14195971912	631.5
378.968081175466	622.5
381.793225983212	631.5
384.617394982201	635
387.44058901005	650.5
390.262808902131	668.25
393.08405549161	698.75
395.904329609395	745.75
398.723632084213	760.5
401.541963742569	743.5
404.359325408779	708
407.175717904938	671.5
409.991142050982	654.75
412.805598664665	648
415.619088561551	644.25
418.43161255505	639.25
421.243171456415	639.25
424.053766074758	636.75
426.863397217017	638.25
429.672065688024	639.75
432.479772290455	633.75
435.286517824879	639.75
438.092303089736	642.5
440.897128881359	645
443.70099599399	654
446.503905219761	661.25
449.305857348711	687.5
452.106853168796	691.75
454.906893465919	689.5
457.705979023885	683.5
460.504110624439	679.25
463.3012890473	662.25
466.097515070087	653.25
468.892789468424	644
471.687113015869	631.5
474.48048648395	630.75
477.272910642198	632.5
480.064386258109	632
482.854914097159	629.75
485.644494922839	626.5
488.433129496636	629.5
491.220818578047	631
494.007562924584	628
496.793363291785	626.75
499.578220433217	626.75
502.362135100473	632.75
505.145108043209	624.75
507.927140009098	628.75
510.708231743909	630
513.488383991433	634.25
516.267597493556	640.5
519.04587299022	655
521.82321121946	651.75
524.599612917398	665
527.375078818233	673.75
530.149609654287	671.25
532.923206155967	659
535.695869051804	653.75
538.467599068448	644
541.238396930665	634.75
544.008263361364	636.5
546.777199081578	633.25
549.545204810493	631
552.312281265436	634.5
555.078429161898	632
557.843649213533	626.25
560.607942132156	627.5
563.371308627753	629.5
566.133749408495	631.75
568.895265180756	627.25
571.655856649064	629.25
574.415524516189	630.5
577.174269483075	624.75
579.932092248884	628.75
582.688993510994	629
585.444973965023	629
588.200034304795	622
590.95417522237	630.25
593.70739740807	626
596.459701550433	622.25
599.21108833628	624
601.961558450668	622
604.711112576933	631
607.459751396673	629.75
610.207475589748	630.5
612.954285834338	632.75
615.700182806879	630
618.445167182101	628.5
621.189239633055	624.75
623.932400831087	624.5
626.674651445839	627
629.415992145303	628.25
632.156423595745	623.75
634.895946461813	619.5
637.634561406449	635.5
640.37226909096	622.75
643.109070174978	625.75
645.844965316508	628.5
648.579955171888	630.25
651.314040395846	624.5
654.047221641456	621.5
656.779499560176	625.75
659.510874801828	627.25
662.241348014642	630
664.97091984524	629
667.699590938606	629.5
670.427361938164	626
673.15423348573	632.75
675.880206221526	629.25
678.605280784206	626
681.329457810829	626.75
684.05273793692	628.25
686.775121796389	629.25
689.49661002163	625
692.217203243454	637
694.936902091144	640.5
697.655707192425	630.5
700.373619173493	624.5
703.09063865901	624.5
705.806766272093	628.75
708.522002634378	632
711.236348365946	632
713.94980408538	628.75
716.662370409762	634.25
719.374047954676	629.25
722.08483733419	633.5
724.794739160909	628
727.503754045949	630.5
730.21188259892	636
732.919125427998	629.25
735.625483139855	631.5
738.330956339723	629.75
741.035545631374	625.25
743.739251617106	631.25
746.44207489779	634.75
749.144016072852	632
751.845075740272	633.5
754.545254496603	637.25
757.244552936976	639.25
759.94297165508	637.25
762.640511243222	641.5
765.337172292249	636.75
768.032955391649	642.5
770.727861129482	645
773.421890092413	636.5
776.11504286572	642.5
778.807320033298	643.75
781.49872217765	644.25
784.18924987991	646
786.87890371984	644.5
789.567684275826	646
792.255592124908	663.25
794.94262784276	673
797.628792003703	695.75
800.314085180715	730.25
802.998507945427	829.75
805.682060868145	957.25
808.364744517821	1082
811.046559462105	1042.5
813.727506267311	885.5
816.407585498422	773
819.08679771913	718.5
821.765143491822	688.5
824.442623377563	692.25
827.119237936127	692.5
829.794987726003	701.75
832.469873304377	713.25
835.143895227167	718.75
837.817054048985	732
840.489350323205	746
843.160784601892	728
845.831357435894	716.75
848.501069374739	674.25
851.169920966753	674
853.837912758987	665.5
856.505045297232	661
859.171319126071	663
861.836734788823	653
864.501292827579	653.5
867.164993783208	653.25
869.827838195361	648.5
872.489826602454	650
875.150959541701	648.75
877.811237549104	647.25
880.470661159456	650.75
883.129230906357	646.5
885.786947322205	645
888.443810938206	648.75
891.099822284385	647.25
893.754981889586	655.5
896.409290281452	657.5
899.062747986485	658.75
901.715355529999	649.75
904.367113436154	654.75
907.01802222793	651.5
909.668082427172	654.25
912.317294554574	644
914.965659129659	647.25
917.613176670835	648.5
920.259847695364	647
922.90567271936	644.75
925.550652257825	649
928.194786824621	657
930.838076932512	657
933.480523093109	659
936.122125816953	676
938.762885613447	681.25
941.402802990899	681.75
944.041878456523	684.25
946.680112516428	670.5
949.31750567563	661
951.954058438081	669
954.589771306633	662.25
957.224644783048	657
959.858679368044	676.75
962.491875561238	686.5
965.12423386121	718.75
967.75575476545	770.75
970.386438770423	847.25
973.016286371501	897.75
975.645298063046	851.25
978.273474338355	773
980.900815689674	711.75
983.527322608243	690
986.152995584245	665
988.777835106834	667.5
991.401841664148	661.75
994.025015743307	677.25
996.647357830407	677.25
999.268868410534	673.25
1001.88954796777	674.75
1004.50939698518	672.75
1007.12841594484	664.25
1009.74660532783	672.25
1012.36396561423	667.75
1014.98049728314	666.5
1017.59620081267	664.5
1020.21107667995	660.25
1022.82512536112	669.5
1025.43834733138	665.25
1028.05074306493	677.5
1030.66231303501	687.25
1033.27305771392	702
1035.88297757299	707
1038.49207308257	699.75
1041.10034471211	695.25
1043.70779293008	690
1046.31441820402	688.75
1048.92022100052	673.5
1051.52520178525	668.25
1054.12936102295	668.5
1056.73269917742	665.5
1059.33521671154	667
1061.93691408729	663
1064.53779176571	662.5
1067.13785020694	662.75
1069.73708987022	660
1072.33551121386	664
1074.93311469528	661.75
1077.52990077103	662.25
1080.12586989674	664.5
1082.72102252714	665
1085.31535911611	663.5
1087.90888011663	665.5
1090.50158598078	666
1093.09347715979	661.5
1095.68455410403	672.5
1098.27481726296	676.5
1100.86426708523	676.25
1103.45290401857	677.75
1106.04072850991	677
1108.6277410053	667.75
1111.21394194993	668.5
1113.79933178816	675.25
1116.3839109635	679.25
1118.96767991862	669.75
1121.55063909539	669.75
1124.13278893477	674.5
1126.71412987696	670.75
1129.29466236132	680.5
1131.87438682637	688.5
1134.45330370982	688
1137.03141344858	691.25
1139.60871647872	701.5
1142.18521323554	711.5
1144.7609041535	727.25
1147.33578966629	747
1149.90987020676	777.5
1152.48314620702	803.25
1155.05561809835	795.25
1157.62728631125	807.5
1160.19815127545	830.25
1162.76821341988	864.75
1165.33747317271	914
1167.90593096133	962.75
1170.47358721235	922.75
1173.04044235163	867
1175.60649680425	778.5
1178.17175099454	738.75
1180.73620534607	711
1183.29986028165	707
1185.86271622336	699.5
1188.42477359249	698
1190.98603280964	695.75
1193.54649429462	695.5
1196.10615846653	698.25
1198.66502574372	695
1201.22309654385	706.25
1203.78037128378	705
1206.33685037971	709.5
1208.89253424709	701.75
1211.44742330063	716
1214.00151795438	731.75
1216.55481862163	757.5
1219.10732571497	761.5
1221.65903964631	753
1224.20996082683	738
1226.760089667	719.75
1229.30942657664	717.5
1231.85797196483	709
1234.40572623998	707.25
1236.95268980981	710.25
1239.49886308136	717
1242.04424646098	718.75
1244.58884035435	714.75
1247.13264516647	723
1249.67566130166	744.5
1252.21788916358	762
1254.75932915524	779
1257.29998167896	770.5
1259.83984713639	747.25
1262.37892592857	733.75
1264.91721845586	727
1267.45472511795	727.25
1269.9914463139	725
1272.52738244213	733.75
1275.0625339004	720.75
1277.59690108587	738.5
1280.130484395	726.25
1282.66328422367	740.5
1285.19530096712	745.75
1287.72653501993	751
1290.25698677608	746.25
1292.78665662894	768.75
1295.31554497125	761
1297.8436521951	767
1300.37097869203	787.5
1302.89752485292	803
1305.42329106805	803.75
1307.94827772713	783.5
1310.47248521921	772.25
1312.99591393279	762.5
1315.51856425575	781
1318.04043657536	799.75
1320.56153127836	818.75
1323.08184875083	843.25
1325.6013893783	880.5
1328.12015354572	918.75
1330.63814163744	945.5
1333.15535403727	883
1335.67179112839	855.25
1338.18745329347	823.5
1340.70234091454	799.25
1343.21645437314	814.25
1345.72979405019	805.25
1348.24236032607	818.75
1350.75415358059	820
1353.26517419303	824.5
1355.7754225421	858.5
1358.28489900594	893.75
1360.79360396218	890
1363.30153778787	875
1365.80870085955	841.25
1368.31509355319	832.5
1370.82071624424	832.5
1373.32556930762	829
1375.8296531177	838.75
1378.33296804832	835.75
1380.83551447282	827.25
1383.33729276399	821.5
1385.83830329408	815.75
1388.33854643489	819.25
1390.83802255762	805
1393.33673203301	803.25
1395.83467523128	815.5
1398.33185252211	813.25
1400.82826427471	820
1403.32391085777	807
1405.81879263947	808
1408.31290998752	817
1410.80626326908	822
1413.29885285087	813.5
1415.79067909909	823.75
1418.28174237944	830
1420.77204305717	827.75
1423.26158149702	837.25
1425.75035806323	851.75
1428.2383731196	856
1430.72562702942	885
1433.21212015554	923
1435.69785286028	939.75
1438.18282550555	941.75
1440.66703845275	914.5
1443.15049206284	913.5
1445.6331866963	929.5
1448.11512271316	937.75
1450.59630047298	965.25
1453.07672033486	1006
1455.55638265748	1050.25
1458.03528779902	1077.75
1460.51343611725	1091.75
1462.99082796946	1076.25
1465.46746371252	1009
1467.94334370285	953.75
1470.41846829642	917.75
1472.89283784878	900.75
1475.36645271503	883.5
1477.83931324983	883
1480.31141980743	874.5
1482.78277274164	873.5
1485.25337240583	869.25
1487.72321915297	874
1490.19231333557	877.25
1492.66065530578	879
1495.12824541525	880
1497.5950840153	867.5
1500.06117145678	864
1502.52650809014	867.5
1504.99109426543	875.5
1507.45493033227	865
1509.91801663992	874.25
1512.38035353717	883.5
1514.84194137248	875.25
1517.30278049386	874.25
1519.76287124894	869.75
1522.22221398497	880.75
1524.68080904876	863.25
1527.13865678681	868
1529.59575754514	862.5
1532.05211166945	872.5
1534.50771950503	863
1536.96258139678	868
1539.41669768924	873.5
1541.87006872656	863.5
1544.32269485252	859.5
1546.77457641051	865
1549.22571374357	865
1551.67610719434	866.75
1554.12575710513	860.25
1556.57466381785	861.5
1559.02282767408	861.25
1561.47024901499	854
1563.91692818144	857.75
1566.3628655139	864.5
1568.80806135249	870
1571.252516037	860.75
1573.6962299068	861.5
1576.13920330099	871
1578.58143655828	868.25
1581.02293001704	861.25
1583.46368401528	865.5
1585.90369889071	863.75
1588.34297498065	876.75
1590.7815126221	867.25
1593.21931215173	857
1595.65637390588	861
1598.09269822053	862.25
1600.52828543135	858.25
1602.96313587367	862
1605.3972498825	858.75
1607.83062779252	852.25
1610.26326993808	850.5
1612.69517665322	862.75
1615.12634827165	851.5
1617.55678512676	859.75
1619.98648755163	856.75
1622.41545587902	848.5
1624.84369044138	847
1627.27119157085	853
1629.69795959924	849.75
1632.12399485808	851.75
1634.54929767859	843.75
1636.97386839165	872.25
1639.39770732789	853.5
1641.8208148176	837.75
1644.24319119078	842.75
1646.66483677715	854.75
1649.0857519061	861.25
1651.50593690677	851.5
1653.92539210795	851.5
1656.3441178382	860.25
1658.76211442575	855
1661.17938219855	849.75
1663.59592148428	850.25
1666.01173261032	855
1668.42681590377	845
1670.84117169145	860.25
1673.25480029991	853
1675.66770205541	842
1678.07987728393	841.25
1680.49132631119	863.25
1682.90204946263	852
1685.31204706342	838.25
1687.72131943846	860
1690.1298669124	862.75
1692.53768980957	867.75
1694.94478845411	856.25
1697.35116316982	851
1699.75681428031	857.75
1702.16174210887	851.75
1704.56594697858	847
1706.96942921222	856
1709.37218913235	844.5
1711.77422706125	856.75
1714.17554332098	853
1716.5761382333	856
1718.97601211977	842
1721.37516530169	846.75
1723.77359810006	845.25
1726.17131083572	857.25
1728.56830382922	859.25
1730.96457740087	851.75
1733.36013187075	844
1735.75496755868	851.75
1738.14908478428	858.25
1740.54248386689	844.5
1742.93516512565	828.5
1745.32712887946	838.25
1747.71837544697	849.25
1750.10890514662	852.25
1752.49871829661	853.75
1754.88781521492	842.75
1757.27619621929	839
1759.66386162726	836.5
1762.05081175612	849.5
1764.43704692297	855.5
1766.82256744465	843
1769.20737363782	847.5
1771.59146581887	844
1773.97484430405	847
1776.35750940932	846.75
1778.73946145048	854.25
1781.12070074309	856.5
1783.50122760249	846.5
1785.88104234385	852
1788.26014528209	842.5
1790.63853673196	853.5
1793.01621700796	849.75
1795.39318642443	851
1797.76944529549	851.25
1800.14499393503	836.75
1802.51983265681	850.75
1804.8939617743	852.75
1807.26738160085	858
1809.64009244957	839.75
1812.01209463339	852.5
1814.38338846504	839.5
1816.75397425706	846.75
1819.12385232181	851.5
1821.49302297142	850.75
1823.86148651789	845.25
1826.22924327299	853
1828.59629354831	845
1830.96263765526	850.25
1833.32827590507	853.5
1835.69320860877	856.5
1838.05743607724	847.75
1840.42095862113	837.75
1842.78377655097	847.5
1845.14589017707	840
1847.50729980956	840.25
1849.86800575843	835
1852.22800833346	839.75
1854.58730784427	850.75
1856.94590460032	843.25
1859.30379891087	839.75
1861.66099108503	842.5
1864.01748143175	853.5
1866.37327025978	848.75
1868.72835787773	843.5
1871.08274459403	848
1873.43643071697	848
1875.78941655464	841.25
1878.14170241498	850.75
1880.4932886058	853.25
1882.84417543469	844
1885.19436320915	856.75
1887.54385223646	839
1889.89264282378	850.75
1892.24073527809	849.75
1894.58812990625	859.75
1896.93482701493	845
1899.28082691067	845.5
1901.62612989984	853.25
1903.97073628868	858.25
1906.31464638326	859
1908.6578604895	856.5
1911.00037891321	862.5
1913.34220196	864.5
1915.68332993537	860
1918.02376314468	852.5
1920.36350189311	851.25
1922.70254648573	857
1925.04089722744	856.5
1927.37855442303	857.25
1929.71551837715	859
1932.05178939426	867.25
1934.38736777876	850.25
1936.72225383484	849.25
1939.0564478666	862.25
1941.38995017799	863.5
1943.72276107283	845
1946.05488085479	859.75
1948.38630982744	858.25
1950.71704829419	855.25
1953.04709655832	855.5
1955.376454923	857
1957.70512369126	852
1960.03310316599	853.75
1962.36039364999	843.75
1964.68699544589	847.25
1967.01290885622	861
1969.33813418338	843.25
1971.66267172965	857.75
1973.98652179718	849.75
1976.309684688	866.5
1978.63216070402	853.5
1980.95395014705	857.25
1983.27505331873	857
1985.59547052063	844
1987.9152020542	857
1990.23424822074	858
1992.55260932146	853
1994.87028565746	853.5
1997.18727752968	844.75
1999.503585239	860
2001.81920908618	856
2004.13414937184	857.25
2006.44840639651	868.25
2008.7619804606	858.25
2011.07487186442	875
2013.38708090815	861
2015.6986078919	862
2018.00945311564	864.75
2020.31961687923	865.75
2022.62909948246	859
2024.93790122498	864.5
2027.24602240636	874
2029.55346332604	872
2031.86022428337	868
2034.16630557761	862
2036.47170750791	865.75
2038.77643037331	860
2041.08047447275	873.75
2043.38384010509	869.25
2045.68652756907	882
2047.98853716335	863.75
2050.28986918648	865.25
2052.59052393692	866.75
2054.89050171302	873
2057.18980281306	861.75
2059.4884275352	865.75
2061.78637617753	865.5
2064.08364903802	863.5
2066.38024641457	869.25
2068.67616860497	860.5
2070.97141590694	863
2073.26598861809	848.25
2075.55988703595	861.75
2077.85311145796	861.75
2080.14566218145	860
2082.43753950371	859
2084.72874372188	841
2087.01927513307	865.75
2089.30913403428	864
2091.59832072241	865.25
2093.88683549429	858
2096.17467864666	865.75
2098.46185047619	858.5
2100.74835127944	858.75
2103.03418135292	866.25
2105.31934099303	861.75
2107.6038304961	865
2109.88765015838	863.5
2112.17080027602	855.75
2114.45328114513	870
2116.7350930617	859
2119.01623632165	857
2121.29671122085	861.25
2123.57651805505	855.75
2125.85565711996	864.5
2128.13412871117	859.75
2130.41193312424	867
2132.68907065462	866
2134.96554159771	863.25
2137.24134624881	855.25
2139.51648490317	860.25
2141.79095785593	869.75
2144.0647654022	870.5
2146.33790783698	856.5
2148.61038545524	864.25
2150.88219855182	859.5
2153.15334742154	863.75
2155.42383235911	862
2157.6936536592	861.75
2159.9628116164	859.5
2162.23130652522	853.5
2164.49913868011	866.75
2166.76630837544	856.75
2169.03281590552	867.5
2171.2986615646	868
2173.56384564685	865.5
2175.82836844637	868.25
2178.0922302572	858
2180.35543137332	865.5
2182.61797208862	852
2184.87985269695	855
2187.14107349208	861.75
2189.40163476773	869
2191.66153681753	857.5
2193.92077993507	857.75
2196.17936441386	854.75
2198.43729054735	872.25
2200.69455862894	856.5
2202.95116895194	857.75
2205.20712180962	851.5
2207.46241749519	857.75
2209.71705630179	855.75
2211.97103852248	851.5
2214.2243644503	854.75
2216.47703437819	846
2218.72904859905	851
2220.98040740571	854
2223.23111109095	851.75
2225.4811599475	846.5
2227.73055426799	858.5
2229.97929434504	850.75
2232.22738047118	862
2234.47481293889	846.75
2236.72159204058	847.5
2238.96771806864	856.75
2241.21319131536	846.75
2243.458012073	861.5
2245.70218063374	855.5
2247.94569728973	850.25
2250.18856233304	849.25
2252.4307760557	851.25
2254.67233874967	851
2256.91325070687	843.5
2259.15351221915	843
2261.39312357831	856.25
2263.63208507611	852
2265.87039700422	841.25
2268.1080596543	852
2270.34507331792	833
2272.5814382866	844.75
2274.81715485183	839.75
2277.05222330502	859.75
2279.28664393755	844.5
2281.52041704072	845
2283.75354290581	853.5
2285.98602182401	853.5
2288.21785408648	854
2290.44903998434	848
2292.67957980862	842.5
2294.90947385033	849
2297.1387224004	842.25
2299.36732574975	858
2301.59528418921	859.5
2303.82259800958	851.75
2306.04926750158	857
2308.27529295593	863.75
2310.50067466325	852.75
2312.72541291412	855.75
2314.9495079991	845.5
2317.17296020866	852.75
2319.39576983323	850
2321.61793716322	836
2323.83946248894	842.25
2326.06034610069	851.25
2328.28058828871	851.75
2330.50018934317	841
2332.7191495542	851
2334.93746921192	850.25
2337.15514860633	840.75
2339.37218802743	841.25
2341.58858776516	846.25
2343.80434810941	852.5
2346.01946935001	843.25
2348.23395177675	833
2350.44779567939	846.75
2352.66100134759	844.75
2354.87356907101	836.75
2357.08549913925	833.25
2359.29679184185	841.75
2361.50744746829	848.75
2363.71746630804	835.75
2365.92684865048	840.75
2368.13559478499	835.25
2370.34370500083	848.75
2372.55117958727	838.25
2374.75801883352	839
2376.96422302874	835.5
2379.16979246202	829.75
2381.37472742243	831
2383.57902819898	834.25
2385.78269508063	841.25
2387.98572835629	827.75
2390.18812831482	826.25
2392.38989524505	833
2394.59102943573	832
2396.79153117559	832.75
2398.9914007533	832.75
2401.19063845748	830
2403.38924457672	826.75
2405.58721939951	830.5
2407.78456321435	836
2409.98127630966	838.75
2412.17735897382	828
2414.37281149517	828.75
2416.56763416198	834.5
2418.76182726249	826.75
2420.95539108487	839.5
2423.14832591726	825.5
2425.34063204776	837.75
2427.53230976439	828
2429.72335935513	827
2431.91378110795	834
2434.10357531071	826
2436.29274225125	831
2438.48128221739	826.25
2440.66919549683	834.25
2442.8564823773	828.75
2445.04314314641	832.5
2447.22917809176	830.75
2449.4145875009	834.75
2451.59937166131	827
2453.78353086044	828.75
2455.96706538568	833.5
2458.14997552436	821
2460.33226156379	828.25
2462.51392379119	827.5
2464.69496249376	837.75
2466.87537795862	818.75
2469.05517047288	823.25
2471.23434032357	821
2473.41288779767	824.75
2475.59081318211	822.75
2477.76811676378	821.75
2479.9447988295	819.25
2482.12085966605	818.5
2484.29629956016	820.25
2486.4711187985	822.5
2488.64531766769	818.5
2490.8188964543	815.5
2492.99185544484	823.25
2495.16419492579	826
2497.33591518353	827.5
2499.50701650444	823.75
2501.67749917482	828.5
2503.84736348091	821.25
2506.01660970891	828
2508.18523814496	828.75
2510.35324907514	831.75
2512.52064278551	836
2514.68741956201	829.25
2516.85357969058	835.25
2519.01912345709	835.75
2521.18405114735	835.75
2523.34836304711	839
2525.51205944208	839.25
2527.6751406179	839
2529.83760686016	829.5
2531.99945845439	843.25
2534.16069568606	827.25
2536.3213188406	835
2538.48132820336	830.25
2540.64072405965	824.5
2542.79950669471	835.75
2544.95767639373	828
2547.11523344184	841
2549.27217812411	836.5
2551.42851072555	840
2553.58423153111	836.5
2555.73934082569	825
2557.89383889412	832.75
2560.04772602118	837.25
2562.20100249158	831.25
2564.35366858996	837.25
2566.50572460093	848.75
2568.65717080901	831.25
2570.80800749867	826.5
2572.95823495433	837.75
2575.10785346031	835
2577.25686330093	832
2579.40526476038	829.75
2581.55305812282	836.25
2583.70024367237	836.5
2585.84682169303	830.25
2587.99279246879	834.25
2590.13815628354	838.5
2592.28291342112	827.25
2594.42706416531	842
2596.5706087998	838
2598.71354760826	849.75
2600.85588087425	848
2602.99760888127	844.5
2605.13873191278	844.75
2607.27925025214	832.5
2609.41916418269	840.25
2611.55847398764	850
2613.69717995017	845.75
2615.83528235339	849.5
2617.97278148034	860
2620.10967761398	854.75
2622.2459710372	847.5
2624.38166203284	842.75
2626.51675088365	838.75
2628.65123787231	852.5
2630.78512328145	846
2632.9184073936	850.25
2635.05109049124	865
2637.18317285676	852.75
2639.31465477248	854.75
2641.44553652067	863.75
2643.5758183835	857.5
2645.70550064309	868.25
2647.83458358144	868.5
2649.96306748053	870
2652.09095262223	867.25
2654.21823928836	878.25
2656.34492776063	879.75
2658.47101832071	868.5
2660.59651125015	879.5
2662.72140683047	874.25
2664.84570534309	872
2666.96940706934	870.5
2669.0925122905	877
2671.21502128773	879.75
2673.33693434215	868.5
2675.45825173479	872
2677.57897374658	879.25
2679.69910065839	892.75
2681.818632751	880.5
2683.93757030511	882.75
2686.05591360133	886
2688.17366292021	884.75
2690.29081854218	887
2692.40738074762	882.75
2694.52334981681	890.25
2696.63872602995	887.75
2698.75350966713	893
2700.86770100841	898
2702.98130033371	901.25
2705.09430792289	903
2707.20672405571	920.75
2709.31854901185	928
2711.42978307091	922.75
2713.54042651238	947.5
2715.65047961567	959
2717.7599426601	989.75
2719.86881592491	1016
2721.97709968924	1024.25
2724.08479423213	1020
2726.19189983255	1000.75
2728.29841676934	988
2730.4043453213	967
2732.5096857671	948.75
2734.61443838532	939.75
2736.71860345444	947.5
2738.82218125286	922.75
2740.92517205889	925.5
2743.02757615072	926.75
2745.12939380646	918
2747.23062530411	925
2749.33127092159	930.5
2751.4313309367	913.75
2753.53080562716	910.25
2755.62969527058	920.75
2757.72800014448	918.25
2759.82572052625	914
2761.92285669323	901.5
2764.0194089226	909.25
2766.11537749147	898.25
2768.21076267686	906.5
2770.30556475566	906
2772.39978400465	893.25
2774.49342070054	903.75
2776.58647511991	907.5
2778.67894753923	914.75
2780.77083823487	908
2782.8621474831	900.25
2784.95287556007	910.25
2787.04302274184	911.75
2789.13258930433	910
2791.22157552338	908.5
2793.30998167471	929
2795.39780803392	918
2797.4850548765	911
2799.57172247786	917.75
2801.65781111324	919.25
2803.74332105781	928
2805.82825258661	928.5
2807.91260597457	928
2809.9963814965	936
2812.07957942711	942.25
2814.16220004096	947.5
2816.24424361252	947.5
2818.32571041614	962
2820.40660072604	960.25
2822.48691481631	992.5
2824.56665296098	1009.25
2826.64581543388	1027.75
2828.72440250876	1090.25
2830.80241445925	1164.5
2832.87985155885	1291.75
2834.95671408093	1436.5
2837.03300229875	1568.5
2839.10871648544	1639.25
2841.18385691399	1621.5
2843.25842385729	1518.25
2845.33241758808	1388
2847.40583837898	1309.5
2849.4786865025	1222.25
2851.550962231	1176.75
2853.6226658367	1189.75
2855.69379759173	1198.25
2857.76435776806	1255.25
2859.83434663753	1354.5
2861.90376447184	1551.5
2863.97261154259	1763.25
2866.0408881212	1927
2868.10859447901	1995.25
2870.17573088717	1991.75
2872.24229761673	1986.75
2874.30829493859	2009
2876.37372312352	2094.25
2878.43858244215	2223.5
2880.50287316496	2340.75
2882.56659556231	2380
2884.62974990439	2385
2886.69233646129	2285.5
2888.75435550293	2145.75
2890.81580729909	2052
2892.87669211941	1955.25
2894.93701023339	1903
2896.99676191039	1885.75
2899.05594741961	1869.75
2901.1145670301	1915.25
2903.1726210108	1964.25
2905.23010963045	2034.75
2907.28703315768	2030.75
2909.34339186096	1976.5
2911.39918600861	1874.5
2913.45441586879	1815.75
2915.50908170952	1778
2917.56318379867	1760.75
2919.61672240395	1789.5
2921.66969779291	1789.75
2923.72211023295	1766
2925.77395999134	1741.75
2927.82524733515	1675.5
2929.87597253132	1600.5
2931.92613584663	1494.25
2933.97573754769	1430.75
2936.02477790097	1356
2938.07325717276	1315.75
2940.1211756292	1299.5
2942.16853353626	1318.75
2944.21533115976	1379
2946.26156876536	1492.5
2948.30724661853	1645.75
2950.3523649846	1731.25
2952.39692412872	1876.5
2954.44092431587	2005.25
2956.48436581089	2148.25
2958.52724887843	2383.25
2960.56957378296	2536.5
2962.6113407888	2485
2964.65255016011	2325.5
2966.69320216083	2129.75
2968.73329705479	1927.25
2970.77283510559	1747.25
2972.81181657671	1528.75
2974.8502417314	1381.75
2976.88811083279	1269.5
2978.92542414378	1185
2980.96218192713	1123.25
2982.99838444541	1095.5
2985.034031961	1063
2987.06912473612	1038
2989.1036630328	1020.75
2991.13764711288	1013
2993.17107723804	1000
2995.20395366974	990.5
2997.23627666931	972.75
2999.26804649782	970.75
3001.29926341624	959.5
3003.32992768528	956.25
3005.3600395655	971.25
3007.38959931726	948
3009.41860720076	961.5
3011.44706347595	952.5
3013.47496840263	936.5
3015.50232224041	936.5
3017.5291252487	946.5
3019.5553776867	935.5
3021.58107981344	951.25
3023.60623188773	943.5
3025.63083416822	936.5
3027.65488691331	934.5
3029.67839038125	934.25
3031.70134483007	921
3033.72375051759	931.75
3035.74560770144	925.5
3037.76691663907	933.5
3039.78767758768	929
3041.80789080431	926.75
3043.82755654577	919.25
3045.84667506867	926.5
3047.8652466294	924
3049.88327148418	920.75
3051.90074988899	925.25
3053.91768209961	926.25
3055.9340683716	917
3057.94990896033	923.75
3059.96520412095	930.5
3061.97995410838	911.25
3063.99415917734	917.25
3066.00781958234	926.25
3068.02093557766	921
3070.03350741738	917.75
3072.04553535535	917.5
3074.05701964521	912.25
3076.06796054036	911.5
3078.078358294	912.5
3080.08821315912	922.5
3082.09752538846	920.5
3084.10629523454	903.25
3086.11452294967	921.75
3088.12220878592	905.75
3090.12935299515	922.5
3092.13595582898	906.25
3094.1420175388	907.25
3096.14753837579	912.5
3098.15251859088	909.75
3100.15695843477	913.5
3102.16085815793	908.5
3104.16421801061	916
3106.16703824282	915.25
3108.16931910432	914.25
3110.17106084464	906.75
3112.17226371308	913
3114.17292795872	918.75
3116.17305383034	913.75
3118.17264157657	906.5
3120.17169144571	901
3122.17020368587	912.75
3124.16817854492	924.5
3126.16561627044	918.25
3128.16251710982	916.75
3130.15888131017	926.25
3132.15470911837	925.75
3134.15000078104	919.75
3136.14475654455	937
3138.13897665502	925
3140.13266135835	919.5
3142.12581090014	931
3144.11842552577	920.25
3146.11050548036	921.75
3148.10205100875	927.25
3150.09306235557	919.75
3152.08353976515	917.5
3154.07348348158	922.75
3156.06289374869	916.75
3158.05177081006	916.75
3160.04011490899	928.75
3162.02792628852	919.5
3164.01520519145	924.5
3166.00195186029	924.25
3167.98816653728	915.75
3169.97384946442	922.75
3171.95900088344	916.25
3173.94362103577	920.75
3175.92771016259	922.75
3177.91126850484	918
3179.89429630312	924.25
3181.87679379782	904.5
3183.85876122903	914.25
3185.84019883657	919.5
3187.82110685997	923.25
3189.80148553851	916.25
3191.78133511116	915.75
3193.76065581664	934.25
3195.73944789337	925
3197.7177115795	931.5
3199.6954471129	925.5
3201.67265473114	923.25
3203.64933467153	932.75
3205.62548717107	925.75
3207.60111246648	933.25
3209.57621079421	919
3211.55078239041	926.5
3213.52482749093	929.25
3215.49834633133	932
3217.4713391469	930.5
3219.44380617262	928.75
3221.41574764317	925.25
3223.38716379296	929.25
3225.35805485607	918.75
3227.32842106631	923.25
3229.29826265718	921.75
3231.26757986187	914
3233.2363729133	920.75
3235.20464204405	906
3237.17238748643	915.25
3239.13960947243	918.5
3241.10630823374	923.25
3243.07248400174	912.75
3245.03813700748	921
3247.00326748177	920.75
3248.96787565503	920.25
3250.93196175742	920.25
3252.89552601877	917
3254.8585686686	917.75
3256.82108993612	924.75
3258.78309005022	916.25
3260.74456923948	935
3262.70552773215	931
3264.66596575617	922.5
3266.62588353916	921.5
3268.58528130843	920
3270.54415929094	915.25
3272.50251771336	920
3274.46035680201	911
3276.4176767829	914.25
3278.37447788171	919.5
3280.33076032379	918.5
3282.28652433416	907.25
3284.24177013751	915.25
3286.1964979582	911
3288.15070802027	921
3290.10440054741	915.75
3292.05757576298	902
3294.01023389001	914.5
3295.96237515119	927.5
3297.91399976887	930.25
3299.86510796506	907.75
3301.81569996142	912.5
3303.76577597932	917.25
3305.7153362397	914.75
3307.66438096324	913.75
3309.61291037024	914.25
3311.56092468064	926
3313.50842411404	912.75
3315.45540888971	911.75
3317.40187922656	910.5
3319.34783534315	912.25
3321.29327745768	912.25
3323.23820578801	909.75
3325.18262055164	912.75
3327.1265219657	911.25
3329.06991024699	909.5
3331.01278561194	913.25
3332.95514827662	910
3334.89699845674	916
3336.83833636766	909.25
3338.77916222434	910
3340.71947624143	915.5
3342.65927863317	913.75
3344.59856961346	922
3346.53734939584	914.5
3348.47561819344	918.25
3350.41337621906	909.5
3352.35062368513	911
3354.28736080368	903.75
3356.22358778637	905.25
3358.15930484452	912.25
3360.09451218904	905.5
3362.02921003047	915
3363.96339857898	912.25
3365.89707804436	905.25
3367.83024863602	902.5
3369.76291056299	915.75
3371.69506403389	921.5
3373.62670925699	904.5
3375.55784644016	898.5
3377.4884757909	895.75
3379.41859751629	912
3381.34821182305	894.5
3383.27731891749	903.25
3385.20591900555	914.5
3387.13401229276	900
3389.06159898426	905.75
3390.9886792848	906
3392.91525339872	916.25
3394.84132152998	910.5
3396.76688388213	913
3398.69194065833	906.75
3400.61649206133	916.75
3402.54053829348	913
3404.46407955672	904.75
3406.3871160526	913.25
3408.30964798225	908
3410.23167554639	913.5
3412.15319894535	915.5
3414.07421837904	902.25
3415.99473404695	907.5
3417.91474614817	913.5
3419.83425488136	911.75
3421.75326044479	915
3423.67176303631	896.5
3425.58976285332	909.25
3427.50726009282	905.5
3429.42425495143	904
3431.34074762528	918.75
3433.25673831012	897.25
3435.17222720127	909.25
3437.08721449362	897.5
3439.00170038164	897.75
3440.91568505936	904.5
3442.82916872039	908.25
3444.74215155791	908.25
3446.65463376468	898
3448.566615533	903.75
3450.47809705476	897.5
3452.3890785214	893.75
3454.29956012393	895.25
3456.20954205293	908.25
3458.11902449853	895
3460.02800765041	901.75
3461.93649169784	909.25
3463.84447682962	897.5
3465.75196323412	901.5
3467.65895109925	891.25
3469.56544061249	894.5
3471.47143196086	890.5
3473.37692533093	890.5
3475.28192090884	900.75
3477.18641888026	889
3479.09041943039	904.25
3480.99392274402	896
3482.89692900545	894.75
3484.79943839853	886.5
3486.70145110666	900.5
3488.60296731277	893
3490.50398719933	892
3492.40451094836	891.75
3494.30453874141	889.75
3496.20407075956	896
3498.10310718342	895.25
3500.00164819315	890.5