201.866871357051	983.25
204.754250281454	980.5
207.640596790938	969.5
210.525911876299	975.5
213.410196525689	975.5
216.293451724508	980.25
219.175678455485	975.5
222.056877698662	989.25
224.937050431388	985.5
227.816197628363	959.75
230.694320261602	972.75
233.571419300504	987.25
236.447495711764	979
239.322550459507	983.5
242.196584505182	995
245.069598807626	998.25
247.941594323078	994.75
250.812572005154	992.5
253.682532804884	999.75
256.551477670699	995.25
259.419407548456	996.75
262.286323381439	1004
265.152226110364	1003.5
268.017116673389	1001.25
270.880996006115	1003
273.743865041622	1004.5
276.605724710436	1002.75
279.466575940562	1014.75
282.326419657496	1018.5
285.1852567842	1016.5
288.043088241157	1027
290.899914946349	1023.75
293.75573781526	1023.75
296.610557760898	1025.75
299.464375693817	1027
302.317192522078	1028.75
305.169009151297	1038.25
308.019826484655	1022.25
310.86964542287	1030.25
313.718466864233	1021
316.566291704614	1026.75
319.413120837457	1034.25
322.258955153804	1037
325.103795542291	1032.25
327.947642889128	1035.25
330.79049807819	1042.75
333.632361990927	1026.75
336.473235506444	1049
339.31311950145	1052
342.152014850322	1032.75
344.989922425062	1031.25
347.826843095354	1058.5
350.662777728528	1052
353.497727189577	1042
356.331692341195	1049.25
359.164674043732	1063.25
361.996673155267	1066.5
364.827690531536	1075
367.65772702602	1071.75
370.486783489887	1068.75
373.314860772047	1083.5
376.14195971912	1087.5
378.968081175466	1079.75
381.793225983212	1086.25
384.617394982201	1114.5
387.44058901005	1135.5
390.262808902131	1115.5
393.08405549161	1155.75
395.904329609395	1166.25
398.723632084213	1153.75
401.541963742569	1128
404.359325408779	1126.25
407.175717904938	1110.75
409.991142050982	1101
412.805598664665	1111
415.619088561551	1097.75
418.43161255505	1087
421.243171456415	1077.5
424.053766074758	1082.75
426.863397217017	1098.75
429.672065688024	1087.5
432.479772290455	1080.25
435.286517824879	1073.25
438.092303089736	1090.25
440.897128881359	1097.5
443.70099599399	1100.25
446.503905219761	1102.5
449.305857348711	1112.5
452.106853168796	1091.5
454.906893465919	1099.25
457.705979023885	1083.25
460.504110624439	1107.75
463.3012890473	1080.75
466.097515070087	1095.5
468.892789468424	1086.75
471.687113015869	1103.25
474.48048648395	1108.25
477.272910642198	1098.75
480.064386258109	1087.5
482.854914097159	1095.75
485.644494922839	1116.5
488.433129496636	1114.5
491.220818578047	1125
494.007562924584	1107.75
496.793363291785	1122
499.578220433217	1143.25
502.362135100473	1163.5
505.145108043209	1164.5
507.927140009098	1180.75
510.708231743909	1199
513.488383991433	1207.5
516.267597493556	1184.75
519.04587299022	1216.75
521.82321121946	1184.75
524.599612917398	1186
527.375078818233	1191.5
530.149609654287	1171.75
532.923206155967	1158
535.695869051804	1142.75
538.467599068448	1139
541.238396930665	1149.75
544.008263361364	1143.25
546.777199081578	1147
549.545204810493	1137
552.312281265436	1141.75
555.078429161898	1139.75
557.843649213533	1135.75
560.607942132156	1142
563.371308627753	1138.75
566.133749408495	1143.5
568.895265180756	1156.25
571.655856649064	1145
574.415524516189	1158.75
577.174269483075	1165.5
579.932092248884	1159.75
582.688993510994	1161.25
585.444973965023	1167
588.200034304795	1172.25
590.95417522237	1173.25
593.70739740807	1166.25
596.459701550433	1170.25
599.21108833628	1180
601.961558450668	1176
604.711112576933	1176.75
607.459751396673	1169.5
610.207475589748	1198.25
612.954285834338	1212.75
615.700182806879	1209.75
618.445167182101	1220
621.189239633055	1238.5
623.932400831087	1268.75
626.674651445839	1293.75
629.415992145303	1322.75
632.156423595745	1360.75
634.895946461813	1387
637.634561406449	1406.75
640.37226909096	1393.75
643.109070174978	1376.25
645.844965316508	1322.5
648.579955171888	1291.75
651.314040395846	1275
654.047221641456	1241.25
656.779499560176	1250.5
659.510874801828	1231.25
662.241348014642	1217.75
664.97091984524	1218.5
667.699590938606	1213
670.427361938164	1206.75
673.15423348573	1187.5
675.880206221526	1185.5
678.605280784206	1195
681.329457810829	1196
684.05273793692	1204.5
686.775121796389	1193.5
689.49661002163	1193
692.217203243454	1208
694.936902091144	1186.5
697.655707192425	1173.75
700.373619173493	1188.75
703.09063865901	1172
705.806766272093	1173.75
708.522002634378	1193.25
711.236348365946	1189.25
713.94980408538	1179.25
716.662370409762	1188
719.374047954676	1179.5
722.08483733419	1176.25
724.794739160909	1181.5
727.503754045949	1181.5
730.21188259892	1179.25
732.919125427998	1180.25
735.625483139855	1187.5
738.330956339723	1193
741.035545631374	1199
743.739251617106	1191.75
746.44207489779	1206.25
749.144016072852	1194.5
751.845075740272	1187.25
754.545254496603	1185
757.244552936976	1205.75
759.94297165508	1210.25
762.640511243222	1197
765.337172292249	1213.25
768.032955391649	1198.25
770.727861129482	1204.25
773.421890092413	1194.25
776.11504286572	1203.75
778.807320033298	1201
781.49872217765	1196
784.18924987991	1199.75
786.87890371984	1184.75
789.567684275826	1204
792.255592124908	1203.75
794.94262784276	1187.5
797.628792003703	1192.75
800.314085180715	1193.25
802.998507945427	1189
805.682060868145	1195
808.364744517821	1201.5
811.046559462105	1193.75
813.727506267311	1230
816.407585498422	1201.75
819.08679771913	1215.25
821.765143491822	1205.5
824.442623377563	1198
827.119237936127	1205
829.794987726003	1219.5
832.469873304377	1219.25
835.143895227167	1191.75
837.817054048985	1209.5
840.489350323205	1213.75
843.160784601892	1222.5
845.831357435894	1226
848.501069374739	1216.25
851.169920966753	1210
853.837912758987	1212.75
856.505045297232	1218.75
859.171319126071	1231.75
861.836734788823	1232
864.501292827579	1244
867.164993783208	1238.5
869.827838195361	1231
872.489826602454	1222
875.150959541701	1220
877.811237549104	1209
880.470661159456	1218
883.129230906357	1227.5
885.786947322205	1228.25
888.443810938206	1231.75
891.099822284385	1234.25
893.754981889586	1229.75
896.409290281452	1228
899.062747986485	1234.25
901.715355529999	1234.25
904.367113436154	1233.75
907.01802222793	1233.75
909.668082427172	1237.75
912.317294554574	1243.25
914.965659129659	1251.5
917.613176670835	1248.25
920.259847695364	1242
922.90567271936	1242
925.550652257825	1226
928.194786824621	1242.25
930.838076932512	1227.5
933.480523093109	1247.75
936.122125816953	1233.25
938.762885613447	1252
941.402802990899	1248.5
944.041878456523	1263.25
946.680112516428	1259
949.31750567563	1246.25
951.954058438081	1269
954.589771306633	1241.25
957.224644783048	1268.5
959.858679368044	1258
962.491875561238	1250.25
965.12423386121	1232.5
967.75575476545	1254.75
970.386438770423	1256
973.016286371501	1266
975.645298063046	1260.25
978.273474338355	1249.25
980.900815689674	1251.75
983.527322608243	1265.5
986.152995584245	1249.25
988.777835106834	1252.25
991.401841664148	1273.75
994.025015743307	1283.25
996.647357830407	1248.25
999.268868410534	1290.5
1001.88954796777	1274
1004.50939698518	1276.25
1007.12841594484	1277.75
1009.74660532783	1259.5
1012.36396561423	1292.75
1014.98049728314	1276.75
1017.59620081267	1278.75
1020.21107667995	1277.75
1022.82512536112	1288.75
1025.43834733138	1277.75
1028.05074306493	1289.75
1030.66231303501	1291.25
1033.27305771392	1272
1035.88297757299	1294.5
1038.49207308257	1292.25
1041.10034471211	1300.5
1043.70779293008	1297
1046.31441820402	1289
1048.92022100052	1308
1051.52520178525	1320.5
1054.12936102295	1343.75
1056.73269917742	1356
1059.33521671154	1369.5
1061.93691408729	1384.75
1064.53779176571	1380.5
1067.13785020694	1361
1069.73708987022	1335.5
1072.33551121386	1364.25
1074.93311469528	1300.75
1077.52990077103	1311.5
1080.12586989674	1304.5
1082.72102252714	1320.25
1085.31535911611	1330
1087.90888011663	1311.75
1090.50158598078	1327.5
1093.09347715979	1308.75
1095.68455410403	1318.75
1098.27481726296	1314.25
1100.86426708523	1307
1103.45290401857	1323.5
1106.04072850991	1317
1108.6277410053	1324.25
1111.21394194993	1323.75
1113.79933178816	1357
1116.3839109635	1335.5
1118.96767991862	1351.75
1121.55063909539	1380.5
1124.13278893477	1400.5
1126.71412987696	1447.5
1129.29466236132	1447
1131.87438682637	1419.75
1134.45330370982	1385
1137.03141344858	1378.75
1139.60871647872	1344.75
1142.18521323554	1326.75
1144.7609041535	1336.5
1147.33578966629	1355.25
1149.90987020676	1346
1152.48314620702	1339.75
1155.05561809835	1348
1157.62728631125	1361.75
1160.19815127545	1344.25
1162.76821341988	1361
1165.33747317271	1346.75
1167.90593096133	1353.75
1170.47358721235	1349.75
1173.04044235163	1361.25
1175.60649680425	1350.75
1178.17175099454	1366.5
1180.73620534607	1353.25
1183.29986028165	1360
1185.86271622336	1338.75
1188.42477359249	1349.75
1190.98603280964	1342.75
1193.54649429462	1347
1196.10615846653	1361.25
1198.66502574372	1333.5
1201.22309654385	1355
1203.78037128378	1344
1206.33685037971	1352
1208.89253424709	1339.25
1211.44742330063	1349.75
1214.00151795438	1348.75
1216.55481862163	1361.75
1219.10732571497	1356.25
1221.65903964631	1355.75
1224.20996082683	1370.25
1226.760089667	1354.5
1229.30942657664	1354.5
1231.85797196483	1365.25
1234.40572623998	1361
1236.95268980981	1375.5
1239.49886308136	1373.25
1242.04424646098	1354.5
1244.58884035435	1380.25
1247.13264516647	1369.5
1249.67566130166	1395.25
1252.21788916358	1372.5
1254.75932915524	1402.25
1257.29998167896	1400.75
1259.83984713639	1377.5
1262.37892592857	1394.25
1264.91721845586	1408
1267.45472511795	1400
1269.9914463139	1422
1272.52738244213	1410
1275.0625339004	1415.75
1277.59690108587	1415.75
1280.130484395	1409.75
1282.66328422367	1421
1285.19530096712	1433
1287.72653501993	1454.25
1290.25698677608	1500.75
1292.78665662894	1546
1295.31554497125	1566.25
1297.8436521951	1531.25
1300.37097869203	1481.25
1302.89752485292	1470.25
1305.42329106805	1456.25
1307.94827772713	1464.25
1310.47248521921	1438.5
1312.99591393279	1440.75
1315.51856425575	1459
1318.04043657536	1440.75
1320.56153127836	1450.5
1323.08184875083	1462.25
1325.6013893783	1457.5
1328.12015354572	1447.5
1330.63814163744	1462.75
1333.15535403727	1447.75
1335.67179112839	1490.75
1338.18745329347	1458
1340.70234091454	1472.5
1343.21645437314	1490
1345.72979405019	1490
1348.24236032607	1497.75
1350.75415358059	1502.75
1353.26517419303	1508.25
1355.7754225421	1481
1358.28489900594	1522
1360.79360396218	1521.5
1363.30153778787	1519.25
1365.80870085955	1505.5
1368.31509355319	1545.25
1370.82071624424	1538
1373.32556930762	1522.5
1375.8296531177	1523.75
1378.33296804832	1521.25
1380.83551447282	1500.25
1383.33729276399	1520.25
1385.83830329408	1524.5
1388.33854643489	1514.75
1390.83802255762	1533
1393.33673203301	1532.25
1395.83467523128	1531.5
1398.33185252211	1532.25
1400.82826427471	1512.5
1403.32391085777	1552.75
1405.81879263947	1529.75
1408.31290998752	1561
1410.80626326908	1566.25
1413.29885285087	1593.25
1415.79067909909	1621.5
1418.28174237944	1623.5
1420.77204305717	1596.25
1423.26158149702	1595
1425.75035806323	1599.5
1428.2383731196	1615.25
1430.72562702942	1609.75
1433.21212015554	1646.5
1435.69785286028	1647.25
1438.18282550555	1686.5
1440.66703845275	1694.5
1443.15049206284	1667.25
1445.6331866963	1685.25
1448.11512271316	1700.75
1450.59630047298	1683.5
1453.07672033486	1680.75
1455.55638265748	1696
1458.03528779902	1705.25
1460.51343611725	1700
1462.99082796946	1717
1465.46746371252	1725.5
1467.94334370285	1708.25
1470.41846829642	1707.5
1472.89283784878	1712.5
1475.36645271503	1729.5
1477.83931324983	1708.25
1480.31141980743	1711.5
1482.78277274164	1710.5
1485.25337240583	1705.5
1487.72321915297	1729.5
1490.19231333557	1744.5
1492.66065530578	1706.5
1495.12824541525	1725
1497.5950840153	1729
1500.06117145678	1743.5
1502.52650809014	1743.75
1504.99109426543	1759.75
1507.45493033227	1752.5
1509.91801663992	1741.75
1512.38035353717	1775.25
1514.84194137248	1764.5
1517.30278049386	1787.75
1519.76287124894	1791.25
1522.22221398497	1819.75
1524.68080904876	1802.75
1527.13865678681	1795
1529.59575754514	1831.5
1532.05211166945	1843.75
1534.50771950503	1859.25
1536.96258139678	1856.75
1539.41669768924	1865
1541.87006872656	1864
1544.32269485252	1911.25
1546.77457641051	1891.5
1549.22571374357	1903
1551.67610719434	1920.75
1554.12575710513	1938.5
1556.57466381785	1953.5
1559.02282767408	1964
1561.47024901499	1980
1563.91692818144	1969.75
1566.3628655139	2002.5
1568.80806135249	2007.5
1571.252516037	2021.75
1573.6962299068	2027
1576.13920330099	2051
1578.58143655828	2058.25
1581.02293001704	2060.5
1583.46368401528	2052.75
1585.90369889071	2082.5
1588.34297498065	2103
1590.7815126221	2113
1593.21931215173	2093
1595.65637390588	2122.75
1598.09269822053	2113.25
1600.52828543135	2144.75
1602.96313587367	2134.5
1605.3972498825	2139.75
1607.83062779252	2124
1610.26326993808	2124.25
1612.69517665322	2159.75
1615.12634827165	2156
1617.55678512676	2148.75
1619.98648755163	2139.75
1622.41545587902	2166
1624.84369044138	2167.5
1627.27119157085	2195
1629.69795959924	2176
1632.12399485808	2203.25
1634.54929767859	2185.25
1636.97386839165	2214
1639.39770732789	2216
1641.8208148176	2227.75
1644.24319119078	2221.75
1646.66483677715	2237.25
1649.0857519061	2254.25
1651.50593690677	2272.5
1653.92539210795	2266.25
1656.3441178382	2272.75
1658.76211442575	2286.75
1661.17938219855	2320.75
1663.59592148428	2323.75
1666.01173261032	2312
1668.42681590377	2333.5
1670.84117169145	2355
1673.25480029991	2334.75
1675.66770205541	2347
1678.07987728393	2353.5
1680.49132631119	2386.25
1682.90204946263	2353.75
1685.31204706342	2376.75
1687.72131943846	2408.25
1690.1298669124	2410
1692.53768980957	2446.25
1694.94478845411	2422
1697.35116316982	2421.75
1699.75681428031	2445.75
1702.16174210887	2427.25
1704.56594697858	2440.5
1706.96942921222	2468.5
1709.37218913235	2474.75
1711.77422706125	2496
1714.17554332098	2470.5
1716.5761382333	2456
1718.97601211977	2454.75
1721.37516530169	2474.5
1723.77359810006	2472.5
1726.17131083572	2471.5
1728.56830382922	2432.25
1730.96457740087	2499.75
1733.36013187075	2451.5
1735.75496755868	2480.75
1738.14908478428	2516.75
1740.54248386689	2462
1742.93516512565	2473
1745.32712887946	2470
1747.71837544697	2502
1750.10890514662	2498.25
1752.49871829661	2487.25
1754.88781521492	2494
1757.27619621929	2508.5
1759.66386162726	2498.25
1762.05081175612	2531.25
1764.43704692297	2514.5
1766.82256744465	2519
1769.20737363782	2543.75
1771.59146581887	2524.5
1773.97484430405	2583
1776.35750940932	2574.5
1778.73946145048	2575
1781.12070074309	2573.75
1783.50122760249	2580.25
1785.88104234385	2600
1788.26014528209	2588.25
1790.63853673196	2602.25
1793.01621700796	2635.5
1795.39318642443	2646.75
1797.76944529549	2634.75
1800.14499393503	2637
1802.51983265681	2634.5
1804.8939617743	2662.5
1807.26738160085	2661.25
1809.64009244957	2657.25
1812.01209463339	2686.75
1814.38338846504	2703
1816.75397425706	2671.5
1819.12385232181	2672.75
1821.49302297142	2697.25
1823.86148651789	2708
1826.22924327299	2700.25
1828.59629354831	2698.5
1830.96263765526	2718.25
1833.32827590507	2688.25
1835.69320860877	2711.75
1838.05743607724	2707.25
1840.42095862113	2683.25
1842.78377655097	2726
1845.14589017707	2747.25
1847.50729980956	2716.75
1849.86800575843	2774
1852.22800833346	2727.75
1854.58730784427	2746.25
1856.94590460032	2761
1859.30379891087	2751.25
1861.66099108503	2771.75
1864.01748143175	2763
1866.37327025978	2790.75
1868.72835787773	2770
1871.08274459403	2793.5
1873.43643071697	2793.25
1875.78941655464	2822.25
1878.14170241498	2831.5
1880.4932886058	2807.75
1882.84417543469	2851.5
1885.19436320915	2841
1887.54385223646	2856.75
1889.89264282378	2872.5
1892.24073527809	2916
1894.58812990625	2879.5
1896.93482701493	2908.75
1899.28082691067	2905.75
1901.62612989984	2924
1903.97073628868	2922
1906.31464638326	2929.25
1908.6578604895	2972.75
1911.00037891321	2985
1913.34220196	2980.5
1915.68332993537	2987.5
1918.02376314468	3022.75
1920.36350189311	2952.5
1922.70254648573	2991
1925.04089722744	3017.5
1927.37855442303	3034.5
1929.71551837715	3032
1932.05178939426	3004.25
1934.38736777876	3022
1936.72225383484	3022.75
1939.0564478666	3022
1941.38995017799	3052.5
1943.72276107283	3049
1946.05488085479	3016.5
1948.38630982744	3010.75
1950.71704829419	3068.75
1953.04709655832	3026.5
1955.376454923	3005
1957.70512369126	3029
1960.03310316599	3074.75
1962.36039364999	3050.25
1964.68699544589	3054.25
1967.01290885622	3062
1969.33813418338	3076.75
1971.66267172965	3073.25
1973.98652179718	3064
1976.309684688	3074.25
1978.63216070402	3085.75
1980.95395014705	3117.75
1983.27505331873	3074
1985.59547052063	3130.75
1987.9152020542	3120
1990.23424822074	3132.5
1992.55260932146	3128.75
1994.87028565746	3163
1997.18727752968	3143
1999.503585239	3179.25
2001.81920908618	3179
2004.13414937184	3184.75
2006.44840639651	3214.5
2008.7619804606	3246.75
2011.07487186442	3248.25
2013.38708090815	3280
2015.6986078919	3296.5
2018.00945311564	3247.75
2020.31961687923	3275
2022.62909948246	3335.75
2024.93790122498	3316.75
2027.24602240636	3357.25
2029.55346332604	3328.25
2031.86022428337	3354
2034.16630557761	3353.25
2036.47170750791	3378.75
2038.77643037331	3360.25
2041.08047447275	3398.75
2043.38384010509	3363.75
2045.68652756907	3415.25
2047.98853716335	3409
2050.28986918648	3401.75
2052.59052393692	3452.25
2054.89050171302	3440.25
2057.18980281306	3455.75
2059.4884275352	3497
2061.78637617753	3458.25
2064.08364903802	3468.75
2066.38024641457	3467.75
2068.67616860497	3463
2070.97141590694	3501.5
2073.26598861809	3477
2075.55988703595	3455.5
2077.85311145796	3511
2080.14566218145	3481.75
2082.43753950371	3521.5
2084.72874372188	3531
2087.01927513307	3542
2089.30913403428	3553.25
2091.59832072241	3532.75
2093.88683549429	3537.5
2096.17467864666	3567
2098.46185047619	3604.5
2100.74835127944	3598.75
2103.03418135292	3591.5
2105.31934099303	3556.5
2107.6038304961	3585
2109.88765015838	3604
2112.17080027602	3622.5
2114.45328114513	3673.5
2116.7350930617	3636.5
2119.01623632165	3662.25
2121.29671122085	3708.5
2123.57651805505	3669.75
2125.85565711996	3698.25
2128.13412871117	3695.25
2130.41193312424	3682.25
2132.68907065462	3717.5
2134.96554159771	3750.75
2137.24134624881	3755
2139.51648490317	3744.25
2141.79095785593	3763.5
2144.0647654022	3753
2146.33790783698	3763
2148.61038545524	3767.5
2150.88219855182	3788
2153.15334742154	3843
2155.42383235911	3833.75
2157.6936536592	3801.25
2159.9628116164	3816.5
2162.23130652522	3812
2164.49913868011	3846.75
2166.76630837544	3849.25
2169.03281590552	3843.5
2171.2986615646	3845
2173.56384564685	3839.25
2175.82836844637	3869
2178.0922302572	3866.25
2180.35543137332	3856
2182.61797208862	3849.75
2184.87985269695	3816.5
2187.14107349208	3822
2189.40163476773	3848.75
2191.66153681753	3848.5
2193.92077993507	3840.25
2196.17936441386	3870.75
2198.43729054735	3825.75
2200.69455862894	3822.75
2202.95116895194	3851.25
2205.20712180962	3855.75
2207.46241749519	3798.25
2209.71705630179	3851
2211.97103852248	3838.25
2214.2243644503	3808.25
2216.47703437819	3800.75
2218.72904859905	3782.5
2220.98040740571	3811.75
2223.23111109095	3826.75
2225.4811599475	3784.75
2227.73055426799	3813
2229.97929434504	3815.5
2232.22738047118	3781
2234.47481293889	3832.25
2236.72159204058	3811
2238.96771806864	3807.25
2241.21319131536	3783.75
2243.458012073	3769.25
2245.70218063374	3786
2247.94569728973	3792.25
2250.18856233304	3786.25
2252.4307760557	3749.25
2254.67233874967	3791.75
2256.91325070687	3743.25
2259.15351221915	3778.25
2261.39312357831	3745.25
2263.63208507611	3723.75
2265.87039700422	3760.5
2268.1080596543	3739.75
2270.34507331792	3760
2272.5814382866	3760.75
2274.81715485183	3749
2277.05222330502	3738.25
2279.28664393755	3743.25
2281.52041704072	3725.75
2283.75354290581	3724
2285.98602182401	3715
2288.21785408648	3703.5
2290.44903998434	3723.25
2292.67957980862	3681.75
2294.90947385033	3696
2297.1387224004	3678.5
2299.36732574975	3669
2301.59528418921	3653.5
2303.82259800958	3633.25
2306.04926750158	3661
2308.27529295593	3646.5
2310.50067466325	3636.5
2312.72541291412	3652.5
2314.9495079991	3605
2317.17296020866	3625
2319.39576983323	3625.75
2321.61793716322	3625.25
2323.83946248894	3624
2326.06034610069	3637.75
2328.28058828871	3611.5
2330.50018934317	3635.75
2332.7191495542	3579
2334.93746921192	3564.25
2337.15514860633	3542.25
2339.37218802743	3559.25
2341.58858776516	3559.25
2343.80434810941	3560
2346.01946935001	3566.25
2348.23395177675	3526.75
2350.44779567939	3512
2352.66100134759	3516.25
2354.87356907101	3502.5
2357.08549913925	3518.5
2359.29679184185	3494.75
2361.50744746829	3518.75
2363.71746630804	3465.75
2365.92684865048	3488.5
2368.13559478499	3473.25
2370.34370500083	3479.75
2372.55117958727	3490
2374.75801883352	3465.25
2376.96422302874	3449.75
2379.16979246202	3422.25
2381.37472742243	3444.25
2383.57902819898	3448
2385.78269508063	3421.25
2387.98572835629	3394.5
2390.18812831482	3391.25
2392.38989524505	3385.25
2394.59102943573	3394.75
2396.79153117559	3387.75
2398.9914007533	3347.5
2401.19063845748	3357.5
2403.38924457672	3368
2405.58721939951	3321.5
2407.78456321435	3336
2409.98127630966	3339
2412.17735897382	3338.5
2414.37281149517	3320.5
2416.56763416198	3298.5
2418.76182726249	3346.5
2420.95539108487	3324.25
2423.14832591726	3298.5
2425.34063204776	3314
2427.53230976439	3306.75
2429.72335935513	3322.75
2431.91378110795	3266.25
2434.10357531071	3257.5
2436.29274225125	3258.5
2438.48128221739	3236
2440.66919549683	3250
2442.8564823773	3253
2445.04314314641	3265
2447.22917809176	3260
2449.4145875009	3221
2451.59937166131	3251.75
2453.78353086044	3239.75
2455.96706538568	3228.25
2458.14997552436	3185.75
2460.33226156379	3173.25
2462.51392379119	3176.75
2464.69496249376	3135
2466.87537795862	3140.5
2469.05517047288	3144.75
2471.23434032357	3179.5
2473.41288779767	3152
2475.59081318211	3150.25
2477.76811676378	3150.75
2479.9447988295	3112.5
2482.12085966605	3091.75
2484.29629956016	3138.5
2486.4711187985	3122.25
2488.64531766769	3107.25
2490.8188964543	3102.75
2492.99185544484	3094.75
2495.16419492579	3101.75
2497.33591518353	3121
2499.50701650444	3070.5
2501.67749917482	3099.25
2503.84736348091	3055
2506.01660970891	3066.25
2508.18523814496	3044.5
2510.35324907514	3069.75
2512.52064278551	3088.75
2514.68741956201	3083
2516.85357969058	3111.5
2519.01912345709	3063.25
2521.18405114735	3048.5
2523.34836304711	3031.5
2525.51205944208	3038.5
2527.6751406179	3067.25
2529.83760686016	3050.75
2531.99945845439	3046.5
2534.16069568606	3037.5
2536.3213188406	3063
2538.48132820336	3016
2540.64072405965	3025.25
2542.79950669471	3021.25
2544.95767639373	3023
2547.11523344184	3033.5
2549.27217812411	2989.25
2551.42851072555	2993
2553.58423153111	2984
2555.73934082569	2982.5
2557.89383889412	2998.25
2560.04772602118	2959
2562.20100249158	2930.5
2564.35366858996	2971.5
2566.50572460093	2967.5
2568.65717080901	2959.75
2570.80800749867	2958.25
2572.95823495433	2950.5
2575.10785346031	2944.75
2577.25686330093	2895.75
2579.40526476038	2894.25
2581.55305812282	2899
2583.70024367237	2891.25
2585.84682169303	2888.5
2587.99279246879	2862
2590.13815628354	2884.5
2592.28291342112	2905.5
2594.42706416531	2869.25
2596.5706087998	2856.5
2598.71354760826	2868.5
2600.85588087425	2852.25
2602.99760888127	2854.25
2605.13873191278	2851.5
2607.27925025214	2824.75
2609.41916418269	2839.5
2611.55847398764	2842.25
2613.69717995017	2824.25
2615.83528235339	2846
2617.97278148034	2849.75
2620.10967761398	2856
2622.2459710372	2845.5
2624.38166203284	2841.75
2626.51675088365	2825.25
2628.65123787231	2812
2630.78512328145	2835.75
2632.9184073936	2821
2635.05109049124	2803.5
2637.18317285676	2848.75
2639.31465477248	2802.75
2641.44553652067	2792.75
2643.5758183835	2786.75
2645.70550064309	2815
2647.83458358144	2825
2649.96306748053	2811
2652.09095262223	2812.25
2654.21823928836	2801
2656.34492776063	2783.5
2658.47101832071	2812.5
2660.59651125015	2806.5
2662.72140683047	2793.5
2664.84570534309	2792
2666.96940706934	2797.5
2669.0925122905	2778
2671.21502128773	2790.5
2673.33693434215	2786.75
2675.45825173479	2800.25
2677.57897374658	2769.25
2679.69910065839	2789.5
2681.818632751	2763
2683.93757030511	2732.25
2686.05591360133	2776.75
2688.17366292021	2745.25
2690.29081854218	2782.5
2692.40738074762	2752.25
2694.52334981681	2777.75
2696.63872602995	2786
2698.75350966713	2761.5
2700.86770100841	2785.75
2702.98130033371	2760
2705.09430792289	2753.5
2707.20672405571	2750.75
2709.31854901185	2789.5
2711.42978307091	2767.75
2713.54042651238	2798
2715.65047961567	2779.25
2717.7599426601	2775.75
2719.86881592491	2760.75
2721.97709968924	2759.25
2724.08479423213	2774.5
2726.19189983255	2766.75
2728.29841676934	2737
2730.4043453213	2757.5
2732.5096857671	2786
2734.61443838532	2743.75
2736.71860345444	2770.75
2738.82218125286	2726.5
2740.92517205889	2755.25
2743.02757615072	2714.25
2745.12939380646	2733.5
2747.23062530411	2734
2749.33127092159	2739.25
2751.4313309367	2708.75
2753.53080562716	2771.25
2755.62969527058	2742.25
2757.72800014448	2731.75
2759.82572052625	2771.25
2761.92285669323	2729.25
2764.0194089226	2754.5
2766.11537749147	2743
2768.21076267686	2749
2770.30556475566	2747.25
2772.39978400465	2763.25
2774.49342070054	2733
2776.58647511991	2776
2778.67894753923	2751
2780.77083823487	2774.75
2782.8621474831	2720.5
2784.95287556007	2729.25
2787.04302274184	2753.5
2789.13258930433	2738.5
2791.22157552338	2701.5
2793.30998167471	2736
2795.39780803392	2755.5
2797.4850548765	2725.25
2799.57172247786	2716
2801.65781111324	2716.5
2803.74332105781	2723.25
2805.82825258661	2753.25
2807.91260597457	2764.75
2809.9963814965	2745
2812.07957942711	2770.25
2814.16220004096	2701.75
2816.24424361252	2749
2818.32571041614	2749.25
2820.40660072604	2741.75
2822.48691481631	2764
2824.56665296098	2744.5
2826.64581543388	2779.25
2828.72440250876	2829
2830.80241445925	2810
2832.87985155885	2854
2834.95671408093	2911.25
2837.03300229875	2952.75
2839.10871648544	3050.5
2841.18385691399	3191
2843.25842385729	3282.75
2845.33241758808	3373.75
2847.40583837898	3396
2849.4786865025	3400.25
2851.550962231	3348
2853.6226658367	3281.75
2855.69379759173	3256.25
2857.76435776806	3198.5
2859.83434663753	3160.25
2861.90376447184	3127.75
2863.97261154259	3120
2866.0408881212	3117
2868.10859447901	3076.25
2870.17573088717	3131.75
2872.24229761673	3166.25
2874.30829493859	3166.5
2876.37372312352	3243
2878.43858244215	3419.5
2880.50287316496	3532.5
2882.56659556231	3563.75
2884.62974990439	3413.5
2886.69233646129	3312.5
2888.75435550293	3266.5
2890.81580729909	3250.25
2892.87669211941	3211.5
2894.93701023339	3207.75
2896.99676191039	3197.75
2899.05594741961	3196.5
2901.1145670301	3162.5
2903.1726210108	3134.25
2905.23010963045	3150.5
2907.28703315768	3113.25
2909.34339186096	3123
2911.39918600861	3066.75
2913.45441586879	3049.75
2915.50908170952	3027.5
2917.56318379867	3075.75
2919.61672240395	3080
2921.66969779291	3054.75
2923.72211023295	3056.5
2925.77395999134	3061
2927.82524733515	3077.75
2929.87597253132	3038.5
2931.92613584663	3056.5
2933.97573754769	3049.75
2936.02477790097	2976.5
2938.07325717276	2998.5
2940.1211756292	2945.5
2942.16853353626	2927.75
2944.21533115976	2940.5
2946.26156876536	2900.75
2948.30724661853	2891.5
2950.3523649846	2873.5
2952.39692412872	2870.75
2954.44092431587	2887.75
2956.48436581089	2884.5
2958.52724887843	2893
2960.56957378296	2853
2962.6113407888	2867.5
2964.65255016011	2868.25
2966.69320216083	2880.5
2968.73329705479	2886.25
2970.77283510559	2873.25
2972.81181657671	2876.75
2974.8502417314	2889.75
2976.88811083279	2885.25
2978.92542414378	2896.5
2980.96218192713	2912.75
2982.99838444541	2926
2985.034031961	2909
2987.06912473612	2904.75
2989.1036630328	2887
2991.13764711288	2915.25
2993.17107723804	2925
2995.20395366974	2943.75
2997.23627666931	2912.5
2999.26804649782	2909.25
3001.29926341624	2946
3003.32992768528	2977.5
3005.3600395655	2961
3007.38959931726	2974
3009.41860720076	2961.5
3011.44706347595	3007.5
3013.47496840263	2985.75
3015.50232224041	3015.75
3017.5291252487	3000.25
3019.5553776867	2993.75
3021.58107981344	3012
3023.60623188773	3003.25
3025.63083416822	3012.5
3027.65488691331	3036.75
3029.67839038125	3011.25
3031.70134483007	3011.25
3033.72375051759	3035.25
3035.74560770144	3017.25
3037.76691663907	3018.25
3039.78767758768	3038.5
3041.80789080431	3037
3043.82755654577	3077.25
3045.84667506867	3058.25
3047.8652466294	3067.5
3049.88327148418	3032.75
3051.90074988899	3029.75
3053.91768209961	3049.75
3055.9340683716	3047.25
3057.94990896033	3076.5
3059.96520412095	3081.5
3061.97995410838	3062
3063.99415917734	3058.75
3066.00781958234	3081.25
3068.02093557766	3067.5
3070.03350741738	3094.25
3072.04553535535	3075.75
3074.05701964521	3111.25
3076.06796054036	3087.75
3078.078358294	3069.25
3080.08821315912	3082
3082.09752538846	3064.25
3084.10629523454	3066.5
3086.11452294967	3066.5
3088.12220878592	3092.25
3090.12935299515	3093.5
3092.13595582898	3074.75
3094.1420175388	3076.5
3096.14753837579	3084.5
3098.15251859088	3067
3100.15695843477	3083.75
3102.16085815793	3072.75
3104.16421801061	3051.75
3106.16703824282	3079.25
3108.16931910432	3070.75
3110.17106084464	3053.5
3112.17226371308	3080.25
3114.17292795872	3111
3116.17305383034	3127.75
3118.17264157657	3068
3120.17169144571	3111
3122.17020368587	3090.75
3124.16817854492	3088
3126.16561627044	3113
3128.16251710982	3124
3130.15888131017	3164.75
3132.15470911837	3120.5
3134.15000078104	3118.25
3136.14475654455	3139
3138.13897665502	3175.75
3140.13266135835	3153.75
3142.12581090014	3137.25
3144.11842552577	3143.75
3146.11050548036	3123
3148.10205100875	3144
3150.09306235557	3165.25
3152.08353976515	3125
3154.07348348158	3120.5
3156.06289374869	3129.25
3158.05177081006	3129
3160.04011490899	3149.5
3162.02792628852	3135.75
3164.01520519145	3180.25
3166.00195186029	3118.25
3167.98816653728	3177.25
3169.97384946442	3153
3171.95900088344	3146
3173.94362103577	3203
3175.92771016259	3164.75
3177.91126850484	3172
3179.89429630312	3177.5
3181.87679379782	3137
3183.85876122903	3189.25
3185.84019883657	3181.75
3187.82110685997	3201.25
3189.80148553851	3162
3191.78133511116	3194.75
3193.76065581664	3184
3195.73944789337	3205.25
3197.7177115795	3176.75
3199.6954471129	3198.75
3201.67265473114	3190.5
3203.64933467153	3190
3205.62548717107	3193.25
3207.60111246648	3235.25
3209.57621079421	3196.25
3211.55078239041	3227.25
3213.52482749093	3189.25
3215.49834633133	3214
3217.4713391469	3254.5
3219.44380617262	3236.5
3221.41574764317	3253.75
3223.38716379296	3207
3225.35805485607	3246.25
3227.32842106631	3254
3229.29826265718	3271.75
3231.26757986187	3283.25
3233.2363729133	3288.25
3235.20464204405	3274.75
3237.17238748643	3308.75
3239.13960947243	3302.25
3241.10630823374	3302.25
3243.07248400174	3288.25
3245.03813700748	3302.25
3247.00326748177	3308.25
3248.96787565503	3308.25
3250.93196175742	3309
3252.89552601877	3339.75
3254.8585686686	3301
3256.82108993612	3358.25
3258.78309005022	3329.25
3260.74456923948	3314.5
3262.70552773215	3351.25
3264.66596575617	3347.75
3266.62588353916	3359.75
3268.58528130843	3337.75
3270.54415929094	3317.75
3272.50251771336	3336
3274.46035680201	3354.5
3276.4176767829	3352.5
3278.37447788171	3344.75
3280.33076032379	3366.25
3282.28652433416	3307
3284.24177013751	3385.25
3286.1964979582	3384.5
3288.15070802027	3369.5
3290.10440054741	3341.75
3292.05757576298	3352
3294.01023389001	3346
3295.96237515119	3357
3297.91399976887	3354.25
3299.86510796506	3390.25
3301.81569996142	3367.75
3303.76577597932	3379.75
3305.7153362397	3380
3307.66438096324	3368.5
3309.61291037024	3400.75
3311.56092468064	3370.5
3313.50842411404	3401.5
3315.45540888971	3401.5
3317.40187922656	3349.5
3319.34783534315	3373
3321.29327745768	3381
3323.23820578801	3346
3325.18262055164	3374.5
3327.1265219657	3354.75
3329.06991024699	3381
3331.01278561194	3353.25
3332.95514827662	3368.25
3334.89699845674	3385.75
3336.83833636766	3382
3338.77916222434	3365.75
3340.71947624143	3377.75
3342.65927863317	3375.75
3344.59856961346	3355.25
3346.53734939584	3392.75
3348.47561819344	3362
3350.41337621906	3335.5
3352.35062368513	3375.5
3354.28736080368	3329
3356.22358778637	3384.75
3358.15930484452	3336
3360.09451218904	3389.25
3362.02921003047	3384.5
3363.96339857898	3398.75
3365.89707804436	3387
3367.83024863602	3383.5
3369.76291056299	3368.5
3371.69506403389	3366.75
3373.62670925699	3394.75
3375.55784644016	3417.25
3377.4884757909	3390
3379.41859751629	3376
3381.34821182305	3418
3383.27731891749	3402.25
3385.20591900555	3416
3387.13401229276	3422
3389.06159898426	3420.75
3390.9886792848	3419.5
3392.91525339872	3424.75
3394.84132152998	3410.5
3396.76688388213	3431.25
3398.69194065833	3447.5
3400.61649206133	3438.75
3402.54053829348	3429.5
3404.46407955672	3392.25
3406.3871160526	3432
3408.30964798225	3446.25
3410.23167554639	3406.75
3412.15319894535	3469.5
3414.07421837904	3442
3415.99473404695	3472
3417.91474614817	3458.75
3419.83425488136	3423
3421.75326044479	3459.5
3423.67176303631	3447.75
3425.58976285332	3471.75
3427.50726009282	3457
3429.42425495143	3461.75
3431.34074762528	3421
3433.25673831012	3430.5
3435.17222720127	3463.25
3437.08721449362	3467.5
3439.00170038164	3437.5
3440.91568505936	3460.5
3442.82916872039	3429
3444.74215155791	3452
3446.65463376468	3451
3448.566615533	3477
3450.47809705476	3465.5
3452.3890785214	3457.75
3454.29956012393	3464.5
3456.20954205293	3465.25
3458.11902449853	3447.5
3460.02800765041	3431.5
3461.93649169784	3425.75
3463.84447682962	3418
3465.75196323412	3459
3467.65895109925	3448.5
3469.56544061249	3435
3471.47143196086	3398
3473.37692533093	3443.75
3475.28192090884	3443.25
3477.18641888026	3487.5
3479.09041943039	3411.75
3480.99392274402	3437.5
3482.89692900545	3457.25
3484.79943839853	3443.75
3486.70145110666	3472.5
3488.60296731277	3420.5
3490.50398719933	3429
3492.40451094836	3462.5
3494.30453874141	3428.5
3496.20407075956	3431.5
3498.10310718342	3445
3500.00164819315	3417
