201.866871357051	1192.75
204.754250281454	1172.75
207.640596790938	1180.25
210.525911876299	1184.25
213.410196525689	1190.75
216.293451724508	1189.75
219.175678455485	1188
222.056877698662	1190.5
224.937050431388	1180.75
227.816197628363	1190.5
230.694320261602	1189.5
233.571419300504	1208.5
236.447495711764	1224.5
239.322550459507	1202.5
242.196584505182	1218.5
245.069598807626	1228
247.941594323078	1251.5
250.812572005154	1241
253.682532804884	1236
256.551477670699	1245.75
259.419407548456	1223
262.286323381439	1243.25
265.152226110364	1233.5
268.017116673389	1243.75
270.880996006115	1256.5
273.743865041622	1241
276.605724710436	1232.75
279.466575940562	1237.5
282.326419657496	1245
285.1852567842	1235.75
288.043088241157	1235.5
290.899914946349	1249
293.75573781526	1250
296.610557760898	1241.5
299.464375693817	1245.5
302.317192522078	1246.25
305.169009151297	1259.5
308.019826484655	1256
310.86964542287	1248.75
313.718466864233	1257.5
316.566291704614	1273.75
319.413120837457	1276.75
322.258955153804	1275.25
325.103795542291	1271.5
327.947642889128	1275.5
330.79049807819	1272.75
333.632361990927	1283.25
336.473235506444	1252.25
339.31311950145	1271.75
342.152014850322	1271.25
344.989922425062	1281.75
347.826843095354	1299.25
350.662777728528	1290.25
353.497727189577	1283.25
356.331692341195	1287.25
359.164674043732	1290.5
361.996673155267	1300.75
364.827690531536	1307.75
367.65772702602	1318.5
370.486783489887	1316
373.314860772047	1298
376.14195971912	1316
378.968081175466	1315.5
381.793225983212	1316.5
384.617394982201	1345.25
387.44058901005	1343.25
390.262808902131	1352.25
393.08405549161	1382.5
395.904329609395	1414.5
398.723632084213	1442.5
401.541963742569	1420.5
404.359325408779	1398
407.175717904938	1361
409.991142050982	1346.75
412.805598664665	1350.25
415.619088561551	1353
418.43161255505	1351
421.243171456415	1332
424.053766074758	1342.75
426.863397217017	1343.75
429.672065688024	1347
432.479772290455	1354.5
435.286517824879	1353.75
438.092303089736	1363
440.897128881359	1369
443.70099599399	1359
446.503905219761	1352.75
449.305857348711	1372
452.106853168796	1386.5
454.906893465919	1389.75
457.705979023885	1405.25
460.504110624439	1377
463.3012890473	1379.5
466.097515070087	1350
468.892789468424	1370.25
471.687113015869	1359.75
474.48048648395	1356
477.272910642198	1360.5
480.064386258109	1367.75
482.854914097159	1364.75
485.644494922839	1377.25
488.433129496636	1367.5
491.220818578047	1365.75
494.007562924584	1382.5
496.793363291785	1394.25
499.578220433217	1395
502.362135100473	1387.5
505.145108043209	1375.75
507.927140009098	1389.5
510.708231743909	1399.75
513.488383991433	1394.5
516.267597493556	1401
519.04587299022	1418.75
521.82321121946	1412
524.599612917398	1439.5
527.375078818233	1430
530.149609654287	1431.25
532.923206155967	1409.25
535.695869051804	1414
538.467599068448	1402.25
541.238396930665	1405.5
544.008263361364	1388
546.777199081578	1389
549.545204810493	1397.5
552.312281265436	1382
555.078429161898	1394
557.843649213533	1408
560.607942132156	1405.5
563.371308627753	1403
566.133749408495	1410
568.895265180756	1411.75
571.655856649064	1412.5
574.415524516189	1403
577.174269483075	1420.25
579.932092248884	1406.75
582.688993510994	1419.25
585.444973965023	1420
588.200034304795	1425.5
590.95417522237	1413
593.70739740807	1406.75
596.459701550433	1428.25
599.21108833628	1414.5
601.961558450668	1406.25
604.711112576933	1439.75
607.459751396673	1434.5
610.207475589748	1403.25
612.954285834338	1428.5
615.700182806879	1423.25
618.445167182101	1424.75
621.189239633055	1420.75
623.932400831087	1417.5
626.674651445839	1409.75
629.415992145303	1390.5
632.156423595745	1402.25
634.895946461813	1386.75
637.634561406449	1401.75
640.37226909096	1406
643.109070174978	1422
645.844965316508	1406.25
648.579955171888	1402.25
651.314040395846	1404.5
654.047221641456	1418
656.779499560176	1417
659.510874801828	1400.25
662.241348014642	1429.5
664.97091984524	1438.75
667.699590938606	1447.5
670.427361938164	1440.25
673.15423348573	1418.5
675.880206221526	1439.5
678.605280784206	1445.5
681.329457810829	1442
684.05273793692	1427
686.775121796389	1460.75
689.49661002163	1452.25
692.217203243454	1427.25
694.936902091144	1427.25
697.655707192425	1422.5
700.373619173493	1433.75
703.09063865901	1429.5
705.806766272093	1431.25
708.522002634378	1437.25
711.236348365946	1439.25
713.94980408538	1440.75
716.662370409762	1415.75
719.374047954676	1426
722.08483733419	1433.25
724.794739160909	1415.5
727.503754045949	1437
730.21188259892	1436
732.919125427998	1442.25
735.625483139855	1444.25
738.330956339723	1446
741.035545631374	1446.25
743.739251617106	1429.5
746.44207489779	1454.5
749.144016072852	1458.5
751.845075740272	1469.25
754.545254496603	1452.5
757.244552936976	1457.5
759.94297165508	1468.5
762.640511243222	1472.5
765.337172292249	1456.25
768.032955391649	1449.75
770.727861129482	1465.75
773.421890092413	1458.75
776.11504286572	1470.5
778.807320033298	1459.5
781.49872217765	1456.75
784.18924987991	1462.5
786.87890371984	1467
789.567684275826	1466.75
792.255592124908	1473.5
794.94262784276	1472.75
797.628792003703	1496.25
800.314085180715	1507
802.998507945427	1583
805.682060868145	1679.5
808.364744517821	1752.25
811.046559462105	1708.5
813.727506267311	1623.5
816.407585498422	1557.5
819.08679771913	1531
821.765143491822	1504.5
824.442623377563	1525.5
827.119237936127	1499.5
829.794987726003	1521.25
832.469873304377	1516
835.143895227167	1530
837.817054048985	1542.25
840.489350323205	1564.75
843.160784601892	1562.75
845.831357435894	1541
848.501069374739	1501
851.169920966753	1503.5
853.837912758987	1486.25
856.505045297232	1488.25
859.171319126071	1506.25
861.836734788823	1481.75
864.501292827579	1508
867.164993783208	1479.25
869.827838195361	1471
872.489826602454	1491.5
875.150959541701	1471.5
877.811237549104	1475
880.470661159456	1469.75
883.129230906357	1475
885.786947322205	1460
888.443810938206	1477.75
891.099822284385	1480.75
893.754981889586	1481.25
896.409290281452	1468
899.062747986485	1492.25
901.715355529999	1489.5
904.367113436154	1490.5
907.01802222793	1492.75
909.668082427172	1475.25
912.317294554574	1476.75
914.965659129659	1487.75
917.613176670835	1486
920.259847695364	1491.25
922.90567271936	1491.75
925.550652257825	1489
928.194786824621	1502.75
930.838076932512	1503.5
933.480523093109	1519
936.122125816953	1503.25
938.762885613447	1522.75
941.402802990899	1531.5
944.041878456523	1536.5
946.680112516428	1521.25
949.31750567563	1487.25
951.954058438081	1506.5
954.589771306633	1520.75
957.224644783048	1515.25
959.858679368044	1507
962.491875561238	1514
965.12423386121	1545.75
967.75575476545	1586.5
970.386438770423	1635.25
973.016286371501	1647.75
975.645298063046	1612
978.273474338355	1566
980.900815689674	1531.5
983.527322608243	1496
986.152995584245	1513.25
988.777835106834	1530.25
991.401841664148	1522
994.025015743307	1522
996.647357830407	1533
999.268868410534	1529.75
1001.88954796777	1530
1004.50939698518	1517.75
1007.12841594484	1526.5
1009.74660532783	1512.25
1012.36396561423	1516.25
1014.98049728314	1530.75
1017.59620081267	1513.25
1020.21107667995	1511
1022.82512536112	1520.75
1025.43834733138	1533.75
1028.05074306493	1531.75
1030.66231303501	1555
1033.27305771392	1550.25
1035.88297757299	1569
1038.49207308257	1561.25
1041.10034471211	1542.5
1043.70779293008	1569.5
1046.31441820402	1551.5
1048.92022100052	1535
1051.52520178525	1540
1054.12936102295	1534.25
1056.73269917742	1547.75
1059.33521671154	1547
1061.93691408729	1540
1064.53779176571	1529.75
1067.13785020694	1541.5
1069.73708987022	1536.75
1072.33551121386	1517.25
1074.93311469528	1533
1077.52990077103	1525.5
1080.12586989674	1531
1082.72102252714	1537.5
1085.31535911611	1510.75
1087.90888011663	1512.75
1090.50158598078	1518.75
1093.09347715979	1535
1095.68455410403	1541
1098.27481726296	1526.25
1100.86426708523	1540
1103.45290401857	1540.5
1106.04072850991	1558.25
1108.6277410053	1545.25
1111.21394194993	1534
1113.79933178816	1536
1116.3839109635	1558
1118.96767991862	1566.5
1121.55063909539	1547.5
1124.13278893477	1576.25
1126.71412987696	1544.5
1129.29466236132	1559.75
1131.87438682637	1558.25
1134.45330370982	1548.75
1137.03141344858	1570.5
1139.60871647872	1574.5
1142.18521323554	1582.25
1144.7609041535	1582.75
1147.33578966629	1607
1149.90987020676	1635.25
1152.48314620702	1645.25
1155.05561809835	1631
1157.62728631125	1640
1160.19815127545	1666.5
1162.76821341988	1694.25
1165.33747317271	1747.5
1167.90593096133	1717.25
1170.47358721235	1657.25
1173.04044235163	1656
1175.60649680425	1600.25
1178.17175099454	1592.5
1180.73620534607	1586
1183.29986028165	1550
1185.86271622336	1563.75
1188.42477359249	1557.25
1190.98603280964	1574
1193.54649429462	1558.25
1196.10615846653	1546
1198.66502574372	1540.25
1201.22309654385	1570.75
1203.78037128378	1569
1206.33685037971	1550
1208.89253424709	1579.75
1211.44742330063	1585
1214.00151795438	1591.25
1216.55481862163	1603.75
1219.10732571497	1593
1221.65903964631	1599
1224.20996082683	1571.75
1226.760089667	1565
1229.30942657664	1570.25
1231.85797196483	1578.25
1234.40572623998	1570.25
1236.95268980981	1583.25
1239.49886308136	1574
1242.04424646098	1577.25
1244.58884035435	1569.25
1247.13264516647	1613
1249.67566130166	1605.5
1252.21788916358	1610.5
1254.75932915524	1619
1257.29998167896	1627.25
1259.83984713639	1606.75
1262.37892592857	1626.5
1264.91721845586	1600.75
1267.45472511795	1595.75
1269.9914463139	1604.5
1272.52738244213	1603
1275.0625339004	1605
1277.59690108587	1614.5
1280.130484395	1618
1282.66328422367	1624.75
1285.19530096712	1627.5
1287.72653501993	1610.75
1290.25698677608	1646.25
1292.78665662894	1635.75
1295.31554497125	1638
1297.8436521951	1659.5
1300.37097869203	1668.25
1302.89752485292	1659.75
1305.42329106805	1668.5
1307.94827772713	1651.25
1310.47248521921	1641.25
1312.99591393279	1655
1315.51856425575	1649.75
1318.04043657536	1649.25
1320.56153127836	1711.75
1323.08184875083	1716.5
1325.6013893783	1753
1328.12015354572	1783
1330.63814163744	1787.75
1333.15535403727	1751.5
1335.67179112839	1739
1338.18745329347	1710.5
1340.70234091454	1702.75
1343.21645437314	1714.25
1345.72979405019	1690.25
1348.24236032607	1713.25
1350.75415358059	1743.5
1353.26517419303	1724.75
1355.7754225421	1734
1358.28489900594	1776.5
1360.79360396218	1765.25
1363.30153778787	1736
1365.80870085955	1725.75
1368.31509355319	1731.75
1370.82071624424	1727
1373.32556930762	1722
1375.8296531177	1735.75
1378.33296804832	1708.75
1380.83551447282	1708
1383.33729276399	1703.5
1385.83830329408	1706.75
1388.33854643489	1698.5
1390.83802255762	1671.25
1393.33673203301	1696.75
1395.83467523128	1685.5
1398.33185252211	1677.5
1400.82826427471	1690
1403.32391085777	1674
1405.81879263947	1714.25
1408.31290998752	1709
1410.80626326908	1695.25
1413.29885285087	1704.75
1415.79067909909	1707.25
1418.28174237944	1695.75
1420.77204305717	1694
1423.26158149702	1688.5
1425.75035806323	1731.5
1428.2383731196	1726.5
1430.72562702942	1743.5
1433.21212015554	1792.25
1435.69785286028	1818.25
1438.18282550555	1811.5
1440.66703845275	1774.5
1443.15049206284	1782
1445.6331866963	1809.75
1448.11512271316	1802.5
1450.59630047298	1850.25
1453.07672033486	1891.75
1455.55638265748	1889.25
1458.03528779902	1942.5
1460.51343611725	1921.75
1462.99082796946	1894
1465.46746371252	1865
1467.94334370285	1819.5
1470.41846829642	1797.75
1472.89283784878	1803.75
1475.36645271503	1777
1477.83931324983	1754.5
1480.31141980743	1773.75
1482.78277274164	1779.75
1485.25337240583	1777.25
1487.72321915297	1769.25
1490.19231333557	1762.5
1492.66065530578	1780
1495.12824541525	1766.5
1497.5950840153	1785.5
1500.06117145678	1772
1502.52650809014	1760
1504.99109426543	1768
1507.45493033227	1778.5
1509.91801663992	1762.75
1512.38035353717	1767.75
1514.84194137248	1775.75
1517.30278049386	1785.5
1519.76287124894	1765.5
1522.22221398497	1761.75
1524.68080904876	1783.5
1527.13865678681	1755.25
1529.59575754514	1788
1532.05211166945	1783.5
1534.50771950503	1801.25
1536.96258139678	1811.75
1539.41669768924	1819.25
1541.87006872656	1801.5
1544.32269485252	1807.5
1546.77457641051	1825.75
1549.22571374357	1841
1551.67610719434	1846.25
1554.12575710513	1855.5
1556.57466381785	1827.5
1559.02282767408	1847.75
1561.47024901499	1844.25
1563.91692818144	1851.25
1566.3628655139	1845.75
1568.80806135249	1862
1571.252516037	1850.5
1573.6962299068	1876.75
1576.13920330099	1876.5
1578.58143655828	1875.25
1581.02293001704	1879.5
1583.46368401528	1870.75
1585.90369889071	1885.75
1588.34297498065	1887
1590.7815126221	1911.5
1593.21931215173	1887.5
1595.65637390588	1892.25
1598.09269822053	1885.25
1600.52828543135	1912
1602.96313587367	1899.25
1605.3972498825	1909.25
1607.83062779252	1877.75
1610.26326993808	1903.5
1612.69517665322	1882.75
1615.12634827165	1911.5
1617.55678512676	1903.5
1619.98648755163	1879.75
1622.41545587902	1880.5
1624.84369044138	1864
1627.27119157085	1916.75
1629.69795959924	1890.25
1632.12399485808	1886.5
1634.54929767859	1885
1636.97386839165	1896
1639.39770732789	1917.25
1641.8208148176	1905.25
1644.24319119078	1900.75
1646.66483677715	1925.25
1649.0857519061	1918.5
1651.50593690677	1907
1653.92539210795	1910.25
1656.3441178382	1921.25
1658.76211442575	1944.5
1661.17938219855	1928.25
1663.59592148428	1943
1666.01173261032	1944.5
1668.42681590377	1954.5
1670.84117169145	1959.25
1673.25480029991	1945.75
1675.66770205541	1973
1678.07987728393	1953
1680.49132631119	1971.5
1682.90204946263	1988
1685.31204706342	1985.25
1687.72131943846	1969.25
1690.1298669124	1997.75
1692.53768980957	2006.25
1694.94478845411	2009.75
1697.35116316982	1977
1699.75681428031	1988.5
1702.16174210887	2021.5
1704.56594697858	1997.25
1706.96942921222	2022
1709.37218913235	2023.5
1711.77422706125	2016
1714.17554332098	2003.5
1716.5761382333	2014.25
1718.97601211977	1983
1721.37516530169	1997.5
1723.77359810006	1995
1726.17131083572	1985.25
1728.56830382922	2008.25
1730.96457740087	2000.75
1733.36013187075	2016
1735.75496755868	2003.5
1738.14908478428	2010.75
1740.54248386689	2013.5
1742.93516512565	2011
1745.32712887946	2019.25
1747.71837544697	2023.5
1750.10890514662	2032.75
1752.49871829661	2013.25
1754.88781521492	2024.5
1757.27619621929	2010.75
1759.66386162726	2018.5
1762.05081175612	2030.75
1764.43704692297	2002.25
1766.82256744465	2047
1769.20737363782	2018.5
1771.59146581887	2038.5
1773.97484430405	2014.75
1776.35750940932	2056.25
1778.73946145048	2049.25
1781.12070074309	2060.5
1783.50122760249	2057.75
1785.88104234385	2050.75
1788.26014528209	2079
1790.63853673196	2065.75
1793.01621700796	2081.5
1795.39318642443	2047.5
1797.76944529549	2077.75
1800.14499393503	2067.5
1802.51983265681	2073.5
1804.8939617743	2072.75
1807.26738160085	2094.75
1809.64009244957	2075.75
1812.01209463339	2070.5
1814.38338846504	2101.25
1816.75397425706	2111.25
1819.12385232181	2112.75
1821.49302297142	2100.25
1823.86148651789	2096
1826.22924327299	2100.75
1828.59629354831	2079.5
1830.96263765526	2100
1833.32827590507	2086.75
1835.69320860877	2121
1838.05743607724	2085.75
1840.42095862113	2102.5
1842.78377655097	2114
1845.14589017707	2085.25
1847.50729980956	2077.5
1849.86800575843	2089.5
1852.22800833346	2112.5
1854.58730784427	2109.75
1856.94590460032	2119
1859.30379891087	2117.5
1861.66099108503	2124.75
1864.01748143175	2123
1866.37327025978	2124.5
1868.72835787773	2140.25
1871.08274459403	2145
1873.43643071697	2139.25
1875.78941655464	2149.75
1878.14170241498	2110.75
1880.4932886058	2157
1882.84417543469	2144.25
1885.19436320915	2141
1887.54385223646	2158.75
1889.89264282378	2174
1892.24073527809	2172.5
1894.58812990625	2149.25
1896.93482701493	2205.5
1899.28082691067	2157.5
1901.62612989984	2194
1903.97073628868	2203.75
1906.31464638326	2198.75
1908.6578604895	2215
1911.00037891321	2227.75
1913.34220196	2268.75
1915.68332993537	2219.25
1918.02376314468	2247.25
1920.36350189311	2246
1922.70254648573	2251
1925.04089722744	2204.25
1927.37855442303	2266
1929.71551837715	2234.5
1932.05178939426	2218.75
1934.38736777876	2251
1936.72225383484	2227.25
1939.0564478666	2271.75
1941.38995017799	2238.75
1943.72276107283	2255.75
1946.05488085479	2219.25
1948.38630982744	2227
1950.71704829419	2269.75
1953.04709655832	2238.25
1955.376454923	2248.75
1957.70512369126	2263.25
1960.03310316599	2240
1962.36039364999	2236
1964.68699544589	2231.5
1967.01290885622	2235.5
1969.33813418338	2247
1971.66267172965	2259.75
1973.98652179718	2248
1976.309684688	2253.5
1978.63216070402	2245
1980.95395014705	2290.5
1983.27505331873	2252.75
1985.59547052063	2258.75
1987.9152020542	2308.25
1990.23424822074	2299.75
1992.55260932146	2260.5
1994.87028565746	2296.75
1997.18727752968	2282.5
1999.503585239	2295.75
2001.81920908618	2323.25
2004.13414937184	2278.5
2006.44840639651	2312.5
2008.7619804606	2321.75
2011.07487186442	2331.75
2013.38708090815	2364.25
2015.6986078919	2343
2018.00945311564	2339.25
2020.31961687923	2363.75
2022.62909948246	2340.75
2024.93790122498	2400
2027.24602240636	2353.5
2029.55346332604	2361.5
2031.86022428337	2358.5
2034.16630557761	2398
2036.47170750791	2390.75
2038.77643037331	2387.25
2041.08047447275	2424.5
2043.38384010509	2396.75
2045.68652756907	2407
2047.98853716335	2384.75
2050.28986918648	2366.25
2052.59052393692	2396
2054.89050171302	2398.25
2057.18980281306	2376.75
2059.4884275352	2407.75
2061.78637617753	2403.75
2064.08364903802	2408
2066.38024641457	2411.25
2068.67616860497	2414
2070.97141590694	2408.25
2073.26598861809	2412.5
2075.55988703595	2403.75
2077.85311145796	2395
2080.14566218145	2408.5
2082.43753950371	2405
2084.72874372188	2407.5
2087.01927513307	2412.5
2089.30913403428	2419.75
2091.59832072241	2415.5
2093.88683549429	2395.25
2096.17467864666	2403.75
2098.46185047619	2422.5
2100.74835127944	2446.25
2103.03418135292	2408
2105.31934099303	2400.25
2107.6038304961	2418.25
2109.88765015838	2431.5
2112.17080027602	2439
2114.45328114513	2450.25
2116.7350930617	2425.5
2119.01623632165	2453.75
2121.29671122085	2459
2123.57651805505	2448.25
2125.85565711996	2445
2128.13412871117	2477
2130.41193312424	2451.25
2132.68907065462	2463.25
2134.96554159771	2465.25
2137.24134624881	2467.5
2139.51648490317	2501.75
2141.79095785593	2491.5
2144.0647654022	2475.25
2146.33790783698	2470.75
2148.61038545524	2500.75
2150.88219855182	2501.5
2153.15334742154	2510.5
2155.42383235911	2494
2157.6936536592	2518.25
2159.9628116164	2486.5
2162.23130652522	2510.5
2164.49913868011	2551.5
2166.76630837544	2493.75
2169.03281590552	2501
2171.2986615646	2520.25
2173.56384564685	2483
2175.82836844637	2526
2178.0922302572	2496.25
2180.35543137332	2530
2182.61797208862	2530.75
2184.87985269695	2514
2187.14107349208	2513
2189.40163476773	2556.25
2191.66153681753	2530.5
2193.92077993507	2513.25
2196.17936441386	2565.5
2198.43729054735	2532.25
2200.69455862894	2529.5
2202.95116895194	2576.25
2205.20712180962	2565
2207.46241749519	2537.75
2209.71705630179	2529.75
2211.97103852248	2540
2214.2243644503	2550
2216.47703437819	2559.5
2218.72904859905	2511.75
2220.98040740571	2532.5
2223.23111109095	2549.25
2225.4811599475	2534.25
2227.73055426799	2557.75
2229.97929434504	2558
2232.22738047118	2547.5
2234.47481293889	2532.5
2236.72159204058	2558.75
2238.96771806864	2570.75
2241.21319131536	2534.75
2243.458012073	2514.25
2245.70218063374	2571.25
2247.94569728973	2555.5
2250.18856233304	2566.75
2252.4307760557	2535.5
2254.67233874967	2585.5
2256.91325070687	2569.25
2259.15351221915	2554
2261.39312357831	2559.75
2263.63208507611	2570
2265.87039700422	2558.25
2268.1080596543	2552.5
2270.34507331792	2576.75
2272.5814382866	2580.5
2274.81715485183	2599.25
2277.05222330502	2613.25
2279.28664393755	2587
2281.52041704072	2584.5
2283.75354290581	2615.25
2285.98602182401	2611
2288.21785408648	2594.75
2290.44903998434	2587
2292.67957980862	2599.75
2294.90947385033	2599
2297.1387224004	2604.75
2299.36732574975	2601.25
2301.59528418921	2598.25
2303.82259800958	2599.5
2306.04926750158	2632.75
2308.27529295593	2600.75
2310.50067466325	2604.5
2312.72541291412	2657.5
2314.9495079991	2613.5
2317.17296020866	2603.25
2319.39576983323	2640.75
2321.61793716322	2643.75
2323.83946248894	2621
2326.06034610069	2624.25
2328.28058828871	2621.5
2330.50018934317	2616.75
2332.7191495542	2596.75
2334.93746921192	2628.5
2337.15514860633	2615.5
2339.37218802743	2619.5
2341.58858776516	2593.75
2343.80434810941	2606.75
2346.01946935001	2626.75
2348.23395177675	2588.75
2350.44779567939	2616
2352.66100134759	2580.75
2354.87356907101	2639.5
2357.08549913925	2620
2359.29679184185	2590.5
2361.50744746829	2620
2363.71746630804	2645.25
2365.92684865048	2621.5
2368.13559478499	2635.5
2370.34370500083	2620.75
2372.55117958727	2648.25
2374.75801883352	2612.5
2376.96422302874	2613.25
2379.16979246202	2592.25
2381.37472742243	2592.25
2383.57902819898	2608.5
2385.78269508063	2610
2387.98572835629	2591.5
2390.18812831482	2581.25
2392.38989524505	2605.25
2394.59102943573	2601.5
2396.79153117559	2622.5
2398.9914007533	2604
2401.19063845748	2618
2403.38924457672	2594.75
2405.58721939951	2588.75
2407.78456321435	2599.75
2409.98127630966	2571.25
2412.17735897382	2602.75
2414.37281149517	2611.25
2416.56763416198	2610.5
2418.76182726249	2584.75
2420.95539108487	2617.75
2423.14832591726	2599.25
2425.34063204776	2603
2427.53230976439	2599.5
2429.72335935513	2616
2431.91378110795	2595
2434.10357531071	2559
2436.29274225125	2598
2438.48128221739	2593.25
2440.66919549683	2593.5
2442.8564823773	2572.75
2445.04314314641	2602.5
2447.22917809176	2601
2449.4145875009	2579.25
2451.59937166131	2600
2453.78353086044	2625
2455.96706538568	2589.5
2458.14997552436	2580
2460.33226156379	2601.75
2462.51392379119	2581.5
2464.69496249376	2571.5
2466.87537795862	2546.5
2469.05517047288	2596.5
2471.23434032357	2577.75
2473.41288779767	2574.5
2475.59081318211	2545.25
2477.76811676378	2564.5
2479.9447988295	2546.25
2482.12085966605	2538.75
2484.29629956016	2524.5
2486.4711187985	2572.75
2488.64531766769	2557.5
2490.8188964543	2546.75
2492.99185544484	2546
2495.16419492579	2534.5
2497.33591518353	2545.75
2499.50701650444	2573.25
2501.67749917482	2540.75
2503.84736348091	2566
2506.01660970891	2560.25
2508.18523814496	2551
2510.35324907514	2569.75
2512.52064278551	2568
2514.68741956201	2564.75
2516.85357969058	2591.25
2519.01912345709	2587.75
2521.18405114735	2580
2523.34836304711	2597.25
2525.51205944208	2596.5
2527.6751406179	2582
2529.83760686016	2579.75
2531.99945845439	2578.75
2534.16069568606	2606
2536.3213188406	2595.25
2538.48132820336	2590.75
2540.64072405965	2573.25
2542.79950669471	2613.25
2544.95767639373	2613.25
2547.11523344184	2612
2549.27217812411	2608.75
2551.42851072555	2606.25
2553.58423153111	2606
2555.73934082569	2589
2557.89383889412	2581.25
2560.04772602118	2578.25
2562.20100249158	2580.5
2564.35366858996	2552.75
2566.50572460093	2573
2568.65717080901	2557.25
2570.80800749867	2567.5
2572.95823495433	2565.5
2575.10785346031	2596.25
2577.25686330093	2540.25
2579.40526476038	2550.5
2581.55305812282	2547.25
2583.70024367237	2544
2585.84682169303	2544
2587.99279246879	2535
2590.13815628354	2545
2592.28291342112	2528.25
2594.42706416531	2565.5
2596.5706087998	2534
2598.71354760826	2547.5
2600.85588087425	2538.5
2602.99760888127	2528.5
2605.13873191278	2547.25
2607.27925025214	2525.5
2609.41916418269	2544.5
2611.55847398764	2544.75
2613.69717995017	2545.5
2615.83528235339	2552.5
2617.97278148034	2547.75
2620.10967761398	2557.5
2622.2459710372	2544.5
2624.38166203284	2544.75
2626.51675088365	2563
2628.65123787231	2539.25
2630.78512328145	2560.5
2632.9184073936	2568.25
2635.05109049124	2567
2637.18317285676	2567
2639.31465477248	2595
2641.44553652067	2560.5
2643.5758183835	2537.75
2645.70550064309	2567
2647.83458358144	2547.75
2649.96306748053	2596
2652.09095262223	2587.5
2654.21823928836	2603.5
2656.34492776063	2569
2658.47101832071	2554.25
2660.59651125015	2592.25
2662.72140683047	2572.25
2664.84570534309	2584.75
2666.96940706934	2570
2669.0925122905	2577.5
2671.21502128773	2570.75
2673.33693434215	2582
2675.45825173479	2578.5
2677.57897374658	2592
2679.69910065839	2573.5
2681.818632751	2554.75
2683.93757030511	2596.75
2686.05591360133	2601
2688.17366292021	2568.5
2690.29081854218	2563.75
2692.40738074762	2529.75
2694.52334981681	2570.25
2696.63872602995	2585.25
2698.75350966713	2603.75
2700.86770100841	2594.5
2702.98130033371	2579.25
2705.09430792289	2580.75
2707.20672405571	2625.75
2709.31854901185	2625.75
2711.42978307091	2595.75
2713.54042651238	2626.25
2715.65047961567	2633
2717.7599426601	2654.75
2719.86881592491	2662.5
2721.97709968924	2686.75
2724.08479423213	2670.25
2726.19189983255	2670.25
2728.29841676934	2636.5
2730.4043453213	2630.75
2732.5096857671	2646.75
2734.61443838532	2604.25
2736.71860345444	2607
2738.82218125286	2642.75
2740.92517205889	2634.25
2743.02757615072	2640
2745.12939380646	2614.25
2747.23062530411	2596.75
2749.33127092159	2643
2751.4313309367	2625.25
2753.53080562716	2599.75
2755.62969527058	2624.25
2757.72800014448	2597
2759.82572052625	2615
2761.92285669323	2591
2764.0194089226	2607.75
2766.11537749147	2585
2768.21076267686	2602.75
2770.30556475566	2610.75
2772.39978400465	2638
2774.49342070054	2605.5
2776.58647511991	2589.75
2778.67894753923	2645.5
2780.77083823487	2604.75
2782.8621474831	2609
2784.95287556007	2599.75
2787.04302274184	2582.5
2789.13258930433	2589.25
2791.22157552338	2597
2793.30998167471	2653.75
2795.39780803392	2614.75
2797.4850548765	2649.25
2799.57172247786	2597.25
2801.65781111324	2603.5
2803.74332105781	2628.75
2805.82825258661	2614.25
2807.91260597457	2657.25
2809.9963814965	2615.75
2812.07957942711	2627.25
2814.16220004096	2630
2816.24424361252	2616.5
2818.32571041614	2643.25
2820.40660072604	2651.75
2822.48691481631	2694.5
2824.56665296098	2684.5
2826.64581543388	2712.75
2828.72440250876	2788.25
2830.80241445925	2813.5
2832.87985155885	2907.75
2834.95671408093	3020.75
2837.03300229875	3136.75
2839.10871648544	3167.25
2841.18385691399	3189.75
2843.25842385729	3109
2845.33241758808	3016.75
2847.40583837898	2928.75
2849.4786865025	2888.5
2851.550962231	2866.75
2853.6226658367	2875.25
2855.69379759173	2903.25
2857.76435776806	2911.75
2859.83434663753	3043
2861.90376447184	3190
2863.97261154259	3369.25
2866.0408881212	3466.5
2868.10859447901	3472.5
2870.17573088717	3518.25
2872.24229761673	3524
2874.30829493859	3541.75
2876.37372312352	3643.75
2878.43858244215	3729.5
2880.50287316496	3788.25
2882.56659556231	3819
2884.62974990439	3850
2886.69233646129	3765.75
2888.75435550293	3635
2890.81580729909	3602.25
2892.87669211941	3527.5
2894.93701023339	3476.25
2896.99676191039	3447.75
2899.05594741961	3508.75
2901.1145670301	3545
2903.1726210108	3543
2905.23010963045	3651.5
2907.28703315768	3604.75
2909.34339186096	3566.5
2911.39918600861	3450.75
2913.45441586879	3387.25
2915.50908170952	3404.5
2917.56318379867	3390.25
2919.61672240395	3418.5
2921.66969779291	3426.75
2923.72211023295	3421.25
2925.77395999134	3395.25
2927.82524733515	3357.25
2929.87597253132	3297.5
2931.92613584663	3218.75
2933.97573754769	3167
2936.02477790097	3049.5
2938.07325717276	3040.25
2940.1211756292	3011.5
2942.16853353626	3033.75
2944.21533115976	3094.5
2946.26156876536	3172.25
2948.30724661853	3298.5
2950.3523649846	3400.5
2952.39692412872	3432.5
2954.44092431587	3442.25
2956.48436581089	3517.25
2958.52724887843	3665.5
2960.56957378296	3756.25
2962.6113407888	3728.25
2964.65255016011	3595.75
2966.69320216083	3460.25
2968.73329705479	3337.5
2970.77283510559	3203.25
2972.81181657671	3098.25
2974.8502417314	2981.5
2976.88811083279	2897.75
2978.92542414378	2897.5
2980.96218192713	2842
2982.99838444541	2834.25
2985.034031961	2802.25
2987.06912473612	2836.75
2989.1036630328	2779.5
2991.13764711288	2785.5
2993.17107723804	2761.25
2995.20395366974	2787.25
2997.23627666931	2780.75
2999.26804649782	2792
3001.29926341624	2788.75
3003.32992768528	2790.5
3005.3600395655	2758.5
3007.38959931726	2806.5
3009.41860720076	2791
3011.44706347595	2815
3013.47496840263	2761.5
3015.50232224041	2821.75
3017.5291252487	2811
3019.5553776867	2767
3021.58107981344	2792.75
3023.60623188773	2796.75
3025.63083416822	2762
3027.65488691331	2831.75
3029.67839038125	2816.25
3031.70134483007	2787.25
3033.72375051759	2817.5
3035.74560770144	2797.25
3037.76691663907	2840.75
3039.78767758768	2828
3041.80789080431	2801.5
3043.82755654577	2825.75
3045.84667506867	2853.25
3047.8652466294	2837
3049.88327148418	2818.25
3051.90074988899	2825.25
3053.91768209961	2820.75
3055.9340683716	2835.5
3057.94990896033	2809.5
3059.96520412095	2825.25
3061.97995410838	2830.75
3063.99415917734	2792.5
3066.00781958234	2833.25
3068.02093557766	2826.25
3070.03350741738	2798.75
3072.04553535535	2801.25
3074.05701964521	2805
3076.06796054036	2833.5
3078.078358294	2810
3080.08821315912	2825.25
3082.09752538846	2830
3084.10629523454	2817.5
3086.11452294967	2811.25
3088.12220878592	2827.75
3090.12935299515	2838.25
3092.13595582898	2797.25
3094.1420175388	2834.25
3096.14753837579	2827.5
3098.15251859088	2800.5
3100.15695843477	2805.75
3102.16085815793	2800.75
3104.16421801061	2844.25
3106.16703824282	2807.75
3108.16931910432	2824.5
3110.17106084464	2832.5
3112.17226371308	2837.75
3114.17292795872	2838.75
3116.17305383034	2857.5
3118.17264157657	2825.25
3120.17169144571	2825.5
3122.17020368587	2856.5
3124.16817854492	2837.75
3126.16561627044	2860.75
3128.16251710982	2878.5
3130.15888131017	2840.5
3132.15470911837	2884
3134.15000078104	2841.25
3136.14475654455	2886.5
3138.13897665502	2874.5
3140.13266135835	2898.75
3142.12581090014	2892.75
3144.11842552577	2873.25
3146.11050548036	2912.5
3148.10205100875	2883.75
3150.09306235557	2896
3152.08353976515	2878.5
3154.07348348158	2843.5
3156.06289374869	2901.5
3158.05177081006	2867
3160.04011490899	2889.5
3162.02792628852	2901
3164.01520519145	2885.5
3166.00195186029	2894.75
3167.98816653728	2912.25
3169.97384946442	2902.25
3171.95900088344	2886.5
3173.94362103577	2900.5
3175.92771016259	2927.75
3177.91126850484	2913.75
3179.89429630312	2905.75
3181.87679379782	2889
3183.85876122903	2917
3185.84019883657	2900.75
3187.82110685997	2906
3189.80148553851	2914.75
3191.78133511116	2895.25
3193.76065581664	2922.5
3195.73944789337	2933
3197.7177115795	2926.75
3199.6954471129	2924.25
3201.67265473114	2929.5
3203.64933467153	2912.5
3205.62548717107	2939.5
3207.60111246648	2953.25
3209.57621079421	2955
3211.55078239041	2934.75
3213.52482749093	2936.5
3215.49834633133	2930.75
3217.4713391469	2967.75
3219.44380617262	2949.75
3221.41574764317	2948
3223.38716379296	2934.75
3225.35805485607	2947.25
3227.32842106631	2968.5
3229.29826265718	2954.75
3231.26757986187	2971.25
3233.2363729133	2959
3235.20464204405	2971
3237.17238748643	2965.75
3239.13960947243	2969.75
3241.10630823374	2930.25
3243.07248400174	2985.25
3245.03813700748	2997.5
3247.00326748177	2969.25
3248.96787565503	3000.25
3250.93196175742	2994
3252.89552601877	3001.25
3254.8585686686	2974
3256.82108993612	3013
3258.78309005022	2986.5
3260.74456923948	2980
3262.70552773215	3014.25
3264.66596575617	3004.75
3266.62588353916	3024.5
3268.58528130843	2996.25
3270.54415929094	2990
3272.50251771336	2998.5
3274.46035680201	3005.25
3276.4176767829	3022
3278.37447788171	3004
3280.33076032379	3011.75
3282.28652433416	3031.5
3284.24177013751	3009
3286.1964979582	3019.5
3288.15070802027	3046.5
3290.10440054741	2992
3292.05757576298	2980.25
3294.01023389001	3004.5
3295.96237515119	3024
3297.91399976887	3016
3299.86510796506	2999.75
3301.81569996142	3044
3303.76577597932	3025
3305.7153362397	3038.5
3307.66438096324	3020.5
3309.61291037024	2988
3311.56092468064	2977.75
3313.50842411404	2983.75
3315.45540888971	3009.5
3317.40187922656	3034.75
3319.34783534315	3007
3321.29327745768	2981.5
3323.23820578801	2969.25
3325.18262055164	2962
3327.1265219657	2971.75
3329.06991024699	2989.25
3331.01278561194	2986.25
3332.95514827662	2994.25
3334.89699845674	2996.75
3336.83833636766	3018.25
3338.77916222434	3000.25
3340.71947624143	2979.25
3342.65927863317	2992.5
3344.59856961346	2992.25
3346.53734939584	3023
3348.47561819344	2990.75
3350.41337621906	2986.75
3352.35062368513	2992.75
3354.28736080368	2986.25
3356.22358778637	2963.75
3358.15930484452	2993.25
3360.09451218904	3023.75
3362.02921003047	3015
3363.96339857898	3035.75
3365.89707804436	2999.5
3367.83024863602	3008.75
3369.76291056299	3001.5
3371.69506403389	2999
3373.62670925699	3007.75
3375.55784644016	3025.5
3377.4884757909	3031.5
3379.41859751629	3017.75
3381.34821182305	3018.75
3383.27731891749	2996
3385.20591900555	3027.25
3387.13401229276	3032.75
3389.06159898426	3022.25
3390.9886792848	3059.25
3392.91525339872	3030
3394.84132152998	3028.25
3396.76688388213	3035
3398.69194065833	3054.75
3400.61649206133	3079.75
3402.54053829348	3062.75
3404.46407955672	3028
3406.3871160526	3040.75
3408.30964798225	3066.5
3410.23167554639	3064.5
3412.15319894535	3056
3414.07421837904	3029.25
3415.99473404695	3037.5
3417.91474614817	3078.5
3419.83425488136	3041.5
3421.75326044479	3062
3423.67176303631	3051.75
3425.58976285332	3073
3427.50726009282	3054.25
3429.42425495143	3063.75
3431.34074762528	3061.5
3433.25673831012	3040
3435.17222720127	3055.75
3437.08721449362	3061.25
3439.00170038164	3031
3440.91568505936	3046.25
3442.82916872039	3014
3444.74215155791	3022.5
3446.65463376468	3044.25
3448.566615533	3035.5
3450.47809705476	3032
3452.3890785214	3000.5
3454.29956012393	3061.25
3456.20954205293	3045
3458.11902449853	3002
3460.02800765041	3056.25
3461.93649169784	3049
3463.84447682962	3044.75
3465.75196323412	3012.75
3467.65895109925	3005.5
3469.56544061249	2997.25
3471.47143196086	3008
3473.37692533093	3022
3475.28192090884	3011
3477.18641888026	3034
3479.09041943039	3015.75
3480.99392274402	3010
3482.89692900545	3012
3484.79943839853	3015.25
3486.70145110666	3014.25
3488.60296731277	3002.5
3490.50398719933	3025
3492.40451094836	2955.25
3494.30453874141	2992.25
3496.20407075956	3000.25
3498.10310718342	3036.75
3500.00164819315	2987