201.866871357051	694.75
204.754250281454	699.75
207.640596790938	701.25
210.525911876299	692.25
213.410196525689	698
216.293451724508	699.5
219.175678455485	700
222.056877698662	701
224.937050431388	699.25
227.816197628363	707.5
230.694320261602	703.5
233.571419300504	697.25
236.447495711764	706.5
239.322550459507	703.5
242.196584505182	709
245.069598807626	704
247.941594323078	707.25
250.812572005154	708.75
253.682532804884	697.5
256.551477670699	707.25
259.419407548456	717.25
262.286323381439	713.25
265.152226110364	710
268.017116673389	716
270.880996006115	700.75
273.743865041622	709
276.605724710436	720.25
279.466575940562	716
282.326419657496	716.75
285.1852567842	721.25
288.043088241157	722.25
290.899914946349	719.25
293.75573781526	709.75
296.610557760898	725.5
299.464375693817	711
302.317192522078	723.75
305.169009151297	718.75
308.019826484655	714.25
310.86964542287	713
313.718466864233	715.25
316.566291704614	718.25
319.413120837457	716
322.258955153804	712.25
325.103795542291	714.25
327.947642889128	708.75
330.79049807819	719.5
333.632361990927	712.5
336.473235506444	710.75
339.31311950145	715.75
342.152014850322	724.75
344.989922425062	729.75
347.826843095354	722.25
350.662777728528	724
353.497727189577	729.75
356.331692341195	733.25
359.164674043732	732.75
361.996673155267	729
364.827690531536	727.5
367.65772702602	725.25
370.486783489887	724.75
373.314860772047	724.25
376.14195971912	729.5
378.968081175466	732.75
381.793225983212	731
384.617394982201	720.5
387.44058901005	736
390.262808902131	724.5
393.08405549161	730.5
395.904329609395	728.25
398.723632084213	736.25
401.541963742569	735.5
404.359325408779	726.5
407.175717904938	733
409.991142050982	736.5
412.805598664665	731.25
415.619088561551	737.5
418.43161255505	745
421.243171456415	735.75
424.053766074758	741.25
426.863397217017	728.75
429.672065688024	734.25
432.479772290455	727
435.286517824879	740.75
438.092303089736	735.75
440.897128881359	739.75
443.70099599399	738.25
446.503905219761	746.25
449.305857348711	743.25
452.106853168796	741.25
454.906893465919	728.5
457.705979023885	743.25
460.504110624439	739.75
463.3012890473	738
466.097515070087	737
468.892789468424	745.75
471.687113015869	741.5
474.48048648395	752.5
477.272910642198	732
480.064386258109	735
482.854914097159	739
485.644494922839	739.5
488.433129496636	746.25
491.220818578047	749.25
494.007562924584	738.75
496.793363291785	746.25
499.578220433217	746.75
502.362135100473	752
505.145108043209	750.75
507.927140009098	742.75
510.708231743909	758
513.488383991433	754
516.267597493556	750.5
519.04587299022	755.75
521.82321121946	745.75
524.599612917398	746.75
527.375078818233	746
530.149609654287	748
532.923206155967	762.25
535.695869051804	744
538.467599068448	745
541.238396930665	750.75
544.008263361364	740.75
546.777199081578	752.5
549.545204810493	737.25
552.312281265436	736.5
555.078429161898	752.25
557.843649213533	745.5
560.607942132156	749.75
563.371308627753	756
566.133749408495	751.75
568.895265180756	756
571.655856649064	762.5
574.415524516189	763.25
577.174269483075	756.5
579.932092248884	752.25
582.688993510994	760.25
585.444973965023	757
588.200034304795	759
590.95417522237	755.75
593.70739740807	762.25
596.459701550433	756
599.21108833628	752.5
601.961558450668	758
604.711112576933	754.75
607.459751396673	756.5
610.207475589748	752.5
612.954285834338	749.25
615.700182806879	744.25
618.445167182101	749.25
621.189239633055	750.5
623.932400831087	760
626.674651445839	752.5
629.415992145303	753
632.156423595745	744.75
634.895946461813	745.5
637.634561406449	754.75
640.37226909096	763.75
643.109070174978	749.75
645.844965316508	762.5
648.579955171888	763.75
651.314040395846	759.25
654.047221641456	760.5
656.779499560176	756.75
659.510874801828	764.75
662.241348014642	762.5
664.97091984524	759.5
667.699590938606	754
670.427361938164	755
673.15423348573	756.25
675.880206221526	764.5
678.605280784206	757.75
681.329457810829	764.5
684.05273793692	769.5
686.775121796389	758.5
689.49661002163	770.5
692.217203243454	761
694.936902091144	756.25
697.655707192425	758.5
700.373619173493	760
703.09063865901	768
705.806766272093	757
708.522002634378	762.5
711.236348365946	752.5
713.94980408538	765.75
716.662370409762	769.25
719.374047954676	760
722.08483733419	757
724.794739160909	770.75
727.503754045949	771.75
730.21188259892	761.25
732.919125427998	766.75
735.625483139855	758.75
738.330956339723	768
741.035545631374	771.25
743.739251617106	770.25
746.44207489779	761.25
749.144016072852	768.5
751.845075740272	766.5
754.545254496603	766.5
757.244552936976	765.5
759.94297165508	770.75
762.640511243222	759.5
765.337172292249	773.75
768.032955391649	773.25
770.727861129482	766.25
773.421890092413	766.75
776.11504286572	768.75
778.807320033298	762.75
781.49872217765	768.75
784.18924987991	770.75
786.87890371984	777.25
789.567684275826	768
792.255592124908	771.5
794.94262784276	769.75
797.628792003703	770.5
800.314085180715	767
802.998507945427	762.75
805.682060868145	773
808.364744517821	773.25
811.046559462105	765.75
813.727506267311	785.25
816.407585498422	777.25
819.08679771913	772
821.765143491822	779.25
824.442623377563	773.75
827.119237936127	770.25
829.794987726003	768
832.469873304377	777
835.143895227167	760.5
837.817054048985	770.25
840.489350323205	772.5
843.160784601892	773
845.831357435894	777
848.501069374739	772
851.169920966753	761.25
853.837912758987	779.5
856.505045297232	783.75
859.171319126071	775
861.836734788823	779.25
864.501292827579	779
867.164993783208	777.5
869.827838195361	767.25
872.489826602454	772.25
875.150959541701	769
877.811237549104	778.5
880.470661159456	773.25
883.129230906357	776.25
885.786947322205	769
888.443810938206	776.25
891.099822284385	769.75
893.754981889586	777
896.409290281452	777.25
899.062747986485	776.25
901.715355529999	786.5
904.367113436154	768.5
907.01802222793	776.25
909.668082427172	774
912.317294554574	784.5
914.965659129659	789
917.613176670835	782.75
920.259847695364	782.5
922.90567271936	778.5
925.550652257825	783.25
928.194786824621	776
930.838076932512	785.75
933.480523093109	781.75
936.122125816953	780
938.762885613447	780.25
941.402802990899	778.75
944.041878456523	793.25
946.680112516428	777.5
949.31750567563	782.25
951.954058438081	791
954.589771306633	781.75
957.224644783048	787.75
959.858679368044	804
962.491875561238	781.25
965.12423386121	778.25
967.75575476545	785.75
970.386438770423	785.5
973.016286371501	790.5
975.645298063046	788.75
978.273474338355	779.25
980.900815689674	789.25
983.527322608243	789.75
986.152995584245	790.25
988.777835106834	788
991.401841664148	791.75
994.025015743307	778.25
996.647357830407	789.5
999.268868410534	791.25
1001.88954796777	785
1004.50939698518	786.5
1007.12841594484	785.25
1009.74660532783	794.25
1012.36396561423	797.5
1014.98049728314	788.25
1017.59620081267	786
1020.21107667995	795
1022.82512536112	788.5
1025.43834733138	793.25
1028.05074306493	796.25
1030.66231303501	792.5
1033.27305771392	798.25
1035.88297757299	797.75
1038.49207308257	791.75
1041.10034471211	795.75
1043.70779293008	796
1046.31441820402	799
1048.92022100052	790.75
1051.52520178525	807
1054.12936102295	806.25
1056.73269917742	815.25
1059.33521671154	803.5
1061.93691408729	800.75
1064.53779176571	796.5
1067.13785020694	816.25
1069.73708987022	794.5
1072.33551121386	794
1074.93311469528	805
1077.52990077103	797.75
1080.12586989674	799.25
1082.72102252714	798.5
1085.31535911611	809.5
1087.90888011663	804.75
1090.50158598078	795
1093.09347715979	802.5
1095.68455410403	807
1098.27481726296	797.25
1100.86426708523	812.5
1103.45290401857	798.25
1106.04072850991	814
1108.6277410053	804.75
1111.21394194993	800.5
1113.79933178816	812.25
1116.3839109635	808.75
1118.96767991862	810
1121.55063909539	817
1124.13278893477	824.75
1126.71412987696	821
1129.29466236132	806.5
1131.87438682637	824.25
1134.45330370982	813.75
1137.03141344858	809.75
1139.60871647872	812.75
1142.18521323554	803.75
1144.7609041535	820.25
1147.33578966629	814.25
1149.90987020676	828.5
1152.48314620702	818
1155.05561809835	813
1157.62728631125	817
1160.19815127545	825
1162.76821341988	815.5
1165.33747317271	812.75
1167.90593096133	809
1170.47358721235	820
1173.04044235163	804.5
1175.60649680425	814
1178.17175099454	809.75
1180.73620534607	824
1183.29986028165	817.25
1185.86271622336	819.75
1188.42477359249	809.75
1190.98603280964	806.5
1193.54649429462	809.25
1196.10615846653	814.25
1198.66502574372	817.75
1201.22309654385	814.25
1203.78037128378	802.75
1206.33685037971	818.75
1208.89253424709	810.75
1211.44742330063	813.75
1214.00151795438	819.5
1216.55481862163	811.75
1219.10732571497	810.5
1221.65903964631	821.25
1224.20996082683	812.5
1226.760089667	830.25
1229.30942657664	816
1231.85797196483	825.5
1234.40572623998	811.25
1236.95268980981	814
1239.49886308136	825
1242.04424646098	817
1244.58884035435	837.5
1247.13264516647	822.75
1249.67566130166	816.75
1252.21788916358	814
1254.75932915524	822.5
1257.29998167896	832.25
1259.83984713639	824.25
1262.37892592857	820.5
1264.91721845586	825.75
1267.45472511795	837.75
1269.9914463139	831.5
1272.52738244213	830.75
1275.0625339004	826.25
1277.59690108587	835.75
1280.130484395	825
1282.66328422367	836
1285.19530096712	837.5
1287.72653501993	830.25
1290.25698677608	839.5
1292.78665662894	845.25
1295.31554497125	847
1297.8436521951	841.25
1300.37097869203	837.75
1302.89752485292	839.75
1305.42329106805	835.25
1307.94827772713	837.75
1310.47248521921	834
1312.99591393279	839.75
1315.51856425575	847.5
1318.04043657536	836.5
1320.56153127836	842.25
1323.08184875083	842.75
1325.6013893783	841.75
1328.12015354572	845.5
1330.63814163744	847.75
1333.15535403727	845
1335.67179112839	854
1338.18745329347	836.25
1340.70234091454	846.75
1343.21645437314	853.75
1345.72979405019	846.25
1348.24236032607	847.75
1350.75415358059	860.5
1353.26517419303	848.75
1355.7754225421	862.25
1358.28489900594	861
1360.79360396218	858.25
1363.30153778787	858.75
1365.80870085955	858
1368.31509355319	868.75
1370.82071624424	851
1373.32556930762	857.5
1375.8296531177	856.5
1378.33296804832	854
1380.83551447282	857.25
1383.33729276399	874.5
1385.83830329408	854.75
1388.33854643489	856.5
1390.83802255762	853.25
1393.33673203301	852
1395.83467523128	852
1398.33185252211	847
1400.82826427471	858.5
1403.32391085777	844.75
1405.81879263947	859.75
1408.31290998752	861.25
1410.80626326908	859
1413.29885285087	856.75
1415.79067909909	867.5
1418.28174237944	862.5
1420.77204305717	861.75
1423.26158149702	867.5
1425.75035806323	874.25
1428.2383731196	868.25
1430.72562702942	877
1433.21212015554	867.25
1435.69785286028	880.25
1438.18282550555	887.75
1440.66703845275	882
1443.15049206284	884
1445.6331866963	887
1448.11512271316	882.5
1450.59630047298	876.25
1453.07672033486	886.75
1455.55638265748	877
1458.03528779902	886.25
1460.51343611725	891
1462.99082796946	900.25
1465.46746371252	895
1467.94334370285	888.75
1470.41846829642	890.75
1472.89283784878	881.75
1475.36645271503	899.5
1477.83931324983	890.25
1480.31141980743	884.25
1482.78277274164	882.75
1485.25337240583	886.75
1487.72321915297	890.25
1490.19231333557	886
1492.66065530578	891.25
1495.12824541525	886
1497.5950840153	899.5
1500.06117145678	894.25
1502.52650809014	888
1504.99109426543	887.25
1507.45493033227	892.5
1509.91801663992	899
1512.38035353717	905.5
1514.84194137248	894
1517.30278049386	897.5
1519.76287124894	891
1522.22221398497	895.5
1524.68080904876	899.75
1527.13865678681	892.5
1529.59575754514	911.5
1532.05211166945	901.75
1534.50771950503	907
1536.96258139678	917.5
1539.41669768924	912.75
1541.87006872656	914.5
1544.32269485252	910.5
1546.77457641051	923.75
1549.22571374357	926.5
1551.67610719434	929.5
1554.12575710513	916.75
1556.57466381785	926.25
1559.02282767408	926
1561.47024901499	934.5
1563.91692818144	933.5
1566.3628655139	933
1568.80806135249	935
1571.252516037	936.75
1573.6962299068	949.75
1576.13920330099	933.75
1578.58143655828	938
1581.02293001704	946.75
1583.46368401528	948.75
1585.90369889071	940.5
1588.34297498065	952.25
1590.7815126221	951
1593.21931215173	955.25
1595.65637390588	955.25
1598.09269822053	947.25
1600.52828543135	952.25
1602.96313587367	957.25
1605.3972498825	965.5
1607.83062779252	949.5
1610.26326993808	947.75
1612.69517665322	959.25
1615.12634827165	955.25
1617.55678512676	960.5
1619.98648755163	961
1622.41545587902	963.75
1624.84369044138	964.25
1627.27119157085	959
1629.69795959924	961
1632.12399485808	956.5
1634.54929767859	966
1636.97386839165	977.5
1639.39770732789	959.25
1641.8208148176	971.5
1644.24319119078	977.25
1646.66483677715	978.25
1649.0857519061	987
1651.50593690677	984.25
1653.92539210795	988.5
1656.3441178382	991.75
1658.76211442575	991
1661.17938219855	991.25
1663.59592148428	995.25
1666.01173261032	1007.75
1668.42681590377	994.5
1670.84117169145	997.25
1673.25480029991	1012.5
1675.66770205541	1017.75
1678.07987728393	1023
1680.49132631119	1012.75
1682.90204946263	1019.25
1685.31204706342	1023
1687.72131943846	1025.75
1690.1298669124	1014.5
1692.53768980957	1046
1694.94478845411	1038.75
1697.35116316982	1037.5
1699.75681428031	1039.75
1702.16174210887	1041.25
1704.56594697858	1051.25
1706.96942921222	1055
1709.37218913235	1051.5
1711.77422706125	1046.5
1714.17554332098	1053.75
1716.5761382333	1057.75
1718.97601211977	1046.5
1721.37516530169	1059
1723.77359810006	1060
1726.17131083572	1065
1728.56830382922	1076
1730.96457740087	1082
1733.36013187075	1068.5
1735.75496755868	1080
1738.14908478428	1088.25
1740.54248386689	1082.25
1742.93516512565	1076.5
1745.32712887946	1092
1747.71837544697	1097.25
1750.10890514662	1094
1752.49871829661	1095
1754.88781521492	1117.25
1757.27619621929	1105.5
1759.66386162726	1099
1762.05081175612	1115.75
1764.43704692297	1126.25
1766.82256744465	1121
1769.20737363782	1121.75
1771.59146581887	1115.75
1773.97484430405	1127.75
1776.35750940932	1131.5
1778.73946145048	1135.25
1781.12070074309	1153.25
1783.50122760249	1139
1785.88104234385	1151.25
1788.26014528209	1154.5
1790.63853673196	1168.5
1793.01621700796	1162.75
1795.39318642443	1191
1797.76944529549	1178
1800.14499393503	1173.75
1802.51983265681	1178
1804.8939617743	1182.25
1807.26738160085	1194.75
1809.64009244957	1196.25
1812.01209463339	1189.5
1814.38338846504	1214.5
1816.75397425706	1205.75
1819.12385232181	1205.5
1821.49302297142	1222.75
1823.86148651789	1220.75
1826.22924327299	1218.5
1828.59629354831	1226.75
1830.96263765526	1238.25
1833.32827590507	1231.5
1835.69320860877	1242
1838.05743607724	1246.75
1840.42095862113	1229.5
1842.78377655097	1241.5
1845.14589017707	1257.25
1847.50729980956	1241.5
1849.86800575843	1257
1852.22800833346	1275.75
1854.58730784427	1249
1856.94590460032	1289.75
1859.30379891087	1299.5
1861.66099108503	1286.25
1864.01748143175	1294.25
1866.37327025978	1271.75
1868.72835787773	1295.75
1871.08274459403	1301.25
1873.43643071697	1307
1875.78941655464	1322.25
1878.14170241498	1313
1880.4932886058	1325.75
1882.84417543469	1343.75
1885.19436320915	1346.5
1887.54385223646	1353.75
1889.89264282378	1352.25
1892.24073527809	1361.75
1894.58812990625	1362.5
1896.93482701493	1385.75
1899.28082691067	1384
1901.62612989984	1393
1903.97073628868	1407.5
1906.31464638326	1404.75
1908.6578604895	1414
1911.00037891321	1431.75
1913.34220196	1443.25
1915.68332993537	1434.25
1918.02376314468	1449
1920.36350189311	1434.25
1922.70254648573	1429.75
1925.04089722744	1461.75
1927.37855442303	1459.25
1929.71551837715	1461.75
1932.05178939426	1461
1934.38736777876	1467.75
1936.72225383484	1490.25
1939.0564478666	1487.5
1941.38995017799	1478.5
1943.72276107283	1494.5
1946.05488085479	1491
1948.38630982744	1511.25
1950.71704829419	1501.25
1953.04709655832	1517.75
1955.376454923	1518
1957.70512369126	1540
1960.03310316599	1540.5
1962.36039364999	1539.5
1964.68699544589	1531.5
1967.01290885622	1534.25
1969.33813418338	1567.75
1971.66267172965	1577.5
1973.98652179718	1586.75
1976.309684688	1571.25
1978.63216070402	1600.75
1980.95395014705	1616.75
1983.27505331873	1606.75
1985.59547052063	1611.25
1987.9152020542	1624.5
1990.23424822074	1641.5
1992.55260932146	1643
1994.87028565746	1622.5
1997.18727752968	1660.25
1999.503585239	1662.75
2001.81920908618	1691.25
2004.13414937184	1685
2006.44840639651	1715
2008.7619804606	1732
2011.07487186442	1760.25
2013.38708090815	1766.25
2015.6986078919	1765.75
2018.00945311564	1773.5
2020.31961687923	1790.25
2022.62909948246	1805.5
2024.93790122498	1805.25
2027.24602240636	1828.5
2029.55346332604	1859.75
2031.86022428337	1866.75
2034.16630557761	1898.25
2036.47170750791	1877
2038.77643037331	1890.5
2041.08047447275	1908.5
2043.38384010509	1893
2045.68652756907	1924.75
2047.98853716335	1960.75
2050.28986918648	1925.25
2052.59052393692	1940.5
2054.89050171302	1955.75
2057.18980281306	1976
2059.4884275352	1963.75
2061.78637617753	1991.5
2064.08364903802	2007.75
2066.38024641457	1987.25
2068.67616860497	1999.25
2070.97141590694	2002
2073.26598861809	2042.25
2075.55988703595	2049
2077.85311145796	2062.75
2080.14566218145	2040.75
2082.43753950371	2073.75
2084.72874372188	2076
2087.01927513307	2085.25
2089.30913403428	2106.25
2091.59832072241	2100.5
2093.88683549429	2095.75
2096.17467864666	2130.25
2098.46185047619	2151.5
2100.74835127944	2138.75
2103.03418135292	2168
2105.31934099303	2135.5
2107.6038304961	2179.25
2109.88765015838	2157.75
2112.17080027602	2199.75
2114.45328114513	2199
2116.7350930617	2200.5
2119.01623632165	2178.5
2121.29671122085	2176
2123.57651805505	2209.5
2125.85565711996	2239.25
2128.13412871117	2237.25
2130.41193312424	2246.5
2132.68907065462	2246.5
2134.96554159771	2245.5
2137.24134624881	2250.75
2139.51648490317	2275
2141.79095785593	2310
2144.0647654022	2281.75
2146.33790783698	2296.75
2148.61038545524	2279
2150.88219855182	2313
2153.15334742154	2317.75
2155.42383235911	2333.75
2157.6936536592	2337.5
2159.9628116164	2329.25
2162.23130652522	2345.75
2164.49913868011	2341.5
2166.76630837544	2318.75
2169.03281590552	2314.25
2171.2986615646	2342
2173.56384564685	2353.5
2175.82836844637	2331
2178.0922302572	2367.75
2180.35543137332	2342.25
2182.61797208862	2354.5
2184.87985269695	2324.5
2187.14107349208	2316.75
2189.40163476773	2331.75
2191.66153681753	2330.5
2193.92077993507	2326.5
2196.17936441386	2316
2198.43729054735	2307.5
2200.69455862894	2307.5
2202.95116895194	2298.75
2205.20712180962	2295.5
2207.46241749519	2304.25
2209.71705630179	2299.25
2211.97103852248	2297.25
2214.2243644503	2289.5
2216.47703437819	2305.25
2218.72904859905	2241.25
2220.98040740571	2289.5
2223.23111109095	2270.5
2225.4811599475	2238.75
2227.73055426799	2297.75
2229.97929434504	2245.5
2232.22738047118	2251.5
2234.47481293889	2262.5
2236.72159204058	2244.5
2238.96771806864	2250.25
2241.21319131536	2190.75
2243.458012073	2210.75
2245.70218063374	2227.5
2247.94569728973	2213.25
2250.18856233304	2189.25
2252.4307760557	2197
2254.67233874967	2193.5
2256.91325070687	2177.75
2259.15351221915	2155.25
2261.39312357831	2158.25
2263.63208507611	2166.25
2265.87039700422	2147.75
2268.1080596543	2162.75
2270.34507331792	2147.25
2272.5814382866	2123.25
2274.81715485183	2149.5
2277.05222330502	2109
2279.28664393755	2111.5
2281.52041704072	2094
2283.75354290581	2123.25
2285.98602182401	2078.75
2288.21785408648	2097
2290.44903998434	2087.5
2292.67957980862	2069.25
2294.90947385033	2089.5
2297.1387224004	2093.5
2299.36732574975	2074
2301.59528418921	2059
2303.82259800958	2070.5
2306.04926750158	2050.25
2308.27529295593	2038.5
2310.50067466325	2032.75
2312.72541291412	2013
2314.9495079991	2020.75
2317.17296020866	1996
2319.39576983323	2005
2321.61793716322	2009.5
2323.83946248894	1994
2326.06034610069	1972
2328.28058828871	1977
2330.50018934317	1985
2332.7191495542	1929.75
2334.93746921192	1953.75
2337.15514860633	1949.25
2339.37218802743	1947.75
2341.58858776516	1935
2343.80434810941	1944
2346.01946935001	1924.25
2348.23395177675	1926.75
2350.44779567939	1930.5
2352.66100134759	1911
2354.87356907101	1894.5
2357.08549913925	1890
2359.29679184185	1874.25
2361.50744746829	1889.5
2363.71746630804	1869.5
2365.92684865048	1855.25
2368.13559478499	1850
2370.34370500083	1848.5
2372.55117958727	1863
2374.75801883352	1829.25
2376.96422302874	1859.25
2379.16979246202	1843.75
2381.37472742243	1840.25
2383.57902819898	1844.5
2385.78269508063	1831.25
2387.98572835629	1814.25
2390.18812831482	1810
2392.38989524505	1801.75
2394.59102943573	1815.5
2396.79153117559	1810.75
2398.9914007533	1779.5
2401.19063845748	1773
2403.38924457672	1776.25
2405.58721939951	1782.75
2407.78456321435	1767.75
2409.98127630966	1760
2412.17735897382	1749.75
2414.37281149517	1752
2416.56763416198	1761.25
2418.76182726249	1779
2420.95539108487	1749.25
2423.14832591726	1752
2425.34063204776	1746.5
2427.53230976439	1724
2429.72335935513	1744.5
2431.91378110795	1738
2434.10357531071	1736.25
2436.29274225125	1725
2438.48128221739	1698
2440.66919549683	1715
2442.8564823773	1729
2445.04314314641	1725.75
2447.22917809176	1712.25
2449.4145875009	1710.25
2451.59937166131	1707.75
2453.78353086044	1704.5
2455.96706538568	1676
2458.14997552436	1683.25
2460.33226156379	1678
2462.51392379119	1697.25
2464.69496249376	1673
2466.87537795862	1669.25
2469.05517047288	1676.25
2471.23434032357	1648
2473.41288779767	1653.25
2475.59081318211	1662
2477.76811676378	1649
2479.9447988295	1637.75
2482.12085966605	1633.25
2484.29629956016	1642.75
2486.4711187985	1627
2488.64531766769	1636.5
2490.8188964543	1625.5
2492.99185544484	1641.5
2495.16419492579	1605.25
2497.33591518353	1621.75
2499.50701650444	1597.25
2501.67749917482	1607
2503.84736348091	1608.5
2506.01660970891	1611
2508.18523814496	1609.75
2510.35324907514	1601.75
2512.52064278551	1622
2514.68741956201	1601
2516.85357969058	1607.75
2519.01912345709	1614
2521.18405114735	1605.75
2523.34836304711	1599
2525.51205944208	1580.5
2527.6751406179	1584.75
2529.83760686016	1596.75
2531.99945845439	1608.5
2534.16069568606	1596
2536.3213188406	1581.5
2538.48132820336	1570.75
2540.64072405965	1558.75
2542.79950669471	1553.25
2544.95767639373	1577.5
2547.11523344184	1593.5
2549.27217812411	1583.75
2551.42851072555	1578.25
2553.58423153111	1565.75
2555.73934082569	1547.5
2557.89383889412	1547.75
2560.04772602118	1541.25
2562.20100249158	1553
2564.35366858996	1523.25
2566.50572460093	1532
2568.65717080901	1522.5
2570.80800749867	1541.75
2572.95823495433	1535.75
2575.10785346031	1522
2577.25686330093	1524.25
2579.40526476038	1514
2581.55305812282	1498.25
2583.70024367237	1495.5
2585.84682169303	1496.5
2587.99279246879	1494.5
2590.13815628354	1488.75
2592.28291342112	1477
2594.42706416531	1475.25
2596.5706087998	1487.75
2598.71354760826	1467
2600.85588087425	1486.75
2602.99760888127	1480.5
2605.13873191278	1481
2607.27925025214	1462.25
2609.41916418269	1469.75
2611.55847398764	1480.5
2613.69717995017	1473
2615.83528235339	1462.5
2617.97278148034	1471
2620.10967761398	1453.25
2622.2459710372	1480.25
2624.38166203284	1464.25
2626.51675088365	1457
2628.65123787231	1461
2630.78512328145	1442.25
2632.9184073936	1451.5
2635.05109049124	1460.5
2637.18317285676	1460.25
2639.31465477248	1458
2641.44553652067	1449.25
2643.5758183835	1449
2645.70550064309	1446.5
2647.83458358144	1436.5
2649.96306748053	1466.25
2652.09095262223	1456
2654.21823928836	1441
2656.34492776063	1440.5
2658.47101832071	1427.25
2660.59651125015	1439.5
2662.72140683047	1432.25
2664.84570534309	1414.75
2666.96940706934	1421.5
2669.0925122905	1434.25
2671.21502128773	1430
2673.33693434215	1424.75
2675.45825173479	1436
2677.57897374658	1434
2679.69910065839	1417.75
2681.818632751	1416.5
2683.93757030511	1434.5
2686.05591360133	1390
2688.17366292021	1412.75
2690.29081854218	1419.75
2692.40738074762	1425
2694.52334981681	1402
2696.63872602995	1400.5
2698.75350966713	1411.75
2700.86770100841	1396.75
2702.98130033371	1423.25
2705.09430792289	1406.25
2707.20672405571	1406.75
2709.31854901185	1424.5
2711.42978307091	1413.5
2713.54042651238	1394.25
2715.65047961567	1402.75
2717.7599426601	1376.75
2719.86881592491	1389.75
2721.97709968924	1416.5
2724.08479423213	1396
2726.19189983255	1382.25
2728.29841676934	1375
2730.4043453213	1386.5
2732.5096857671	1411.75
2734.61443838532	1381.25
2736.71860345444	1372.25
2738.82218125286	1383.5
2740.92517205889	1386.5
2743.02757615072	1370.25
2745.12939380646	1379.75
2747.23062530411	1388
2749.33127092159	1366
2751.4313309367	1368.75
2753.53080562716	1372.5
2755.62969527058	1373.5
2757.72800014448	1378
2759.82572052625	1369.75
2761.92285669323	1382.25
2764.0194089226	1380.25
2766.11537749147	1368.5
2768.21076267686	1348
2770.30556475566	1369.25
2772.39978400465	1364.5
2774.49342070054	1349.25
2776.58647511991	1380.25
2778.67894753923	1357.25
2780.77083823487	1360.5
2782.8621474831	1366.5
2784.95287556007	1348.25
2787.04302274184	1347
2789.13258930433	1345
2791.22157552338	1344
2793.30998167471	1345.75
2795.39780803392	1344
2797.4850548765	1344.25
2799.57172247786	1353.75
2801.65781111324	1341.25
2803.74332105781	1347.25
2805.82825258661	1338.5
2807.91260597457	1340.25
2809.9963814965	1332.5
2812.07957942711	1336.25
2814.16220004096	1344
2816.24424361252	1333.75
2818.32571041614	1330
2820.40660072604	1306.75
2822.48691481631	1331.75
2824.56665296098	1325
2826.64581543388	1323
2828.72440250876	1336.75
2830.80241445925	1338.25
2832.87985155885	1347.25
2834.95671408093	1357.25
2837.03300229875	1357.75
2839.10871648544	1378.25
2841.18385691399	1387
2843.25842385729	1422
2845.33241758808	1399.5
2847.40583837898	1436.25
2849.4786865025	1420.25
2851.550962231	1414.5
2853.6226658367	1424.75
2855.69379759173	1410.25
2857.76435776806	1390.75
2859.83434663753	1375
2861.90376447184	1375
2863.97261154259	1384.25
2866.0408881212	1374.5
2868.10859447901	1358.75
2870.17573088717	1368.5
2872.24229761673	1372
2874.30829493859	1383.25
2876.37372312352	1402.5
2878.43858244215	1424.25
2880.50287316496	1434.75
2882.56659556231	1423.5
2884.62974990439	1401.25
2886.69233646129	1378.75
2888.75435550293	1381
2890.81580729909	1387
2892.87669211941	1370.75
2894.93701023339	1368.5
2896.99676191039	1364.5
2899.05594741961	1356.25
2901.1145670301	1361.25
2903.1726210108	1366.25
2905.23010963045	1361.75
2907.28703315768	1363
2909.34339186096	1351.25
2911.39918600861	1362
2913.45441586879	1334.5
2915.50908170952	1347.25
2917.56318379867	1335.75
2919.61672240395	1350.75
2921.66969779291	1330.75
2923.72211023295	1332
2925.77395999134	1342.75
2927.82524733515	1344
2929.87597253132	1335
2931.92613584663	1338.5
2933.97573754769	1331.25
2936.02477790097	1315.25
2938.07325717276	1323
2940.1211756292	1302.5
2942.16853353626	1304
2944.21533115976	1292.25
2946.26156876536	1294.75
2948.30724661853	1307.75
2950.3523649846	1301.75
2952.39692412872	1281.25
2954.44092431587	1286
2956.48436581089	1297.25
2958.52724887843	1294.5
2960.56957378296	1304.25
2962.6113407888	1300.25
2964.65255016011	1304.5
2966.69320216083	1297.25
2968.73329705479	1278.5
2970.77283510559	1280.25
2972.81181657671	1282.25
2974.8502417314	1287.5
2976.88811083279	1297.75
2978.92542414378	1302.25
2980.96218192713	1308.75
2982.99838444541	1301
2985.034031961	1293.5
2987.06912473612	1299.25
2989.1036630328	1297
2991.13764711288	1295.25
2993.17107723804	1290.5
2995.20395366974	1290.25
2997.23627666931	1306.75
2999.26804649782	1319
3001.29926341624	1312.5
3003.32992768528	1300
3005.3600395655	1306
3007.38959931726	1302
3009.41860720076	1309.75
3011.44706347595	1311.25
3013.47496840263	1302.5
3015.50232224041	1329
3017.5291252487	1314.75
3019.5553776867	1310.5
3021.58107981344	1317
3023.60623188773	1327.5
3025.63083416822	1312
3027.65488691331	1327.75
3029.67839038125	1332
3031.70134483007	1323.75
3033.72375051759	1328.5
3035.74560770144	1318
3037.76691663907	1326.5
3039.78767758768	1331.75
3041.80789080431	1320
3043.82755654577	1328.5
3045.84667506867	1333
3047.8652466294	1332.5
3049.88327148418	1338
3051.90074988899	1340.5
3053.91768209961	1333
3055.9340683716	1327.75
3057.94990896033	1330.75
3059.96520412095	1351
3061.97995410838	1339.75
3063.99415917734	1350.25
3066.00781958234	1325.25
3068.02093557766	1354.5
3070.03350741738	1344.75
3072.04553535535	1351.75
3074.05701964521	1348.75
3076.06796054036	1347
3078.078358294	1338.75
3080.08821315912	1333.25
3082.09752538846	1356.25
3084.10629523454	1340
3086.11452294967	1331
3088.12220878592	1347.75
3090.12935299515	1332.25
3092.13595582898	1351.5
3094.1420175388	1340.5
3096.14753837579	1347.5
3098.15251859088	1349
3100.15695843477	1352.75
3102.16085815793	1365
3104.16421801061	1357.5
3106.16703824282	1353.75
3108.16931910432	1352.25
3110.17106084464	1354.5
3112.17226371308	1362.25
3114.17292795872	1375
3116.17305383034	1357
3118.17264157657	1362
3120.17169144571	1380.75
3122.17020368587	1363.75
3124.16817854492	1360
3126.16561627044	1387.5
3128.16251710982	1376
3130.15888131017	1382.5
3132.15470911837	1388.5
3134.15000078104	1371.5
3136.14475654455	1406.5
3138.13897665502	1383.75
3140.13266135835	1398.75
3142.12581090014	1377.75
3144.11842552577	1388.75
3146.11050548036	1402.75
3148.10205100875	1396.5
3150.09306235557	1388
3152.08353976515	1394.75
3154.07348348158	1401.5
3156.06289374869	1408.25
3158.05177081006	1404.25
3160.04011490899	1417.25
3162.02792628852	1420.75
3164.01520519145	1413
3166.00195186029	1403.5
3167.98816653728	1425.5
3169.97384946442	1422.25
3171.95900088344	1420.5
3173.94362103577	1440.25
3175.92771016259	1418.75
3177.91126850484	1431.25
3179.89429630312	1422.75
3181.87679379782	1426.5
3183.85876122903	1459
3185.84019883657	1434.5
3187.82110685997	1431.5
3189.80148553851	1428.5
3191.78133511116	1448.5
3193.76065581664	1445.75
3195.73944789337	1449.75
3197.7177115795	1448.75
3199.6954471129	1436.5
3201.67265473114	1470.75
3203.64933467153	1453.5
3205.62548717107	1470.25
3207.60111246648	1475.5
3209.57621079421	1468
3211.55078239041	1467.5
3213.52482749093	1475
3215.49834633133	1481.25
3217.4713391469	1498.25
3219.44380617262	1487.5
3221.41574764317	1484.5
3223.38716379296	1477.75
3225.35805485607	1473.5
3227.32842106631	1498.5
3229.29826265718	1497.25
3231.26757986187	1492
3233.2363729133	1516
3235.20464204405	1515
3237.17238748643	1512.25
3239.13960947243	1518.5
3241.10630823374	1527.25
3243.07248400174	1520.75
3245.03813700748	1528.75
3247.00326748177	1535.75
3248.96787565503	1533.25
3250.93196175742	1546.75
3252.89552601877	1527.5
3254.8585686686	1544.5
3256.82108993612	1549
3258.78309005022	1555.25
3260.74456923948	1544.25
3262.70552773215	1553.75
3264.66596575617	1575
3266.62588353916	1556.75
3268.58528130843	1560.5
3270.54415929094	1558.25
3272.50251771336	1555.25
3274.46035680201	1556.5
3276.4176767829	1570.25
3278.37447788171	1561
3280.33076032379	1585.25
3282.28652433416	1572.25
3284.24177013751	1572
3286.1964979582	1582.25
3288.15070802027	1579.5
3290.10440054741	1581.25
3292.05757576298	1594.25
3294.01023389001	1594.25
3295.96237515119	1602.5
3297.91399976887	1603.75
3299.86510796506	1606.25
3301.81569996142	1623.5
3303.76577597932	1592.5
3305.7153362397	1594.25
3307.66438096324	1585.75
3309.61291037024	1605.5
3311.56092468064	1620
3313.50842411404	1611.25
3315.45540888971	1618.75
3317.40187922656	1633.5
3319.34783534315	1629.75
3321.29327745768	1635.5
3323.23820578801	1629.25
3325.18262055164	1651.5
3327.1265219657	1637.5
3329.06991024699	1628.5
3331.01278561194	1631.25
3332.95514827662	1644.25
3334.89699845674	1619
3336.83833636766	1664.5
3338.77916222434	1646
3340.71947624143	1638
3342.65927863317	1638
3344.59856961346	1650.75
3346.53734939584	1658.5
3348.47561819344	1651
3350.41337621906	1633.75
3352.35062368513	1652.5
3354.28736080368	1645.25
3356.22358778637	1673.5
3358.15930484452	1664.25
3360.09451218904	1673.25
3362.02921003047	1686.25
3363.96339857898	1686.25
3365.89707804436	1690
3367.83024863602	1677.5
3369.76291056299	1691.5
3371.69506403389	1682
3373.62670925699	1698.5
3375.55784644016	1684
3377.4884757909	1694
3379.41859751629	1719.75
3381.34821182305	1691.25
3383.27731891749	1706
3385.20591900555	1727.5
3387.13401229276	1723.25
3389.06159898426	1726.5
3390.9886792848	1723.5
3392.91525339872	1714.25
3394.84132152998	1732
3396.76688388213	1732.25
3398.69194065833	1736.25
3400.61649206133	1735.75
3402.54053829348	1743
3404.46407955672	1756
3406.3871160526	1754
3408.30964798225	1764
3410.23167554639	1764.25
3412.15319894535	1756
3414.07421837904	1795.75
3415.99473404695	1779.25
3417.91474614817	1766.75
3419.83425488136	1798.25
3421.75326044479	1785.25
3423.67176303631	1769.5
3425.58976285332	1782.5
3427.50726009282	1786
3429.42425495143	1812.75
3431.34074762528	1794.5
3433.25673831012	1814.25
3435.17222720127	1808.25
3437.08721449362	1810.75
3439.00170038164	1800
3440.91568505936	1803.75
3442.82916872039	1803.25
3444.74215155791	1825.5
3446.65463376468	1815.5
3448.566615533	1818.25
3450.47809705476	1817.25
3452.3890785214	1801.25
3454.29956012393	1815.75
3456.20954205293	1845.5
3458.11902449853	1827.25
3460.02800765041	1824.75
3461.93649169784	1786
3463.84447682962	1840.5
3465.75196323412	1839
3467.65895109925	1834.75
3469.56544061249	1844
3471.47143196086	1821
3473.37692533093	1825.25
3475.28192090884	1849.5
3477.18641888026	1848.5
3479.09041943039	1853.75
3480.99392274402	1858.5
3482.89692900545	1843
3484.79943839853	1832.5
3486.70145110666	1843
3488.60296731277	1843
3490.50398719933	1857.5
3492.40451094836	1839
3494.30453874141	1833.5
3496.20407075956	1861.75
3498.10310718342	1881.75
3500.00164819315	1826