200.090469251518	1225
202.974751419362	1240.5
205.858021632263	1224.75
208.740280737522	1225.5
211.621529580443	1231
214.501769004371	1214.75
217.380999850626	1218.75
220.25922295859	1213.75
223.136439165646	1243.75
226.012649307235	1249.25
228.88785421682	1284.25
231.762054725918	1289
234.635251664113	1296
237.507445859021	1270.25
240.378638136346	1240.5
243.248829319855	1245.5
246.11802023137	1262.25
248.986211690826	1274.75
251.853404516227	1315.25
254.719599523654	1329.75
257.584797527335	1308
260.44899933954	1296.75
263.312205770682	1258.25
266.174417629303	1240.25
269.035635722015	1236.25
271.895860853609	1233.25
274.755093826978	1236.75
277.613335443144	1234.5
280.470586501309	1223.5
283.326847798766	1232
286.182120131019	1230.5
289.036404291684	1228.75
291.889701072574	1212.25
294.742011263643	1232.25
297.593335653048	1225.25
300.443675027094	1224.75
303.293030170295	1208.5
306.141401865367	1227.5
308.988790893174	1209
311.835198032837	1214.5
314.680624061635	1208.5
317.525069755113	1223.75
320.36853588697	1220.25
323.211023229178	1212.25
326.052532551923	1222.75
328.893064623604	1207.5
331.732620210885	1201.5
334.57120007867	1203.75
337.408804990093	1224.25
340.245435706565	1216.25
343.081092987733	1219.25
345.915777591523	1235.5
348.749490274145	1212
351.582231790049	1232.75
354.414002891997	1238
357.244804331021	1249.75
360.074636856443	1220.25
362.903501215886	1231
365.731398155265	1251.75
368.558328418814	1221.5
371.384292749062	1223
374.209291886869	1235
377.033326571407	1233.25
379.85639754017	1231
382.678505529009	1238.5
385.499651272065	1244.75
388.319835501872	1242.75
391.139058949258	1234
393.957322343453	1243.5
396.774626412011	1206
399.590971880847	1232.25
402.406359474258	1233
405.220789914893	1233
408.034263923801	1227.5
410.8467822204	1249.5
413.658345522483	1244.5
416.468954546242	1235
419.278610006277	1241.75
422.087312615557	1262.5
424.895063085503	1275.25
427.701862125901	1280
430.507710444981	1257.5
433.312608749366	1260.25
436.116557744146	1249.75
438.919558132791	1255.75
441.721610617238	1244.25
444.522715897856	1245.75
447.322874673457	1259.75
450.122087641299	1246.75
452.920355497092	1268.25
455.717678935009	1233.75
458.514058647681	1248.5
461.309495326219	1256.75
464.103989660191	1226.75
466.89754233765	1237.5
469.690154045114	1227
472.481825467625	1229.25
475.272557288674	1240.25
478.062350190281	1241.25
480.851204852952	1240.5
483.639121955683	1241.75
486.426102176007	1252.25
489.212146189955	1250.5
491.997254672093	1267
494.781428295471	1259.25
497.564667731716	1259
500.346973650958	1256
503.128346721878	1268.75
505.90878761169	1276.75
508.688296986151	1256
511.46687550957	1251.75
514.244523844831	1263.25
517.021242653354	1270
519.797032595132	1265.25
522.571894328732	1269.75
525.345828511279	1247.25
528.11883579849	1269.25
530.890916844655	1239.5
533.662072302668	1257.5
536.432302823985	1255.5
539.201609058684	1250.5
541.96999165542	1276.75
544.737451261473	1254.25
547.503988522723	1264
550.26960408366	1254
553.034298587394	1264.25
555.798072675669	1261.5
558.560926988819	1245.75
561.322862165849	1247
564.083878844369	1271.25
566.843977660654	1268.75
569.603159249604	1262
572.361424244769	1260.75
575.118773278369	1290.75
577.87520698124	1320.5
580.630725982905	1354.5
583.385330911566	1400.25
586.139022394076	1465.25
588.891801055954	1538.75
591.643667521406	1576
594.394622413318	1558.75
597.144666353273	1441
599.893799961512	1354
602.64202385701	1307.75
605.389338657413	1277
608.135744979089	1271
610.881243437092	1260.75
613.625834645191	1243.5
616.369519215881	1250.75
619.112297760374	1253.25
621.854170888604	1256.5
624.595139209225	1234
627.335203329614	1255.75
630.074363855914	1248.5
632.81262139299	1236
635.549976544436	1247.75
638.286429912612	1245.75
641.021982098635	1243.5
643.756633702364	1259.5
646.49038532241	1225.25
649.223237556176	1241.75
651.955190999808	1238.25
654.686246248224	1253
657.416403895135	1253
660.145664533011	1257.75
662.874028753133	1245
665.601497145537	1272.75
668.328070299071	1299
671.05374880138	1353.25
673.778533238885	1471.75
676.502424196839	1660.25
679.225422259297	1768.5
681.947528009099	1734.75
684.668742027927	1620.25
687.389064896281	1512.5
690.108497193465	1489
692.827039497621	1457.25
695.544692385724	1397
698.261456433585	1350.25
700.977332215847	1301
703.692320305981	1286.5
706.406421276337	1277.75
709.11963569808	1288
711.831964141256	1291.5
714.54340717474	1287.25
717.253965366304	1305.75
719.963639282552	1272.25
722.672429488961	1251
725.380336549904	1276.5
728.087361028596	1277.5
730.793503487166	1268.75
733.498764486594	1284
736.203144586758	1299.25
738.906644346447	1300
741.60926432331	1376
744.311005073912	1462.25
747.011867153727	1481
749.711851117121	1416
752.410957517375	1371.75
755.109186906677	1307.25
757.806539836132	1297.75
760.503016855779	1302.25
763.198618514551	1301.25
765.893345360346	1300.5
768.587197939964	1315
771.28017679914	1293.25
773.972282482566	1356.5
776.663515533859	1342.75
779.353876495581	1331.75
782.043365909241	1327.75
784.731984315327	1292.5
787.419732253235	1283
790.106610261366	1269.75
792.792618877058	1283
795.477758636618	1300
798.162030075313	1303.75
800.845433727423	1297.5
803.52797012615	1291
806.209639803714	1285
808.890443291304	1278.25
811.570381119098	1293
814.249453816265	1286.5
816.927661910959	1284.5
819.60500593036	1312
822.281486400603	1312.5
824.957103846864	1339
827.631858793316	1363.25
830.305751763135	1380.5
832.978783278519	1414.5
835.650953860677	1430
838.322264029848	1416.5
840.992714305292	1420.5
843.662305205289	1416
846.331037247157	1388.25
848.998910947241	1404.75
851.665926820933	1385.25
854.332085382674	1382.75
856.997387145915	1359.25
859.661832623191	1367.75
862.325422326066	1353.25
864.988156765172	1352.75
867.650036450181	1353
870.311061889846	1336.25
872.971233591961	1312.5
875.630552063409	1340.25
878.28901781013	1335
880.946631337138	1331
883.603393148533	1323.5
886.259303747484	1315.75
888.914363636246	1316.25
891.568573316155	1310.5
894.22193328767	1310.25
896.874444050281	1324
899.526106102625	1307
902.176919942416	1291.75
904.826886066483	1280.75
907.476004970747	1308.25
910.124277150255	1312.75
912.77170309913	1319.5
915.418283310642	1310.5
918.064018277175	1326.5
920.708908490222	1335.25
923.352954440405	1323.75
925.996156617486	1333.25
928.638515510334	1319.5
931.280031606966	1315.75
933.920705394521	1312
936.560537359303	1315.25
939.199527986737	1325.75
941.837677761392	1331.5
944.474987167006	1334.25
947.111456686438	1387.75
949.747086801734	1424.25
952.38187799407	1414.25
955.015830743792	1399.5
957.648945530418	1333.75
960.281222832633	1337.5
962.91266312826	1328.25
965.543266894336	1319.5
968.173034607058	1323.75
970.801966741779	1340.75
973.43006377307	1333.5
976.057326174661	1338.25
978.683754419471	1325.75
981.309348979623	1342.5
983.93411032642	1329
986.558038930361	1330
989.181135261144	1340.25
991.803399787692	1334
994.424832978086	1335
997.045435299653	1349.25
999.665207218906	1377.75
1002.2841492016	1385
1004.90226171266	1396
1007.51954521628	1394
1010.13600017584	1385.75
1012.75162705397	1373
1015.3664263125	1356.75
1017.9803984125	1379.75
1020.5935438143	1387.75
1023.20586297741	1369.75
1025.81735636063	1389.25
1028.42802442196	1405.75
1031.03786761869	1446
1033.64688640732	1487.5
1036.2550812436	1537.5
1038.86245258255	1522.5
1041.46900087844	1490.5
1044.07472658479	1455
1046.67963015438	1432
1049.28371203927	1438.25
1051.88697269075	1451.75
1054.48941255943	1487
1057.09103209513	1579.75
1059.691831747	1641.5
1062.29181196343	1668.5
1064.89097319211	1598.25
1067.48931587999	1524.25
1070.08684047333	1463.75
1072.68354741766	1444.5
1075.27943715779	1434.25
1077.87451013787	1437.75
1080.46876680127	1449.75
1083.06220759071	1444.5
1085.65483294822	1428.5
1088.24664331509	1450
1090.83763913194	1440.75
1093.42782083869	1429.5
1096.01718887459	1432.5
1098.60574367818	1444.5
1101.19348568732	1461.25
1103.78041533919	1480.5
1106.3665330703	1482
1108.95183931646	1478.5
1111.53633451284	1481.75
1114.12001909391	1485.5
1116.70289349349	1510.5
1119.2849581447	1563.5
1121.86621348005	1650
1124.44665993134	1770.75
1127.02629792973	1824.25
1129.60512790574	1771.25
1132.18315028919	1683.5
1134.76036550929	1673.25
1137.3367739946	1829.25
1139.912376173	2039.5
1142.48717247176	2035
1145.06116331748	1850.25
1147.63434913616	1646
1150.20673035312	1556.25
1152.77830739307	1515.75
1155.34908068007	1511
1157.91905063757	1515
1160.48821768838	1491.5
1163.05658225471	1490.5
1165.6241447581	1473.25
1168.19090561951	1467.5
1170.75686525927	1470.25
1173.32202409708	1470.25
1175.88638255206	1452.25
1178.44994104269	1465
1181.01269998684	1501.75
1183.57465980182	1505
1186.13582090427	1498.75
1188.69618371026	1512.75
1191.25574863529	1470
1193.8145160942	1491.75
1196.37248650129	1469.75
1198.92966027025	1482.25
1201.48603781416	1488.25
1204.04161954556	1484.75
1206.59640587635	1499.25
1209.15039721788	1475.25
1211.70359398092	1471.5
1214.25599657564	1484
1216.80760541166	1488.5
1219.35842089801	1498.75
1221.90844344314	1502.5
1224.45767345496	1478
1227.00611134077	1482.25
1229.55375750736	1483
1232.10061236092	1480.25
1234.64667630707	1472
1237.1919497509	1470.25
1239.73643309692	1484
1242.28012674912	1471.75
1244.82303111089	1487.25
1247.36514658511	1493.75
1249.9064735741	1497.75
1252.44701247964	1491.5
1254.98676370294	1515
1257.52572764469	1518.75
1260.06390470506	1502.25
1262.60129528365	1553.5
1265.13789977954	1532.75
1267.67371859128	1549.75
1270.20875211688	1557.5
1272.74300075384	1547.5
1275.2764648991	1542.5
1277.80914494911	1576.25
1280.34104129978	1575.5
1282.87215434652	1594.5
1285.40248448419	1625.75
1287.93203210715	1710.25
1290.46079760927	1849.75
1292.98878138385	2009
1295.51598382375	2025.5
1298.04240532127	1919.75
1300.56804626822	1808
1303.09290705593	1780.25
1305.6169880752	1744
1308.14028971632	1737
1310.66281236913	1701.25
1313.18455642292	1704.5
1315.70552226653	1709.75
1318.22571028829	1720.5
1320.74512087603	1736.25
1323.26375441711	1753.25
1325.7816112984	1818
1328.29869190629	1902
1330.81499662666	2023.25
1333.33052584497	2266.75
1335.84527994613	2579.5
1338.35925931464	2804
1340.87246433446	2876.25
1343.38489538916	2705
1345.89655286177	2367.75
1348.40743713487	2017
1350.91754859059	1877.5
1353.42688761059	1820
1355.93545457606	1825.75
1358.44324986772	1833.25
1360.95027386588	1847.5
1363.45652695032	1835.5
1365.96200950042	1823
1368.4667218951	1816.5
1370.97066451281	1805.5
1373.47383773156	1766.25
1375.97624192891	1749.25
1378.47787748199	1752.5
1380.97874476746	1712
1383.47884416157	1720.25
1385.97817604009	1722.75
1388.4767407784	1702.25
1390.9745387514	1721.75
1393.47157033358	1702.75
1395.96783589898	1709.75
1398.46333582124	1714.25
1400.95807047354	1738.5
1403.45204022864	1748.25
1405.94524545889	1762.75
1408.4376865362	1797.75
1410.92936383205	1850
1413.42027771752	1924.5
1415.91042856328	1952.25
1418.39981673955	1972.5
1420.88844261615	1948
1423.37630656249	1928.25
1425.86340894757	1953.5
1428.34975013999	2042.25
1430.83533050792	2106
1433.32015041912	2088.75
1435.80421024098	2127.5
1438.28751034045	2182.5
1440.77005108411	2217
1443.25183283812	2274.75
1445.73285596824	2396.25
1448.21312083984	2657
1450.69262781791	2845.25
1453.17137726702	2764.25
1455.64936955137	2457
1458.12660503477	2290
1460.60308408063	2163
1463.07880705197	2105.75
1465.55377431145	2091
1468.02798622133	2085.5
1470.50144314348	2052.5
1472.97414543941	2021.5
1475.44609347024	2027.75
1477.91728759673	2056.75
1480.38772817924	2098.75
1482.85741557777	2100
1485.32635015194	2071.25
1487.79453226103	2010.25
1490.26196226391	2010
1492.72864051911	1983.5
1495.1945673848	1997.25
1497.65974321874	2005.75
1500.1241683784	2003.25
1502.58784322083	2009.5
1505.05076810274	2027
1507.51294338049	2064
1509.97436941009	2078.75
1512.43504654717	2156
1514.89497514704	2290.25
1517.35415556462	2611
1519.81258815451	3189.25
1522.27027327095	4134
1524.72721126784	5017
1527.18340249874	5162.5
1529.63884731684	4452.75
1532.09354607502	3466
1534.5474991258	2849
1537.00070682136	2529.25
1539.45316951355	2361
1541.90488755388	2267.25
1544.35586129353	2198.75
1546.80609108336	2168.75
1549.25557727385	2120
1551.70432021519	2125.25
1554.15232025725	2136.75
1556.59957774953	2106.5
1559.04609304125	2136.75
1561.49186648127	2108.25
1563.93689841815	2084.5
1566.38118920011	2066.75
1568.82473917506	2116
1571.2675486906	2102.25
1573.70961809399	2134.75
1576.15094773219	2131
1578.59153795184	2145.75
1581.03138909928	2176.5
1583.47050152051	2203
1585.90887556123	2188.5
1588.34651156686	2233
1590.78340988246	2250.75
1593.21957085283	2242.5
1595.65499482245	2208
1598.08968213547	2205.25
1600.52363313578	2193
1602.95684816694	2184.5
1605.38932757224	2153.5
1607.82107169462	2171.5
1610.25208087677	2172
1612.68235546107	2142
1615.1118957896	2127
1617.54070220415	2136.75
1619.96877504621	2124.5
1622.39611465701	2145.25
1624.82272137746	2145.75
1627.24859554818	2108.5
1629.67373750953	2107.5
1632.09814760155	2114
1634.52182616404	2086.75
1636.94477353647	2099.75
1639.36699005806	2095
1641.78847606776	2094.5
1644.20923190418	2099.75
1646.62925790573	2099.5
1649.04855441048	2051.5
1651.46712175628	2098.25
1653.88496028066	2112.25
1656.3020703209	2096
1658.71845221401	2123.75
1661.13410629671	2143.25
1663.54903290547	2138
1665.96323237649	2132
1668.37670504571	2157.5
1670.78945124877	2136
1673.20147132109	2143.5
1675.61276559779	2176
1678.02333441377	2151
1680.43317810362	2136.75
1682.84229700171	2166.75
1685.25069144213	2169.5
1687.65836175872	2185.25
1690.06530828507	2193.25
1692.47153135451	2187.75
1694.87703130009	2216
1697.28180845467	2238
1699.6858631508	2210
1702.08919572081	2199.75
1704.49180649676	2221.5
1706.89369581049	2201.25
1709.29486399355	2215.5
1711.69531137731	2214.75
1714.09503829282	2200.25
1716.49404507095	2198.25
1718.89233204229	2218.75
1721.28989953721	2186
1723.68674788581	2217
1726.08287741798	2196.75
1728.47828846338	2219.5
1730.87298135139	2193.25
1733.26695641119	2234.5
1735.66021397173	2208
1738.05275436169	2185.25
1740.44457790954	2205.5
1742.83568494354	2196.75
1745.22607579168	2188
1747.61575078175	2184.5
1750.00471024128	2213
1752.39295449761	2202.5
1754.78048387783	2201.5
1757.16729870881	2201
1759.5533993172	2204.25
1761.93878602942	2210.25
1764.32345917168	2204.5
1766.70741906995	2229
1769.09066604999	2240
1771.47320043735	2213
1773.85502255735	2214.5
1776.2361327351	2241.5
1778.61653129548	2255.5
1780.99621856318	2259.5
1783.37519486264	2281
1785.75346051813	2260.75
1788.13101585368	2241.5
1790.5078611931	2241.75
1792.88399686002	2266.75
1795.25942317785	2255
1797.63414046977	2263.5
1800.00814905878	2258.5
1802.38144926766	2251
1804.75404141898	2257.75
1807.12592583514	2244.75
1809.49710283829	2286.75
1811.86757275039	2269.5
1814.23733589322	2281
1816.60639258834	2262
1818.97474315712	2278.5
1821.34238792073	2283.5
1823.70932720012	2265.25
1826.07556131608	2271.25
1828.44109058918	2283.5
1830.8059153398	2254
1833.17003588812	2250.75
1835.53345255413	2247
1837.89616565765	2291.5
1840.25817551827	2287.25
1842.61948245541	2290.25
1844.9800867883	2253.5
1847.33998883598	2301.25
1849.69918891729	2274.75
1852.05768735091	2273.75
1854.4154844553	2277.75
1856.77258054875	2283.5
1859.12897594938	2250.25
1861.4846709751	2289
1863.83966594366	2273.75
1866.19396117261	2292.75
1868.54755697932	2291.25
1870.90045368099	2292
1873.25265159463	2274
1875.60415103708	2277.75
1877.95495232501	2334.5
1880.30505577486	2320.5
1882.65446170299	2321.75
1885.00317042548	2370.25
1887.35118225832	2356.75
1889.69849751726	2356.5
1892.04511651792	2351.5
1894.39103957574	2371
1896.73626700596	2360.5
1899.08079912368	2367.25
1901.42463624384	2379.25
1903.76777868116	2372.75
1906.11022675025	2378.25
1908.4519807655	2370
1910.79304104117	2390.25
1913.13340789134	2405.5
1915.47308162992	2372.75
1917.81206257067	2374
1920.15035102718	2393
1922.48794731286	2406.75
1924.82485174096	2427.75
1927.16106462461	2410.75
1929.49658627672	2431.25
1931.83141701008	2418.75
1934.1655571373	2396.5
1936.49900697085	2429.25
1938.83176682301	2387
1941.16383700594	2413.25
1943.49521783161	2392.5
1945.82590961186	2382.5
1948.15591265835	2388.5
1950.48522728262	2434.75
1952.81385379602	2406.5
1955.14179250976	2393
1957.46904373489	2402.25
1959.79560778233	2381.75
1962.12148496284	2426.5
1964.44667558701	2428.25
1966.77117996529	2413.5
1969.09499840799	2423.75
1971.41813122527	2454.5
1973.74057872714	2454.5
1976.06234122345	2422
1978.38341902391	2412.75
1980.7038124381	2435.75
1983.02352177543	2447.25
1985.34254734518	2416.5
1987.66088945649	2474.25
1989.97854841833	2457
1992.29552453956	2453.75
1994.61181812887	2426.25
1996.92742949483	2451.25
1999.24235894586	2463.75
2001.55660679023	2467.25
2003.87017333608	2492.25
2006.18305889143	2475.25
2008.49526376413	2466.75
2010.80678826189	2485
2013.1176326923	2511.5
2015.42779736282	2505.25
2017.73728258075	2523.5
2020.04608865326	2518.5
2022.3542158874	2490.5
2024.66166459008	2518.25
2026.96843506807	2547.75
2029.274527628	2538.5
2031.57994257637	2589.25
2033.88468021957	2539.25
2036.18874086383	2570
2038.49212481526	2539
2040.79483237983	2534.75
2043.0968638634	2582
2045.39821957169	2579.25
2047.69889981028	2574.25
2049.99890488462	2570.5
2052.29823510006	2550.75
2054.59689076181	2573.25
2056.89487217492	2558.25
2059.19217964437	2558.75
2061.48881347497	2541.5
2063.7847739714	2567.75
2066.08006143826	2585.75
2068.37467618	2550.75
2070.66861850093	2575.25
2072.96188870527	2552
2075.25448709707	2577.25
2077.54641398031	2617
2079.83766965881	2592.25
2082.12825443629	2570.75
2084.41816861634	2579.75
2086.70741250242	2614.25
2088.99598639789	2624
2091.28389060597	2605.25
2093.57112542978	2618.5
2095.85769117232	2623
2098.14358813644	2600.75
2100.42881662491	2623
2102.71337694037	2598.75
2104.99726938532	2606.5
2107.28049426219	2587.75
2109.56305187325	2625.25
2111.84494252069	2641.25
2114.12616650655	2641.5
2116.40672413278	2658
2118.68661570121	2658.75
2120.96584151355	2700
2123.24440187138	2695.25
2125.52229707622	2674
2127.79952742943	2649.75
2130.07609323227	2675
2132.35199478588	2673.25
2134.62723239132	2680.75
2136.90180634949	2682.5
2139.17571696123	2689.75
2141.44896452723	2701.25
2143.72154934809	2709
2145.99347172429	2702.5
2148.26473195623	2691
2150.53533034415	2732
2152.80526718821	2716.25
2155.07454278848	2736.25
2157.3431574449	2722
2159.61111145728	2731.25
2161.87840512538	2763.25
2164.1450387488	2734.5
2166.41101262707	2738.5
2168.67632705959	2771.25
2170.94098234567	2758.5
2173.20497878451	2814
2175.46831667519	2777.5
2177.73099631672	2787.75
2179.99301800797	2770.25
2182.25438204772	2775.5
2184.51508873466	2779.25
2186.77513836735	2768
2189.03453124427	2760.25
2191.29326766378	2750.75
2193.55134792416	2764.25
2195.80877232355	2778.5
2198.06554116004	2762.25
2200.32165473157	2767
2202.577113336	2793.75
2204.83191727111	2769.5
2207.08606683453	2784
2209.33956232384	2776
2211.59240403648	2795.5
2213.84459226982	2746.25
2216.09612732112	2782.75
2218.34700948753	2746.25
2220.59723906612	2745.25
2222.84681635385	2751.75
2225.09574164758	2759.5
2227.34401524408	2742.75
2229.59163744002	2763.75
2231.83860853197	2754.25
2234.08492881639	2764
2236.33059858968	2762.75
2238.5756181481	2771.5
2240.81998778784	2801.25
2243.06370780499	2765.25
2245.30677849555	2769.5
2247.54920015539	2778.5
2249.79097308033	2765.75
2252.03209756607	2774.5
2254.27257390822	2761.75
2256.51240240228	2783.5
2258.75158334369	2778
2260.99011702777	2779.5
2263.22800374976	2786.75
2265.46524380477	2785.75
2267.70183748786	2803.25
2269.93778509399	2818
2272.17308691801	2803.75
2274.40774325467	2797.5
2276.64175439866	2771.25
2278.87512064454	2795.75
2281.10784228682	2766.25
2283.33991961987	2788
2285.571352938	2812.75
2287.80214253541	2760.5
2290.03228870623	2818.75
2292.26179174449	2760.75
2294.4906519441	2794
2296.71886959892	2761
2298.9464450027	2781.5
2301.1733784491	2763
2303.39967023169	2784.75
2305.62532064395	2754
2307.85032997926	2770.25
2310.07469853093	2747
2312.29842659216	2740.75
2314.52151445608	2781
2316.7439624157	2775.5
2318.96577076397	2746
2321.18693979374	2757
2323.40746979777	2739.5
2325.62736106873	2774.75
2327.8466138992	2774.75
2330.06522858166	2727.75
2332.28320540853	2753.75
2334.50054467212	2759
2336.71724666465	2773.75
2338.93331167827	2719.25
2341.14874000501	2744.25
2343.36353193685	2717.75
2345.57768776564	2721
2347.79120778319	2724.25
2350.00409228117	2771.75
2352.21634155121	2784.5
2354.42795588482	2760
2356.63893557342	2752
2358.84928090838	2703.5
2361.05899218094	2765
2363.26806968228	2741.5
2365.47651370347	2720.75
2367.68432453552	2743.75
2369.89150246933	2740
2372.09804779571	2734.25
2374.30396080541	2713.5
2376.50924178907	2740.25
2378.71389103725	2731.5
2380.91790884042	2713.75
2383.12129548897	2712.25
2385.3240512732	2695.25
2387.52617648332	2686
2389.72767140946	2723.75
2391.92853634165	2713.5
2394.12877156985	2714.5
2396.32837738392	2731.25
2398.52735407365	2718.25
2400.72570192873	2719
2402.92342123875	2717
2405.12051229325	2721.75
2407.31697538167	2717
2409.51281079333	2703.75
2411.70801881751	2692.75
2413.90259974339	2707.5
2416.09655386004	2745.25
2418.28988145648	2686
2420.48258282162	2704.75
2422.6746582443	2684.75
2424.86610801325	2695.5
2427.05693241713	2716.5
2429.24713174452	2718.75
2431.43670628389	2724.5
2433.62565632365	2708.75
2435.81398215212	2703.75
2438.00168405752	2715.25
2440.18876232799	2692.25
2442.37521725158	2662.25
2444.56104911628	2690.25
2446.74625820994	2739.25
2448.93084482038	2661.75
2451.1148092353	2661
2453.29815174233	2652.25
2455.480872629	2633.25
2457.66297218275	2670
2459.84445069097	2646.75
2462.02530844092	2643.25
2464.2055457198	2640.25
2466.38516281471	2618.25
2468.56416001267	2619.75
2470.74253760061	2645
2472.92029586537	2636.25
2475.09743509372	2669.5
2477.27395557232	2638.75
2479.44985758777	2698.25
2481.62514142655	2675.5
2483.79980737508	2657.5
2485.97385571969	2642
2488.14728674661	2651.5
2490.32010074198	2625.25
2492.49229799188	2657.5
2494.66387878228	2633.5
2496.83484339905	2638.75
2499.00519212802	2658.25
2501.17492525488	2636.25
2503.34404306528	2645.5
2505.51254584473	2643.5
2507.6804338787	2670.25
2509.84770745254	2666.5
2512.01436685153	2633.5
2514.18041236085	2629
2516.34584426561	2625.25
2518.51066285081	2643.75
2520.67486840138	2637.75
2522.83846120214	2674.25
2525.00144153784	2649.25
2527.16380969314	2645.25
2529.32556595261	2685
2531.48671060072	2645.75
2533.64724392186	2677
2535.80716620033	2689.25
2537.96647772034	2643.5
2540.12517876602	2635
2542.2832696214	2655.75
2544.44075057041	2639.25
2546.59762189691	2611.25
2548.75388388466	2635.5
2550.90953681735	2656
2553.06458097853	2672.5
2555.21901665172	2671.25
2557.37284412031	2633.25
2559.5260636676	2635.5
2561.67867557684	2645.75
2563.83068013113	2622.5
2565.98207761351	2636
2568.13286830695	2629
2570.28305249429	2612
2572.43263045829	2647.5
2574.58160248163	2612.5
2576.72996884689	2627.75
2578.87772983655	2583.75
2581.02488573303	2624.75
2583.1714368186	2629
2585.31738337549	2593.25
2587.46272568582	2631.75
2589.60746403161	2655.25
2591.75159869479	2660.75
2593.89512995722	2629.75
2596.03805810061	2629.5
2598.18038340665	2625.25
2600.32210615686	2613
2602.46322663274	2616
2604.60374511563	2630.5
2606.74366188683	2609.5
2608.88297722751	2599.75
2611.02169141875	2624.75
2613.15980474156	2638.25
2615.29731747681	2647
2617.43422990532	2605
2619.57054230779	2622.75
2621.70625496483	2645
2623.84136815694	2602.5
2625.97588216456	2641.5
2628.10979726799	2645.25
2630.24311374746	2634
2632.3758318831	2655.75
2634.50795195493	2643.75
2636.6394742429	2655.75
2638.77039902682	2665.5
2640.90072658645	2638.25
2643.0304572014	2662
2645.15959115123	2658
2647.28812871538	2630.75
2649.41607017319	2686.5
2651.5434158039	2663.5
2653.67016588665	2655
2655.79632070049	2667.25
2657.92188052436	2686.25
2660.04684563711	2715.5
2662.17121631749	2769.25
2664.29499284413	2783.5
2666.41817549558	2764
2668.54076455027	2814.75
2670.66276028656	2759.5
2672.78416298267	2739.25
2674.90497291675	2759
2677.02519036682	2728
2679.14481561082	2739.75
2681.26384892658	2718
2683.38229059182	2728.75
2685.50014088417	2732.75
2687.61740008114	2713.5
2689.73406846017	2730
2691.85014629854	2723
2693.96563387347	2706.75
2696.08053146206	2705.5
2698.1948393413	2715
2700.3085577881	2750
2702.42168707924	2757.5
2704.53422749139	2739.25
2706.64617930112	2788.75
2708.75754278492	2786
2710.86831821913	2789.75
2712.97850588002	2813
2715.08810604372	2804
2717.19711898628	2783.25
2719.30554498363	2806.5
2721.41338431158	2772
2723.52063724586	2762.5
2725.62730406206	2785.75
2727.73338503569	2752.75
2729.83888044213	2774.25
2731.94379055664	2735
2734.04811565441	2731.5
2736.15185601048	2739.75
2738.25501189979	2722.25
2740.35758359718	2699.25
2742.45957137738	2693.25
2744.56097551499	2699.25
2746.6617962845	2749
2748.7620339603	2737.25
2750.86168881666	2726
2752.96076112774	2710.75
2755.05925116758	2688.25
2757.15715921012	2717.75
2759.25448552917	2701.75
2761.35123039843	2654
2763.44739409148	2689.5
2765.5429768818	2713
2767.63797904275	2710
2769.73240084756	2703.25
2771.82624256934	2714.25
2773.91950448113	2691
2776.01218685579	2722.5
2778.10428996609	2691.5
2780.19581408469	2719.5
2782.28675948414	2743
2784.37712643683	2760.25
2786.46691521507	2766.5
2788.55612609104	2765.5
2790.64475933678	2774
2792.73281522425	2770.5
2794.82029402525	2771.75
2796.90719601149	2780
2798.99352145453	2734.5
2801.07927062583	2738
2803.16444379672	2743.75
2805.24904123841	2774.25
2807.33306322197	2773
2809.41651001838	2802.25
2811.49938189847	2800
2813.58167913296	2840
2815.66340199243	2823
2817.74455074734	2855
2819.82512566805	2865
2821.90512702475	2909.75
2823.98455508754	2926
2826.06341012637	2972.75
2828.14169241109	3087.5
2830.2194022114	3154.75
2832.29653979686	3285
2834.37310543694	3507
2836.44909940096	3791
2838.5245219581	4066.75
2840.59937337744	4554.75
2842.67365392791	4957.75
2844.74736387829	5347.5
2846.82050349727	5593.25
2848.8930730534	5674.5
2850.96507281506	5516
2853.03650305056	5338.5
2855.10736402802	5112.5
2857.17765601545	4949.5
2859.24737928074	4829
2861.31653409164	4703
2863.38512071574	4590.5
2865.45313942054	4616
2867.52059047335	4563.75
2869.58747414139	4541.25
2871.65379069173	4594
2873.7195403913	4643.25
2875.78472350688	4868.25
2877.84934030515	5284.5
2879.91339105262	5701.5
2881.97687601567	5786.25
2884.03979546053	5445
2886.10214965332	5169
2888.16393886	4981
2890.22516334639	4863.5
2892.28582337816	4790
2894.34591922087	4801
2896.40545113992	4775.75
2898.46441940054	4727
2900.52282426787	4601.75
2902.58066600687	4567.25
2904.63794488237	4492.5
2906.69466115906	4334.5
2908.75081510147	4247.75
2910.806406974	4227.75
2912.8614370409	4144.5
2914.91590556626	4191.25
2916.96981281404	4166.75
2919.02315904807	4178
2921.07594453199	4197.75
2923.12816952932	4208.5
2925.17983430343	4165.75
2927.23093911753	4138.75
2929.28148423469	4073
2931.33146991782	3983.25
2933.3808964297	3923.5
2935.42976403294	3831.5
2937.47807299	3640.25
2939.5258235632	3565.5
2941.57301601469	3458
2943.61965060648	3338.25
2945.66572760042	3270
2947.71124725823	3219.5
2949.75620984143	3170
2951.80061561143	3099
2953.84446482945	3090.75
2955.88775775656	3087.5
2957.9304946537	3058.25
2959.97267578162	3046.25
2962.01430140095	3029.25
2964.05537177211	3024.5
2966.09588715541	3035.5
2968.13584781097	3043.25
2970.17525399875	3046.25
2972.21410597859	3041
2974.25240401011	3043.5
2976.29014835283	3054.5
2978.32733926604	3077.25
2980.36397700892	3067.25
2982.40006184049	3021.25
2984.43559401955	3006
2986.4705738048	2981.75
2988.50500145473	3014.25
2990.53887722771	2990.5
2992.57220138189	2992.5
2994.6049741753	2963.5
2996.63719586576	2973.25
2998.66886671097	2983.25
3000.69998696843	3007.25
3002.73055689549	2977.5
3004.7605767493	3006
3006.79004678688	2995
3008.81896726505	3011.75
3010.84733844048	2947.25
3012.87516056966	3005.25
3014.9024339089	2976.25
3016.92915871433	3035.5
3018.95533524196	3005
3020.98096374756	3028.5
3023.00604448675	3016.75
3025.030577715	3043.75
3027.05456368757	3010
3029.07800265956	3038
3031.10089488589	3021.25
3033.12324062131	3028.5
3035.14504012038	3064
3037.16629363749	3051.75
3039.18700142685	3091.5
3041.20716374249	3111.5
3043.22678083826	3160.25
3045.24585296782	3251.5
3047.26438038468	3279.75
3049.28236334212	3350.75
3051.29980209329	3390.5
3053.31669689111	3304.25
3055.33304798835	3300
3057.34885563757	3268.25
3059.36412009117	3220
3061.37884160134	3110.5
3063.39302042011	3130.25
3065.40665679931	3104
3067.41975099058	3068.25
3069.43230324538	3044.75
3071.44431381495	3027
3073.45578295041	3034.25
3075.46671090261	3041
3077.47709792227	2997.25
3079.48694425989	3002.5
3081.49625016578	2999.5
3083.50501589008	2970.25
3085.5132416827	3009.75
3087.5209277934	3015.5
3089.52807447169	2988.75
3091.53468196695	2998.5
3093.54075052832	2975.75
3095.54628040476	3003
3097.55127184503	2985
3099.55572509769	2942.75
3101.55964041111	2967.25
3103.56301803346	2978
3105.5658582127	2990
3107.56816119661	2996
3109.56992723275	2963.25
3111.57115656849	3024.25
3113.571849451	2979.75
3115.57200612724	3002
3117.57162684397	2982.25
3119.57071184775	2986.5
3121.56926138493	2987
3123.56727570166	2989.25
3125.56475504389	3001.5
3127.56169965735	2993.5
3129.55810978757	2986.5
3131.55398567987	2972.5
3133.54932757937	2949
3135.54413573099	3030.5
3137.53841037939	2991.25
3139.53215176909	2964
3141.52536014435	2984.75
3143.51803574924	2989.25
3145.51017882762	2999.75
3147.50178962311	3008.5
3149.49286837916	3034
3151.48341533897	2987.25
3153.47343074553	3012
3155.46291484164	2994.75
3157.45186786985	2983.75
3159.44029007252	2976
3161.42818169179	2969.25
3163.41554296955	2987.5
3165.40237414753	2965.75
3167.38867546718	2977.25
3169.37444716975	2967
3171.35968949631	3013
3173.34440268764	2993.75
3175.32858698436	2985.75
3177.31224262682	3003.5
3179.29536985517	3003
3181.27796890934	2995
3183.26004002902	2989.25
3185.24158345368	3011.25
3187.22259942256	3004.25
3189.2030881747	3023.75
3191.18304994886	3008
3193.16248498363	2998.5
3195.14139351733	3009
3197.11977578807	3028.75
3199.09763203371	3005.75
3201.07496249191	3041.5
3203.05176740007	3036.75
3205.02804699537	2995.75
3207.00380151475	2991.5
3208.97903119493	3039.5
3210.95373627238	3016
3212.92791698335	3018.5
3214.90157356383	3034.75
3216.8747062496	3011.75
3218.84731527619	3033.5
3220.81940087889	3006.5
3222.79096329275	3077.75
3224.76200275259	3055.75
3226.73251949298	3070.5
3228.70251374825	3070.5
3230.67198575251	3014.5
3232.64093573959	3053.5
3234.6093639431	3075.25
3236.57727059641	3077.25
3238.54465593261	3086.75
3240.51152018461	3088.75
3242.47786358502	3052
3244.44368636621	3075.75
3246.40898876031	3058
3248.37377099923	3084.5
3250.33803331458	3096.5
3252.30177593775	3096.25
3254.26499909987	3117.75
3256.22770303184	3114.5
3258.18988796427	3061
3260.15155412755	3092.5
3262.1127017518	3081
3264.0733310669	3088.25
3266.03344230246	3089.25
3267.99303568784	3092
3269.95211145215	3087.75
3271.91066982422	3099.5
3273.86871103267	3114.5
3275.82623530581	3077.25
3277.7832428717	3092.25
3279.73973395818	3079.5
3281.69570879278	3105.75
3283.6511676028	3120.25
3285.60611061527	3120.25
3287.56053805694	3093.75
3289.51445015432	3084.5
3291.46784713364	3132
3293.42072922088	3097
3295.37309664173	3099.25
3297.32494962163	3113.5
3299.27628838575	3084
3301.227113159	3097.5
3303.17742416601	3100.5
3305.12722163114	3113
3307.07650577848	3093.75
3309.02527683185	3080
3310.9735350148	3100.75
3312.9212805506	3122
3314.86851366225	3109.5
3316.81523457249	3095.25
3318.76144350377	3123.5
3320.70714067825	3103.5
3322.65232631783	3089.5
3324.59700064415	3114.25
3326.54116387854	3074.25
3328.48481624207	3135.25
3330.42795795551	3097.75
3332.37058923938	3058
3334.31271031389	3131.5
3336.25432139898	3099
3338.19542271432	3107.25
3340.13601447927	3111.25
3342.07609691292	3091
3344.01567023407	3098.75
3345.95473466124	3078
3347.89329041266	3090.75
3349.83133770627	3092.25
3351.76887675973	3112.25
3353.70590779039	3101
3355.64243101534	3079.75
3357.57844665135	3085.25
3359.51395491492	3107
3361.44895602224	3093.75
3363.38345018922	3081.5
3365.31743763148	3072.25
3367.25091856432	3106.25
3369.18389320278	3063.5
3371.11636176156	3124.25
3373.0483244551	3115.75
3374.97978149754	3113.75
3376.91073310269	3102.5
3378.84117948409	3118.75
3380.77112085498	3098.25
3382.70055742826	3109
3384.62948941659	3139.75
3386.55791703227	3105.25
3388.48584048733	3097.25
3390.41325999348	3088.75
3392.34017576214	3137.25
3394.2665880044	3130
3396.19249693107	3133.75
3398.11790275263	3109.75
3400.04280567926	3143.25
3401.96720592084	3155.75
3403.89110368692	3130.5
3405.81449918675	3143
3407.73739262928	3125.5
3409.65978422311	3163.75
3411.58167417658	3186
3413.50306269768	3131
3415.42394999408	3164.75
3417.34433627316	3151.5
3419.26422174195	3141.75
3421.18360660721	3122
3423.10249107532	3142.75
3425.02087535239	3118.75
3426.93875964421	3109.25
3428.8561441562	3127.5
3430.77302909353	3119
3432.68941466097	3130.25
3434.60530106301	3125.5
3436.52068850383	3146.5
3438.43557718726	3148.5
3440.34996731681	3123.5
3442.26385909565	3124
3444.17725272664	3102
3446.09014841231	3114.5
3448.00254635486	3118.25
3449.91444675614	3097.75
3451.82584981771	3117.5
3453.73675574076	3085.5
3455.64716472616	3107.25
3457.55707697445	3114.75
3459.46649268584	3095
3461.37541206018	3108.75
3463.28383529703	3110
3465.19176259555	3083.75
3467.09919415464	3110.5
3469.00613017278	3091.25
3470.91257084817	3084
3472.81851637863	3090
3474.72396696168	3071.25
3476.62892279446	3076.75
3478.53338407379	3117.5
3480.43735099614	3035.75
3482.34082375764	3083
3484.24380255404	3078.75
3486.1462875808	3088.25
3488.048279033	3113.75
3489.94977710537	3095
3491.85078199231	3102.5
3493.75129388783	3062.5
3495.65131298566	3065
3497.5508394791	3101
3499.44987356115	3076.75