200.090469251521	1110
202.974751419364	1128
205.858021632265	1126
208.740280737522	1129
211.621529580445	1153
214.501769004372	1119
217.380999850628	1118
220.259222958593	1135
223.136439165649	1150
226.012649307235	1141
228.887854216822	1178
231.762054725918	1173
234.635251664113	1188
237.507445859023	1150
240.378638136347	1196
243.248829319856	1175
246.118020231373	1183
248.986211690827	1186
251.853404516227	1205
254.719599523657	1191
257.584797527337	1208
260.448999339541	1229
263.312205770686	1219
266.174417629303	1217
269.035635722017	1197
271.89586085361	1215
274.755093826979	1230
277.613335443147	1222
280.470586501312	1227
283.326847798768	1228
286.18212013102	1237
289.036404291687	1247
291.889701072576	1223
294.742011263643	1244
297.593335653049	1224
300.443675027094	1250
303.293030170298	1245
306.141401865367	1262
308.988790893176	1221
311.835198032838	1265
314.680624061637	1237
317.525069755113	1272
320.36853588697	1249
323.211023229181	1284
326.052532551923	1295
328.893064623606	1281
331.732620210886	1286
334.571200078671	1302
337.408804990093	1308
340.245435706565	1295
343.081092987735	1308
345.915777591524	1324
348.749490274149	1285
351.582231790051	1320
354.414002892	1302
357.244804331024	1337
360.074636856445	1304
362.903501215886	1338
365.731398155266	1299
368.558328418816	1324
371.384292749062	1345
374.209291886871	1376
377.033326571409	1369
379.856397540173	1348
382.678505529011	1359
385.499651272066	1387
388.319835501873	1367
391.139058949262	1412
393.957322343455	1401
396.774626412012	1407
399.590971880849	1454
402.406359474259	1411
405.220789914895	1422
408.034263923803	1420
410.846782220402	1404
413.658345522482	1410
416.468954546245	1421
419.278610006279	1416
422.087312615559	1405
424.895063085505	1455
427.701862125904	1438
430.507710444984	1471
433.312608749369	1428
436.116557744146	1502
438.919558132792	1461
441.72161061724	1469
444.522715897858	1511
447.322874673459	1464
450.122087641299	1483
452.920355497093	1519
455.71767893501	1520
458.514058647682	1493
461.30949532622	1487
464.10398966019	1485
466.897542337651	1491
469.690154045117	1465
472.481825467627	1498
475.272557288677	1458
478.062350190282	1506
480.851204852952	1469
483.639121955686	1495
486.426102176009	1487
489.212146189958	1491
491.997254672092	1521
494.781428295473	1517
497.564667731718	1526
500.346973650961	1530
503.12834672188	1523
505.908787611691	1566
508.688296986151	1530
511.466875509572	1516
514.244523844834	1571
517.021242653355	1550
519.797032595132	1553
522.571894328732	1566
525.34582851128	1605
528.118835798493	1588
530.890916844657	1614
533.66207230267	1548
536.432302823987	1586
539.201609058685	1596
541.969991655422	1599
544.737451261476	1564
547.503988522724	1586
550.269604083663	1596
553.034298587396	1640
555.798072675669	1636
558.560926988819	1604
561.322862165851	1628
564.083878844371	1634
566.843977660657	1578
569.603159249605	1638
572.361424244772	1619
575.118773278369	1681
577.875206981241	1643
580.630725982908	1609
583.385330911566	1640
586.139022394078	1654
588.891801055957	1665
591.643667521408	1697
594.394622413318	1669
597.144666353275	1681
599.893799961513	1723
602.642023857012	1709
605.389338657416	1734
608.13574497909	1727
610.881243437093	1760
613.625834645192	1663
616.369519215883	1712
619.112297760377	1691
621.854170888605	1729
624.595139209227	1698
627.335203329614	1741
630.074363855917	1722
632.81262139299	1738
635.549976544439	1719
638.286429912615	1740
641.021982098637	1718
643.756633702364	1739
646.490385322412	1748
649.223237556177	1758
651.955190999809	1772
654.686246248224	1792
657.416403895136	1770
660.145664533012	1762
662.874028753135	1732
665.601497145537	1796
668.328070299073	1827
671.05374880138	1833
673.778533238886	1802
676.502424196839	1792
679.225422259297	1826
681.947528009102	1839
684.66874202793	1812
687.389064896282	1774
690.108497193467	1838
692.827039497622	1884
695.544692385727	1835
698.261456433588	1824
700.97733221585	1820
703.692320305984	1839
706.406421276339	1831
709.119635698082	1875
711.831964141257	1864
714.543407174743	1851
717.253965366306	1878
719.963639282554	1908
722.672429488964	1832
725.380336549907	1879
728.087361028599	1898
730.793503487167	1820
733.498764486595	1878
736.203144586759	1883
738.906644346449	1872
741.609264323313	1935
744.311005073915	1891
747.01186715373	1916
749.711851117123	1963
752.410957517377	1931
755.109186906677	1918
757.806539836135	1923
760.503016855782	1960
763.198618514553	1946
765.893345360349	1962
768.587197939965	1941
771.280176799143	1934
773.972282482569	1953
776.66351553386	1960
779.353876495577	1969
782.043365909243	1961
784.731984315328	1981
787.419732253236	1941
790.106610261368	1962
792.792618877059	1982
795.477758636619	1999
798.162030075316	1995
800.845433727424	2017
803.527970126152	2070
806.209639803714	2110
808.890443291307	2085
811.5703811191	2063
814.249453816264	2070
816.927661910961	2084
819.605005930361	2037
822.281486400606	2039
824.957103846867	2054
827.631858793319	2056
830.305751763137	2044
832.978783278521	2065
835.650953860679	2119
838.322264029851	2087
840.992714305294	2113
843.662305205292	2105
846.331037247159	2096
848.998910947244	2131
851.665926820937	2105
854.332085382674	2125
856.997387145915	2108
859.661832623193	2122
862.325422326067	2099
864.988156765174	2069
867.650036450184	2135
870.311061889847	2105
872.971233591961	2165
875.630552063409	2128
878.28901781013	2100
880.946631337141	2164
883.603393148535	2111
886.259303747486	2132
888.914363636247	2155
891.568573316158	2212
894.22193328767	2205
896.874444050283	2121
899.526106102627	2203
902.176919942417	2222
904.826886066483	2147
907.47600497075	2215
910.124277150257	2239
912.771703099131	2197
915.418283310643	2263
918.064018277177	2229
920.708908490222	2265
923.352954440405	2233
925.996156617489	2320
928.638515510336	2309
931.280031606966	2267
933.920705394522	2263
936.560537359305	2273
939.19952798674	2307
941.837677761394	2283
944.474987167007	2303
947.111456686439	2263
949.747086801736	2319
952.381877994073	2298
955.015830743793	2256
957.648945530419	2402
960.281222832634	2333
962.912663128263	2334
965.543266894337	2355
968.173034607059	2359
970.80196674178	2382
973.430063773072	2369
976.057326174661	2383
978.683754419475	2331
981.309348979625	2324
983.934110326421	2423
986.558038930362	2405
989.181135261147	2400
991.803399787692	2445
994.424832978086	2416
997.045435299653	2478
999.665207218908	2435
1002.2841492016	2435
1004.90226171266	2411
1007.51954521628	2450
1010.13600017584	2446
1012.75162705397	2446
1015.3664263125	2484
1017.98039841251	2471
1020.5935438143	2543
1023.20586297741	2508
1025.81735636063	2460
1028.42802442196	2445
1031.03786761869	2585
1033.64688640732	2541
1036.2550812436	2552
1038.86245258256	2519
1041.46900087844	2555
1044.07472658479	2555
1046.67963015438	2596
1049.28371203926	2648
1051.88697269076	2627
1054.48941255943	2679
1057.09103209513	2636
1059.691831747	2651
1062.29181196343	2608
1064.89097319211	2600
1067.48931587999	2652
1070.08684047333	2660
1072.68354741766	2593
1075.2794371578	2609
1077.87451013787	2655
1080.46876680127	2650
1083.06220759071	2649
1085.65483294822	2592
1088.24664331509	2656
1090.83763913194	2626
1093.4278208387	2647
1096.01718887459	2684
1098.60574367818	2634
1101.19348568732	2723
1103.78041533919	2755
1106.3665330703	2691
1108.95183931646	2727
1111.53633451284	2729
1114.12001909391	2783
1116.70289349349	2784
1119.28495814471	2760
1121.86621348006	2795
1124.44665993134	2803
1127.02629792974	2803
1129.60512790574	2777
1132.18315028919	2870
1134.76036550929	2868
1137.3367739946	2870
1139.912376173	2894
1142.48717247176	2874
1145.06116331749	2901
1147.63434913616	2935
1150.20673035312	2944
1152.77830739307	3031
1155.34908068007	3000
1157.91905063757	2943
1160.48821768838	2984
1163.05658225471	2937
1165.6241447581	3021
1168.19090561951	3006
1170.75686525927	3021
1173.32202409709	3068
1175.88638255206	3018
1178.44994104269	2976
1181.01269998685	3061
1183.57465980182	3024
1186.13582090427	2949
1188.69618371026	2970
1191.25574863529	3017
1193.8145160942	3005
1196.37248650129	3052
1198.92966027025	3069
1201.48603781417	3088
1204.04161954556	3054
1206.59640587635	3125
1209.15039721788	3096
1211.70359398092	3092
1214.25599657564	3125
1216.80760541166	3204
1219.35842089801	3231
1221.90844344314	3190
1224.45767345496	3195
1227.00611134077	3219
1229.55375750736	3243
1232.10061236092	3226
1234.64667630707	3305
1237.1919497509	3270
1239.73643309692	3290
1242.28012674912	3236
1244.82303111089	3301
1247.36514658511	3373
1249.90647357411	3395
1252.44701247964	3390
1254.98676370294	3400
1257.52572764469	3362
1260.06390470506	3475
1262.60129528365	3465
1265.13789977955	3482
1267.67371859128	3493
1270.20875211688	3552
1272.74300075384	3545
1275.2764648991	3482
1277.80914494911	3571
1280.34104129979	3587
1282.87215434652	3642
1285.40248448419	3570
1287.93203210715	3688
1290.46079760927	3707
1292.98878138385	3711
1295.51598382375	3800
1298.04240532127	3777
1300.56804626823	3792
1303.09290705594	3768
1305.6169880752	3825
1308.14028971632	3910
1310.66281236913	3812
1313.18455642292	3829
1315.70552226653	3794
1318.22571028829	3908
1320.74512087603	3964
1323.26375441711	4041
1325.7816112984	4019
1328.29869190629	4100
1330.81499662667	4120
1333.33052584497	4139
1335.84527994613	4253
1338.35925931464	4244
1340.87246433447	4235
1343.38489538916	4335
1345.89655286177	4320
1348.40743713487	4336
1350.91754859059	4340
1353.42688761059	4376
1355.93545457606	4428
1358.44324986772	4485
1360.95027386588	4545
1363.45652695032	4577
1365.96200950043	4552
1368.4667218951	4578
1370.97066451281	4700
1373.47383773156	4663
1375.97624192891	4701
1378.47787748199	4737
1380.97874476746	4703
1383.47884416157	4747
1385.9781760401	4785
1388.4767407784	4781
1390.9745387514	4959
1393.47157033358	4803
1395.96783589898	4921
1398.46333582124	4956
1400.95807047355	4934
1403.45204022865	5037
1405.94524545889	5036
1408.4376865362	5062
1410.92936383205	5147
1413.42027771753	5308
1415.91042856328	5289
1418.39981673955	5324
1420.88844261615	5309
1423.37630656249	5318
1425.86340894757	5465
1428.34975013999	5676
1430.83533050792	5680
1433.32015041912	5735
1435.80421024098	5769
1438.28751034046	5935
1440.77005108411	5987
1443.25183283812	5979
1445.73285596824	6171
1448.21312083984	6206
1450.69262781791	6238
1453.17137726702	6285
1455.64936955137	6373
1458.12660503477	6426
1460.60308408063	6549
1463.07880705198	6611
1465.55377431145	6683
1468.02798622133	6604
1470.50144314349	6660
1472.97414543941	6754
1475.44609347025	6838
1477.91728759673	6872
1480.38772817924	6997
1482.85741557777	7003
1485.32635015194	6967
1487.79453226103	7168
1490.26196226392	7133
1492.72864051911	7325
1495.1945673848	7289
1497.65974321875	7491
1500.1241683784	7472
1502.58784322083	7429
1505.05076810274	7495
1507.51294338049	7641
1509.97436941009	7656
1512.43504654718	7823
1514.89497514704	7763
1517.35415556462	7878
1519.8125881545	8105
1522.27027327095	8002
1524.72721126785	8185
1527.18340249875	8222
1529.63884731684	8336
1532.09354607502	8441
1534.5474991258	8490
1537.00070682136	8566
1539.45316951355	8484
1541.90488755388	8615
1544.35586129354	8832
1546.80609108336	8950
1549.25557727385	8922
1551.70432021519	9001
1554.15232025725	9260
1556.59957774954	9294
1559.04609304125	9381
1561.49186648127	9542
1563.93689841815	9507
1566.38118920011	9574
1568.82473917506	9731
1571.2675486906	9757
1573.70961809399	9907
1576.15094773219	9929
1578.59153795185	10049
1581.03138909928	9978
1583.47050152051	10154
1585.90887556123	10189
1588.34651156686	10311
1590.78340988246	10359
1593.21957085283	10446
1595.65499482245	10440
1598.08968213547	10548
1600.52363313578	10637
1602.95684816695	10649
1605.38932757224	10630
1607.82107169462	10682
1610.25208087678	10804
1612.68235546107	10867
1615.1118957896	10897
1617.54070220415	10916
1619.96877504622	10860
1622.39611465702	11072
1624.82272137746	11011
1627.24859554818	11036
1629.67373750953	11188
1632.09814760155	11333
1634.52182616404	11133
1636.94477353648	11329
1639.36699005807	11404
1641.78847606776	11516
1644.20923190419	11504
1646.62925790573	11546
1649.04855441048	11615
1651.46712175628	11832
1653.88496028066	11793
1656.3020703209	11748
1658.71845221401	11977
1661.13410629671	12093
1663.54903290548	12176
1665.96323237649	12198
1668.37670504571	12290
1670.78945124877	12198
1673.20147132109	12419
1675.61276559779	12614
1678.02333441377	12467
1680.43317810362	12675
1682.84229700171	12777
1685.25069144213	12776
1687.65836175872	12835
1690.06530828507	12992
1692.47153135451	12931
1694.8770313001	13005
1697.28180845468	13201
1699.6858631508	13179
1702.08919572081	13334
1704.49180649676	13455
1706.89369581049	13483
1709.29486399356	13420
1711.69531137731	13475
1714.09503829282	13419
1716.49404507096	13549
1718.89233204229	13613
1721.28989953721	13646
1723.68674788581	13662
1726.08287741798	13602
1728.47828846338	13806
1730.87298135139	13683
1733.26695641119	13707
1735.66021397173	13647
1738.05275436169	13976
1740.44457790955	13862
1742.83568494355	13903
1745.22607579168	14050
1747.61575078175	13917
1750.00471024128	14057
1752.39295449761	14234
1754.78048387783	14195
1757.16729870881	14156
1759.5533993172	14261
1761.93878602942	14245
1764.32345917168	14355
1766.70741906995	14481
1769.09066604999	14595
1771.47320043736	14577
1773.85502255735	14506
1776.2361327351	14587
1778.61653129548	14644
1780.99621856318	14674
1783.37519486264	14943
1785.75346051813	14917
1788.13101585368	15114
1790.50786119311	14922
1792.88399686002	14976
1795.25942317785	15075
1797.63414046977	15129
1800.00814905878	15227
1802.38144926766	15186
1804.75404141898	15101
1807.12592583514	15049
1809.49710283829	15439
1811.86757275039	15252
1814.23733589322	15443
1816.60639258834	15237
1818.97474315712	15227
1821.34238792073	15680
1823.70932720012	15451
1826.07556131608	15485
1828.44109058918	15377
1830.8059153398	15374
1833.17003588812	15328
1835.53345255413	15506
1837.89616565765	15439
1840.25817551827	15552
1842.61948245541	15451
1844.9800867883	15624
1847.33998883598	15684
1849.6991889173	15551
1852.05768735091	15857
1854.4154844553	15559
1856.77258054875	15758
1859.12897594938	15608
1861.48467097511	15644
1863.83966594367	15651
1866.19396117261	15846
1868.54755697932	15728
1870.90045368099	15750
1873.25265159463	15798
1875.60415103708	15868
1877.95495232501	16243
1880.30505577487	16193
1882.65446170299	16027
1885.00317042549	16203
1887.35118225832	16205
1889.69849751726	16231
1892.04511651792	16372
1894.39103957574	16498
1896.73626700596	16634
1899.08079912369	16597
1901.42463624384	16577
1903.76777868116	16721
1906.11022675025	16674
1908.4519807655	16801
1910.79304104117	16768
1913.13340789134	16903
1915.47308162993	16740
1917.81206257067	16669
1920.15035102718	16639
1922.48794731286	16654
1924.82485174096	16835
1927.16106462461	16845
1929.49658627672	16981
1931.83141701008	16917
1934.1655571373	16733
1936.49900697085	16783
1938.83176682301	16861
1941.16383700594	16991
1943.49521783161	16758
1945.82590961186	16662
1948.15591265835	16682
1950.48522728262	16785
1952.81385379602	16925
1955.14179250976	16890
1957.46904373489	16605
1959.79560778233	16772
1962.12148496284	16765
1964.44667558701	16735
1966.77117996529	16704
1969.094998408	16880
1971.41813122527	16878
1973.74057872714	16906
1976.06234122345	16928
1978.38341902391	16766
1980.7038124381	16858
1983.02352177544	16981
1985.34254734518	16913
1987.66088945649	16975
1989.97854841833	17220
1992.29552453956	17015
1994.61181812887	17059
1996.92742949483	17021
1999.24235894586	17398
2001.55660679023	17315
2003.87017333609	17245
2006.18305889143	17232
2008.49526376413	17209
2010.80678826189	17242
2013.1176326923	17571
2015.42779736282	17353
2017.73728258075	17493
2020.04608865326	17610
2022.35421588741	17512
2024.66166459008	17822
2026.96843506807	17893
2029.274527628	17872
2031.57994257638	17920
2033.88468021957	17962
2036.18874086383	17861
2038.49212481526	18042
2040.79483237983	18150
2043.0968638634	17939
2045.39821957169	18006
2047.69889981028	18073
2049.99890488462	17862
2052.29823510007	18173
2054.59689076181	18198
2056.89487217492	18075
2059.19217964437	18283
2061.48881347497	18074
2063.7847739714	18079
2066.08006143827	18180
2068.37467618	18127
2070.66861850093	18206
2072.96188870527	18363
2075.25448709708	18096
2077.54641398031	18256
2079.83766965881	18193
2082.12825443629	18144
2084.41816861634	18181
2086.70741250242	18252
2088.99598639789	18222
2091.28389060597	18188
2093.57112542978	18083
2095.85769117232	18222
2098.14358813644	18371
2100.42881662491	18073
2102.71337694037	18319
2104.99726938533	18335
2107.28049426219	18169
2109.56305187326	18231
2111.84494252069	18378
2114.12616650655	18407
2116.40672413278	18332
2118.68661570121	18150
2120.96584151355	18422
2123.24440187139	18566
2125.52229707622	18452
2127.79952742943	18456
2130.07609323227	18637
2132.35199478588	18432
2134.62723239132	18365
2136.90180634949	18646
2139.17571696123	18580
2141.44896452723	18403
2143.72154934809	18615
2145.9934717243	18643
2148.26473195623	18457
2150.53533034415	18793
2152.80526718822	18738
2155.07454278848	18717
2157.3431574449	18728
2159.61111145728	18707
2161.87840512538	18629
2164.1450387488	18696
2166.41101262707	18654
2168.67632705959	18711
2170.94098234567	18728
2173.20497878451	18485
2175.4683166752	18581
2177.73099631673	18784
2179.99301800797	18533
2182.25438204773	18521
2184.51508873466	18193
2186.77513836735	18400
2189.03453124427	18481
2191.29326766378	18358
2193.55134792416	18358
2195.80877232355	18206
2198.06554116004	18275
2200.32165473157	18175
2202.577113336	18174
2204.83191727111	18232
2207.08606683453	18154
2209.33956232384	18080
2211.59240403649	17947
2213.84459226982	17866
2216.09612732112	17846
2218.34700948753	17822
2220.59723906612	17702
2222.84681635385	17714
2225.09574164758	17899
2227.34401524408	17878
2229.59163744002	17728
2231.83860853197	17555
2234.08492881639	17451
2236.33059858968	17378
2238.5756181481	17696
2240.81998778785	17339
2243.06370780499	17246
2245.30677849555	17350
2247.54920015539	17449
2249.79097308033	17252
2252.03209756607	17091
2254.27257390822	17001
2256.51240240228	17144
2258.75158334369	17005
2260.99011702777	16925
2263.22800374976	16884
2265.46524380477	16756
2267.70183748787	16900
2269.93778509399	16758
2272.17308691801	16790
2274.40774325467	16781
2276.64175439866	16622
2278.87512064454	16600
2281.10784228682	16573
2283.33991961987	16483
2285.571352938	16434
2287.80214253541	16372
2290.03228870623	16503
2292.26179174449	16195
2294.4906519441	16202
2296.71886959893	16230
2298.94644500271	16142
2301.1733784491	16087
2303.39967023169	15954
2305.62532064395	15768
2307.85032997926	15846
2310.07469853093	15720
2312.29842659216	15610
2314.52151445608	15746
2316.7439624157	15742
2318.96577076398	15645
2321.18693979374	15604
2323.40746979777	15483
2325.62736106873	15324
2327.8466138992	15476
2330.06522858166	15342
2332.28320540853	15270
2334.50054467212	15395
2336.71724666465	15191
2338.93331167827	15121
2341.14874000501	15093
2343.36353193685	14901
2345.57768776564	14953
2347.79120778319	14951
2350.00409228117	14889
2352.21634155121	14847
2354.42795588482	14840
2356.63893557343	14724
2358.84928090839	14540
2361.05899218094	14527
2363.26806968228	14408
2365.47651370347	14465
2367.68432453552	14357
2369.89150246933	14266
2372.09804779571	14008
2374.30396080541	14042
2376.50924178907	14150
2378.71389103725	13957
2380.91790884042	13876
2383.12129548898	13876
2385.32405127321	13836
2387.52617648332	13753
2389.72767140946	13624
2391.92853634165	13717
2394.12877156985	13563
2396.32837738393	13732
2398.52735407365	13531
2400.72570192873	13555
2402.92342123875	13372
2405.12051229325	13476
2407.31697538167	13196
2409.51281079334	13237
2411.70801881751	13174
2413.90259974339	13295
2416.09655386005	13261
2418.28988145648	13192
2420.48258282163	12980
2422.6746582443	12859
2424.86610801325	12996
2427.05693241713	12718
2429.24713174452	12871
2431.43670628389	12784
2433.62565632365	12647
2435.81398215213	12533
2438.00168405752	12739
2440.18876232799	12674
2442.37521725158	12714
2444.56104911628	12443
2446.74625820994	12471
2448.93084482038	12285
2451.1148092353	12403
2453.29815174233	12315
2455.480872629	12320
2457.66297218276	12115
2459.84445069097	12047
2462.02530844092	12025
2464.2055457198	11918
2466.38516281471	12057
2468.56416001267	12028
2470.74253760061	11881
2472.92029586537	11816
2475.09743509372	11852
2477.27395557232	11927
2479.44985758777	11860
2481.62514142655	11773
2483.79980737509	11578
2485.97385571969	11653
2488.1472867466	11670
2490.32010074198	11465
2492.49229799188	11472
2494.66387878228	11439
2496.83484339905	11576
2499.00519212802	11474
2501.17492525489	11480
2503.34404306528	11445
2505.51254584473	11385
2507.6804338787	11478
2509.84770745254	11451
2512.01436685153	11365
2514.18041236085	11188
2516.34584426561	11312
2518.51066285081	11304
2520.67486840138	11360
2522.83846120214	11352
2525.00144153785	11359
2527.16380969314	11193
2529.32556595261	11281
2531.48671060072	11229
2533.64724392186	11231
2535.80716620033	11292
2537.96647772035	11114
2540.12517876602	11082
2542.2832696214	11240
2544.44075057041	11096
2546.59762189692	11080
2548.75388388467	11078
2550.90953681735	10986
2553.06458097853	10965
2555.21901665172	11057
2557.37284412031	10837
2559.5260636676	10893
2561.67867557684	10903
2563.83068013113	10750
2565.98207761352	10778
2568.13286830695	10678
2570.28305249429	10653
2572.43263045829	10587
2574.58160248163	10584
2576.72996884689	10619
2578.87772983656	10459
2581.02488573303	10524
2583.1714368186	10524
2585.3173833755	10383
2587.46272568582	10425
2589.60746403161	10511
2591.75159869479	10429
2593.89512995722	10464
2596.03805810062	10486
2598.18038340665	10502
2600.32210615686	10325
2602.46322663274	10375
2604.60374511563	10205
2606.74366188683	10311
2608.88297722751	10272
2611.02169141875	10238
2613.15980474156	10373
2615.29731747681	10305
2617.43422990532	10134
2619.57054230779	10213
2621.70625496483	10165
2623.84136815695	10178
2625.97588216456	10332
2628.10979726799	10238
2630.24311374746	10324
2632.3758318831	10153
2634.50795195493	10077
2636.6394742429	10241
2638.77039902682	10276
2640.90072658645	10213
2643.0304572014	10252
2645.15959115123	10127
2647.28812871538	10181
2649.41607017319	10188
2651.5434158039	10150
2653.67016588665	10230
2655.79632070049	10310
2657.92188052436	10177
2660.04684563712	10366
2662.17121631749	10176
2664.29499284413	10152
2666.41817549558	10192
2668.54076455028	10196
2670.66276028656	10138
2672.78416298267	10207
2674.90497291675	10098
2677.02519036682	10237
2679.14481561082	10237
2681.26384892658	10289
2683.38229059183	10119
2685.50014088417	10139
2687.61740008115	10228
2689.73406846017	10177
2691.85014629854	10111
2693.96563387347	10221
2696.08053146206	10095
2698.1948393413	10201
2700.3085577881	10084
2702.42168707924	10121
2704.53422749139	10156
2706.64617930112	10199
2708.75754278492	10234
2710.86831821914	10297
2712.97850588002	10266
2715.08810604372	10156
2717.19711898628	10382
2719.30554498363	10271
2721.41338431159	10234
2723.52063724587	10195
2725.62730406207	10206
2727.73338503569	10335
2729.83888044213	10314
2731.94379055665	10158
2734.04811565441	10372
2736.15185601048	10266
2738.25501189979	10308
2740.35758359718	10341
2742.45957137738	10387
2744.56097551499	10330
2746.6617962845	10307
2748.7620339603	10323
2750.86168881666	10365
2752.96076112774	10354
2755.05925116759	10434
2757.15715921013	10366
2759.25448552917	10321
2761.35123039843	10368
2763.44739409148	10423
2765.54297688181	10437
2767.63797904275	10436
2769.73240084756	10510
2771.82624256935	10478
2773.91950448113	10455
2776.01218685579	10529
2778.10428996609	10618
2780.1958140847	10537
2782.28675948414	10567
2784.37712643683	10569
2786.46691521507	10516
2788.55612609103	10606
2790.64475933678	10483
2792.73281522425	10451
2794.82029402525	10700
2796.90719601149	10666
2798.99352145453	10506
2801.07927062583	10656
2803.16444379672	10594
2805.24904123841	10823
2807.33306322197	10651
2809.41651001838	10856
2811.49938189847	10672
2813.58167913296	10828
2815.66340199243	10728
2817.74455074734	10726
2819.82512566805	10884
2821.90512702475	10873
2823.98455508754	10889
2826.06341012637	11036
2828.14169241109	10899
2830.2194022114	11032
2832.29653979686	11170
2834.37310543694	11211
2836.44909940096	11411
2838.52452195811	11473
2840.59937337745	11537
2842.67365392791	11682
2844.7473638783	11640
2846.82050349728	11687
2848.8930730534	11667
2850.96507281507	11630
2853.03650305056	11727
2855.10736402802	11727
2857.17765601545	11659
2859.24737928075	11652
2861.31653409164	11881
2863.38512071574	11883
2865.45313942054	12033
2867.52059047335	12118
2869.58747414139	12083
2871.65379069173	12209
2873.7195403913	12093
2875.78472350688	12149
2877.84934030515	12580
2879.91339105262	12536
2881.97687601567	12582
2884.03979546054	12615
2886.10214965333	12480
2888.16393886001	12535
2890.22516334639	12622
2892.28582337816	12449
2894.34591922087	12694
2896.40545113992	12605
2898.46441940054	12677
2900.52282426787	12692
2902.58066600687	12615
2904.63794488237	12861
2906.69466115906	12558
2908.75081510147	12712
2910.806406974	12469
2912.86143704089	12706
2914.91590556626	12631
2916.96981281405	12641
2919.02315904807	12671
2921.07594453199	12794
2923.12816952932	12786
2925.17983430343	12649
2927.23093911753	12623
2929.28148423469	12690
2931.33146991782	12675
2933.3808964297	12662
2935.42976403294	12496
2937.47807299	12723
2939.5258235632	12547
2941.57301601469	12654
2943.61965060648	12507
2945.66572760042	12620
2947.71124725823	12797
2949.75620984144	12912
2951.80061561143	12922
2953.84446482945	12826
2955.88775775656	12892
2957.9304946537	12735
2959.97267578162	12890
2962.01430140095	12836
2964.05537177211	12897
2966.09588715541	13010
2968.13584781097	13068
2970.17525399875	12997
2972.21410597859	12809
2974.25240401012	12900
2976.29014835283	12853
2978.32733926604	13054
2980.36397700893	13006
2982.40006184049	12918
2984.43559401955	13020
2986.4705738048	13053
2988.50500145474	13228
2990.53887722771	13099
2992.57220138189	13118
2994.6049741753	13220
2996.63719586576	13281
2998.66886671097	13142
3000.69998696843	13345
3002.73055689549	13502
3004.7605767493	13352
3006.79004678688	13299
3008.81896726505	13627
3010.84733844048	13314
3012.87516056966	13643
3014.9024339089	13618
3016.92915871434	13689
3018.95533524196	13634
3020.98096374756	13794
3023.00604448676	13778
3025.030577715	13747
3027.05456368757	13948
3029.07800265956	13789
3031.10089488589	14009
3033.12324062131	13906
3035.14504012038	14038
3037.16629363749	14081
3039.18700142685	14122
3041.20716374249	13967
3043.22678083826	14040
3045.24585296783	14161
3047.26438038468	14093
3049.28236334212	14243
3051.29980209329	14245
3053.31669689111	14117
3055.33304798835	14068
3057.34885563757	14155
3059.36412009117	14076
3061.37884160135	14150
3063.39302042012	14195
3065.40665679932	14121
3067.41975099059	14182
3069.43230324538	14210
3071.44431381495	14207
3073.45578295041	14261
3075.46671090261	14329
3077.47709792227	14242
3079.48694425989	14310
3081.49625016579	14417
3083.50501589008	14272
3085.51324168271	14482
3087.5209277934	14337
3089.52807447169	14277
3091.53468196695	14342
3093.54075052832	14361
3095.54628040476	14554
3097.55127184503	14469
3099.55572509769	14234
3101.55964041111	14439
3103.56301803346	14452
3105.5658582127	14581
3107.56816119661	14653
3109.56992723275	14470
3111.5711565685	14603
3113.57184945101	14490
3115.57200612724	14542
3117.57162684397	14678
3119.57071184775	14759
3121.56926138493	14594
3123.56727570166	14838
3125.56475504389	14690
3127.56169965735	14657
3129.55810978757	14804
3131.55398567988	15039
3133.54932757938	14910
3135.54413573099	15124
3137.53841037939	14944
3139.53215176909	14995
3141.52536014435	15117
3143.51803574925	14940
3145.51017882762	14898
3147.50178962312	15283
3149.49286837916	15066
3151.48341533897	15068
3153.47343074553	15133
3155.46291484164	15131
3157.45186786985	15187
3159.44029007252	15120
3161.42818169179	15109
3163.41554296956	15139
3165.40237414753	15169
3167.38867546717	15390
3169.37444716976	15299
3171.35968949631	15241
3173.34440268765	15354
3175.32858698436	15112
3177.31224262683	15422
3179.29536985518	15256
3181.27796890934	15286
3183.26004002902	15262
3185.24158345368	15276
3187.22259942256	15473
3189.2030881747	15487
3191.18304994886	15544
3193.16248498363	15438
3195.14139351733	15438
3197.11977578807	15467
3199.09763203372	15614
3201.07496249191	15458
3203.05176740007	15512
3205.02804699537	15506
3207.00380151475	15582
3208.97903119493	15629
3210.95373627239	15634
3212.92791698335	15813
3214.90157356383	15735
3216.8747062496	15906
3218.84731527619	15739
3220.81940087889	15874
3222.79096329275	15748
3224.76200275259	15733
3226.73251949298	15873
3228.70251374826	15886
3230.67198575251	15774
3232.64093573959	15966
3234.6093639431	16181
3236.57727059641	15977
3238.54465593262	16131
3240.51152018462	16125
3242.47786358502	16241
3244.44368636621	16202
3246.40898876032	16118
3248.37377099923	16256
3250.33803331458	16216
3252.30177593775	16386
3254.26499909988	16222
3256.22770303184	16377
3258.18988796427	16193
3260.15155412755	16168
3262.1127017518	16208
3264.0733310669	16371
3266.03344230246	16299
3267.99303568784	16430
3269.95211145215	16303
3271.91066982422	16439
3273.86871103267	16319
3275.82623530581	16381
3277.78324287171	16416
3279.73973395818	16551
3281.69570879278	16764
3283.65116760281	16498
3285.60611061527	16506
3287.56053805694	16500
3289.51445015432	16497
3291.46784713364	16605
3293.42072922088	16309
3295.37309664173	16381
3297.32494962163	16378
3299.27628838576	16390
3301.22711315901	16429
3303.17742416601	16534
3305.12722163114	16359
3307.07650577848	16556
3309.02527683185	16651
3310.9735350148	16471
3312.9212805506	16573
3314.86851366225	16609
3316.81523457249	16476
3318.76144350377	16585
3320.70714067825	16709
3322.65232631784	16504
3324.59700064415	16616
3326.54116387854	16404
3328.48481624207	16322
3330.42795795552	16528
3332.37058923938	16195
3334.31271031389	16358
3336.25432139899	16234
3338.19542271433	16303
3340.13601447927	16168
3342.07609691292	16221
3344.01567023407	16255
3345.95473466125	16191
3347.89329041266	16163
3349.83133770628	16249
3351.76887675973	16091
3353.70590779039	15981
3355.64243101534	16052
3357.57844665135	16217
3359.51395491492	16173
3361.44895602224	16029
3363.38345018922	16195
3365.31743763148	16004
3367.25091856432	16023
3369.18389320278	16012
3371.11636176156	16010
3373.0483244551	16122
3374.97978149754	16043
3376.91073310269	16075
3378.84117948409	15973
3380.77112085498	16015
3382.70055742827	16101
3384.62948941659	15993
3386.55791703227	16077
3388.48584048733	16103
3390.41325999348	16378
3392.34017576214	16273
3394.26658800441	15943
3396.19249693107	16164
3398.11790275263	15912
3400.04280567926	16171
3401.96720592084	16085
3403.89110368692	16159
3405.81449918675	16261
3407.73739262928	16007
3409.65978422312	16152
3411.58167417659	16104
3413.50306269768	16090
3415.42394999408	16156
3417.34433627316	16220
3419.26422174196	16235
3421.18360660721	16113
3423.10249107532	15765
3425.0208753524	15997
3426.93875964421	16036
3428.85614415621	16035
3430.77302909353	16042
3432.68941466097	15901
3434.60530106302	15822
3436.52068850384	15975
3438.43557718726	15835
3440.34996731681	15801
3442.26385909565	15733
3444.17725272664	15724
3446.09014841231	15997
3448.00254635485	15552
3449.91444675614	15658
3451.82584981771	15649
3453.73675574076	15793
3455.64716472616	15619
3457.55707697445	15393
3459.46649268584	15523
3461.37541206019	15546
3463.28383529703	15666
3465.19176259556	15476
3467.09919415464	15510
3469.00613017278	15406
3470.91257084817	15539
3472.81851637863	15333
3474.72396696168	15476
3476.62892279446	15385
3478.5333840738	15168
3480.43735099614	15231
3482.34082375764	15293
3484.24380255404	15091
3486.1462875808	15399
3488.048279033	15295
3489.94977710537	15053
3491.85078199231	15325
3493.75129388784	15022
3495.65131298566	15056
3497.5508394791	15138
3499.44987356115	15103