201.866871357051	1020.75
204.754250281454	1030.25
207.640596790938	1029
210.525911876299	1024
213.410196525689	1024.5
216.293451724508	1021.5
219.175678455485	1029.75
222.056877698662	1038
224.937050431388	1034.5
227.816197628363	1039.25
230.694320261602	1041.75
233.571419300504	1042.25
236.447495711764	1052.25
239.322550459507	1051
242.196584505182	1048
245.069598807626	1049.75
247.941594323078	1058.5
250.812572005154	1045.75
253.682532804884	1056.75
256.551477670699	1053.5
259.419407548456	1058.75
262.286323381439	1050
265.152226110364	1064.75
268.017116673389	1066.25
270.880996006115	1048.25
273.743865041622	1041
276.605724710436	1055
279.466575940562	1057.75
282.326419657496	1058.5
285.1852567842	1070.25
288.043088241157	1073.25
290.899914946349	1076.5
293.75573781526	1066.5
296.610557760898	1073.25
299.464375693817	1059.25
302.317192522078	1079.75
305.169009151297	1088.25
308.019826484655	1069.25
310.86964542287	1083.5
313.718466864233	1076.25
316.566291704614	1069.75
319.413120837457	1073.75
322.258955153804	1076.5
325.103795542291	1086
327.947642889128	1093
330.79049807819	1086.5
333.632361990927	1093.25
336.473235506444	1091.25
339.31311950145	1093.25
342.152014850322	1085.25
344.989922425062	1111.25
347.826843095354	1092.5
350.662777728528	1100.25
353.497727189577	1104.5
356.331692341195	1112
359.164674043732	1108.5
361.996673155267	1116.25
364.827690531536	1103
367.65772702602	1126.25
370.486783489887	1121.5
373.314860772047	1127.75
376.14195971912	1132.75
378.968081175466	1120.25
381.793225983212	1142.75
384.617394982201	1141.5
387.44058901005	1136.25
390.262808902131	1145.25
393.08405549161	1148
395.904329609395	1148.75
398.723632084213	1133.25
401.541963742569	1157.75
404.359325408779	1163
407.175717904938	1152
409.991142050982	1162
412.805598664665	1155.25
415.619088561551	1171.5
418.43161255505	1172.25
421.243171456415	1175
424.053766074758	1175
426.863397217017	1182.25
429.672065688024	1189.25
432.479772290455	1171.5
435.286517824879	1203.75
438.092303089736	1205
440.897128881359	1211
443.70099599399	1208
446.503905219761	1205
449.305857348711	1207.5
452.106853168796	1200.75
454.906893465919	1194.5
457.705979023885	1184.75
460.504110624439	1197.5
463.3012890473	1184.5
466.097515070087	1169.5
468.892789468424	1190.5
471.687113015869	1184.75
474.48048648395	1169.25
477.272910642198	1190
480.064386258109	1191.75
482.854914097159	1180
485.644494922839	1195.25
488.433129496636	1192.75
491.220818578047	1197.25
494.007562924584	1191.5
496.793363291785	1183
499.578220433217	1190.75
502.362135100473	1200.75
505.145108043209	1205.5
507.927140009098	1211
510.708231743909	1212
513.488383991433	1214
516.267597493556	1223.75
519.04587299022	1213
521.82321121946	1236
524.599612917398	1214.75
527.375078818233	1226.75
530.149609654287	1204.5
532.923206155967	1225.25
535.695869051804	1220
538.467599068448	1214
541.238396930665	1214.75
544.008263361364	1216
546.777199081578	1219.75
549.545204810493	1232.75
552.312281265436	1230.25
555.078429161898	1217.25
557.843649213533	1223
560.607942132156	1238.5
563.371308627753	1232.25
566.133749408495	1233
568.895265180756	1236
571.655856649064	1231
574.415524516189	1254
577.174269483075	1240.5
579.932092248884	1267.75
582.688993510994	1262.75
585.444973965023	1266
588.200034304795	1280.5
590.95417522237	1290
593.70739740807	1298
596.459701550433	1276.25
599.21108833628	1303.75
601.961558450668	1289.25
604.711112576933	1293.25
607.459751396673	1293.75
610.207475589748	1285.75
612.954285834338	1302.5
615.700182806879	1280
618.445167182101	1294
621.189239633055	1285.75
623.932400831087	1278
626.674651445839	1285.25
629.415992145303	1282.5
632.156423595745	1282.5
634.895946461813	1290.75
637.634561406449	1289.75
640.37226909096	1283.75
643.109070174978	1270.5
645.844965316508	1288.75
648.579955171888	1283.25
651.314040395846	1291.5
654.047221641456	1280
656.779499560176	1289.5
659.510874801828	1292.25
662.241348014642	1290.75
664.97091984524	1280.5
667.699590938606	1289.5
670.427361938164	1289
673.15423348573	1276.5
675.880206221526	1315.5
678.605280784206	1314.5
681.329457810829	1330.75
684.05273793692	1337
686.775121796389	1334.5
689.49661002163	1317.5
692.217203243454	1320.5
694.936902091144	1314
697.655707192425	1311.25
700.373619173493	1308.75
703.09063865901	1297.75
705.806766272093	1290.25
708.522002634378	1305.75
711.236348365946	1305
713.94980408538	1292.5
716.662370409762	1302.25
719.374047954676	1301
722.08483733419	1305.75
724.794739160909	1315
727.503754045949	1316
730.21188259892	1323.5
732.919125427998	1306.5
735.625483139855	1329.5
738.330956339723	1311.5
741.035545631374	1306.5
743.739251617106	1338.75
746.44207489779	1336.5
749.144016072852	1335.5
751.845075740272	1333
754.545254496603	1315.5
757.244552936976	1338.25
759.94297165508	1322.75
762.640511243222	1335.25
765.337172292249	1340
768.032955391649	1340.75
770.727861129482	1346.75
773.421890092413	1349.75
776.11504286572	1358.75
778.807320033298	1337.5
781.49872217765	1344.25
784.18924987991	1338.5
786.87890371984	1335.25
789.567684275826	1337
792.255592124908	1340.5
794.94262784276	1343.25
797.628792003703	1326.75
800.314085180715	1320.75
802.998507945427	1317.75
805.682060868145	1358.25
808.364744517821	1354
811.046559462105	1345
813.727506267311	1355.75
816.407585498422	1360.75
819.08679771913	1346.25
821.765143491822	1357.75
824.442623377563	1363.75
827.119237936127	1350.75
829.794987726003	1348
832.469873304377	1357.75
835.143895227167	1385.25
837.817054048985	1359.5
840.489350323205	1380
843.160784601892	1388.25
845.831357435894	1383.5
848.501069374739	1379.75
851.169920966753	1376.75
853.837912758987	1372
856.505045297232	1377.25
859.171319126071	1368
861.836734788823	1384.75
864.501292827579	1379.25
867.164993783208	1368.75
869.827838195361	1373.25
872.489826602454	1381.5
875.150959541701	1377.5
877.811237549104	1357.5
880.470661159456	1403.25
883.129230906357	1387
885.786947322205	1361.25
888.443810938206	1383.5
891.099822284385	1381
893.754981889586	1371.25
896.409290281452	1388.25
899.062747986485	1386.25
901.715355529999	1388.5
904.367113436154	1379
907.01802222793	1417
909.668082427172	1392.25
912.317294554574	1409
914.965659129659	1406.5
917.613176670835	1400.5
920.259847695364	1401
922.90567271936	1399.5
925.550652257825	1396.5
928.194786824621	1412.25
930.838076932512	1403
933.480523093109	1402.75
936.122125816953	1407
938.762885613447	1433.5
941.402802990899	1413.5
944.041878456523	1436.25
946.680112516428	1421
949.31750567563	1396.25
951.954058438081	1446
954.589771306633	1446.75
957.224644783048	1430.25
959.858679368044	1430.5
962.491875561238	1426.25
965.12423386121	1429.25
967.75575476545	1451
970.386438770423	1455.5
973.016286371501	1449
975.645298063046	1456
978.273474338355	1433
980.900815689674	1449.25
983.527322608243	1416.25
986.152995584245	1458.5
988.777835106834	1475.5
991.401841664148	1454.25
994.025015743307	1443.5
996.647357830407	1446.25
999.268868410534	1458.25
1001.88954796777	1449.25
1004.50939698518	1478
1007.12841594484	1458.75
1009.74660532783	1472
1012.36396561423	1482.25
1014.98049728314	1477.75
1017.59620081267	1474.5
1020.21107667995	1479.75
1022.82512536112	1496.25
1025.43834733138	1492.25
1028.05074306493	1531.25
1030.66231303501	1520.75
1033.27305771392	1510.5
1035.88297757299	1519
1038.49207308257	1514.5
1041.10034471211	1498.75
1043.70779293008	1532.5
1046.31441820402	1534
1048.92022100052	1528
1051.52520178525	1542.25
1054.12936102295	1544.75
1056.73269917742	1567
1059.33521671154	1543.25
1061.93691408729	1559.5
1064.53779176571	1587.75
1067.13785020694	1562.5
1069.73708987022	1567.75
1072.33551121386	1580
1074.93311469528	1566
1077.52990077103	1593.5
1080.12586989674	1595.25
1082.72102252714	1599.75
1085.31535911611	1592.75
1087.90888011663	1617.75
1090.50158598078	1606
1093.09347715979	1631.75
1095.68455410403	1619.75
1098.27481726296	1612
1100.86426708523	1632.25
1103.45290401857	1617.75
1106.04072850991	1628.75
1108.6277410053	1650.75
1111.21394194993	1623.75
1113.79933178816	1651
1116.3839109635	1653.25
1118.96767991862	1680
1121.55063909539	1673.5
1124.13278893477	1680.25
1126.71412987696	1701.75
1129.29466236132	1695
1131.87438682637	1711.25
1134.45330370982	1700
1137.03141344858	1718.25
1139.60871647872	1720
1142.18521323554	1729.25
1144.7609041535	1745
1147.33578966629	1782.5
1149.90987020676	1769.75
1152.48314620702	1758.25
1155.05561809835	1789.5
1157.62728631125	1771
1160.19815127545	1801
1162.76821341988	1799.25
1165.33747317271	1802.25
1167.90593096133	1817.75
1170.47358721235	1804.75
1173.04044235163	1833
1175.60649680425	1827.75
1178.17175099454	1854.25
1180.73620534607	1843.75
1183.29986028165	1832.25
1185.86271622336	1831.25
1188.42477359249	1853
1190.98603280964	1874
1193.54649429462	1871
1196.10615846653	1891.25
1198.66502574372	1890.5
1201.22309654385	1904.5
1203.78037128378	1916.25
1206.33685037971	1920.5
1208.89253424709	1925.75
1211.44742330063	1926
1214.00151795438	1943.25
1216.55481862163	1959.75
1219.10732571497	1971.5
1221.65903964631	1973.25
1224.20996082683	1987.25
1226.760089667	2000
1229.30942657664	1996.5
1231.85797196483	2059
1234.40572623998	2051
1236.95268980981	2045.75
1239.49886308136	2072.25
1242.04424646098	2106
1244.58884035435	2100.5
1247.13264516647	2122.5
1249.67566130166	2146.75
1252.21788916358	2136.5
1254.75932915524	2178.5
1257.29998167896	2199
1259.83984713639	2204.5
1262.37892592857	2215.25
1264.91721845586	2243.25
1267.45472511795	2253
1269.9914463139	2269
1272.52738244213	2305.25
1275.0625339004	2309.75
1277.59690108587	2332.5
1280.130484395	2367.25
1282.66328422367	2375.25
1285.19530096712	2382
1287.72653501993	2408.75
1290.25698677608	2417.5
1292.78665662894	2435
1295.31554497125	2452
1297.8436521951	2483.75
1300.37097869203	2480.75
1302.89752485292	2515
1305.42329106805	2508
1307.94827772713	2528.25
1310.47248521921	2523.75
1312.99591393279	2583.5
1315.51856425575	2612.25
1318.04043657536	2643.75
1320.56153127836	2652.5
1323.08184875083	2695
1325.6013893783	2649.75
1328.12015354572	2699.25
1330.63814163744	2759
1333.15535403727	2768.75
1335.67179112839	2794
1338.18745329347	2824
1340.70234091454	2887
1343.21645437314	2892
1345.72979405019	2918
1348.24236032607	2946.75
1350.75415358059	2982.75
1353.26517419303	2938
1355.7754225421	3020
1358.28489900594	3066
1360.79360396218	3094
1363.30153778787	3086.5
1365.80870085955	3110
1368.31509355319	3163
1370.82071624424	3158.5
1373.32556930762	3188.75
1375.8296531177	3236.75
1378.33296804832	3260.25
1380.83551447282	3274.25
1383.33729276399	3298
1385.83830329408	3317.25
1388.33854643489	3394.75
1390.83802255762	3337.25
1393.33673203301	3407.75
1395.83467523128	3396.5
1398.33185252211	3420
1400.82826427471	3472.5
1403.32391085777	3486
1405.81879263947	3500.25
1408.31290998752	3582.5
1410.80626326908	3541.75
1413.29885285087	3587.5
1415.79067909909	3636
1418.28174237944	3685
1420.77204305717	3712.75
1423.26158149702	3742.25
1425.75035806323	3823.25
1428.2383731196	3827.75
1430.72562702942	3842.5
1433.21212015554	3923
1435.69785286028	4004
1438.18282550555	4065.75
1440.66703845275	4108.75
1443.15049206284	4109
1445.6331866963	4222.75
1448.11512271316	4221.25
1450.59630047298	4274.25
1453.07672033486	4362.5
1455.55638265748	4388
1458.03528779902	4406.25
1460.51343611725	4456.25
1462.99082796946	4524.25
1465.46746371252	4504.25
1467.94334370285	4586.75
1470.41846829642	4639.75
1472.89283784878	4675.75
1475.36645271503	4739.75
1477.83931324983	4739.25
1480.31141980743	4754.75
1482.78277274164	4817.25
1485.25337240583	4842
1487.72321915297	4869.25
1490.19231333557	4921
1492.66065530578	4984.25
1495.12824541525	5046.75
1497.5950840153	5113.5
1500.06117145678	5113.75
1502.52650809014	5184.5
1504.99109426543	5243
1507.45493033227	5250.75
1509.91801663992	5306.75
1512.38035353717	5362.75
1514.84194137248	5410.25
1517.30278049386	5467.75
1519.76287124894	5509.75
1522.22221398497	5542.25
1524.68080904876	5660.5
1527.13865678681	5662.25
1529.59575754514	5776.5
1532.05211166945	5813.25
1534.50771950503	5888.5
1536.96258139678	5970.75
1539.41669768924	5967.75
1541.87006872656	6057.5
1544.32269485252	6075.5
1546.77457641051	6162.5
1549.22571374357	6261.5
1551.67610719434	6315.5
1554.12575710513	6391.75
1556.57466381785	6398.5
1559.02282767408	6522.5
1561.47024901499	6624.5
1563.91692818144	6665.5
1566.3628655139	6748.25
1568.80806135249	6791.5
1571.252516037	6860
1573.6962299068	7021.25
1576.13920330099	7029.5
1578.58143655828	7146
1581.02293001704	7214.75
1583.46368401528	7247
1585.90369889071	7366.5
1588.34297498065	7450.5
1590.7815126221	7520.5
1593.21931215173	7591
1595.65637390588	7656.5
1598.09269822053	7698
1600.52828543135	7791.25
1602.96313587367	7795
1605.3972498825	7885.25
1607.83062779252	7923.25
1610.26326993808	7979.25
1612.69517665322	8059.75
1615.12634827165	8156
1617.55678512676	8202
1619.98648755163	8194.5
1622.41545587902	8260.25
1624.84369044138	8401.75
1627.27119157085	8460.5
1629.69795959924	8538.5
1632.12399485808	8607.5
1634.54929767859	8715.75
1636.97386839165	8809.25
1639.39770732789	8882.5
1641.8208148176	8933.25
1644.24319119078	9056.75
1646.66483677715	9125
1649.0857519061	9302.5
1651.50593690677	9317.5
1653.92539210795	9488.75
1656.3441178382	9549.75
1658.76211442575	9657
1661.17938219855	9778.75
1663.59592148428	9958.75
1666.01173261032	10047
1668.42681590377	10227.5
1670.84117169145	10284.5
1673.25480029991	10391
1675.66770205541	10547.5
1678.07987728393	10663.5
1680.49132631119	10831
1682.90204946263	10914.25
1685.31204706342	11031.25
1687.72131943846	11140.25
1690.1298669124	11249.25
1692.53768980957	11590
1694.94478845411	11621
1697.35116316982	11715.25
1699.75681428031	11780
1702.16174210887	11924
1704.56594697858	12105.75
1706.96942921222	12197.5
1709.37218913235	12292.75
1711.77422706125	12328
1714.17554332098	12479.75
1716.5761382333	12713.75
1718.97601211977	12762.75
1721.37516530169	12929.75
1723.77359810006	12956.25
1726.17131083572	13153.25
1728.56830382922	13293
1730.96457740087	13372.75
1733.36013187075	13455
1735.75496755868	13622.5
1738.14908478428	13694.75
1740.54248386689	13812.5
1742.93516512565	13967
1745.32712887946	14163.5
1747.71837544697	14300.75
1750.10890514662	14413.25
1752.49871829661	14474
1754.88781521492	14713.75
1757.27619621929	14904.75
1759.66386162726	14956
1762.05081175612	15152
1764.43704692297	15291.5
1766.82256744465	15483
1769.20737363782	15635
1771.59146581887	15800.5
1773.97484430405	16063
1776.35750940932	16204.75
1778.73946145048	16412
1781.12070074309	16455.25
1783.50122760249	16742.5
1785.88104234385	16880
1788.26014528209	17037.5
1790.63853673196	17190
1793.01621700796	17528
1795.39318642443	17667.25
1797.76944529549	17809.5
1800.14499393503	17952.25
1802.51983265681	18058.25
1804.8939617743	18403.5
1807.26738160085	18620.5
1809.64009244957	18807.5
1812.01209463339	18766.5
1814.38338846504	19196.5
1816.75397425706	19127.25
1819.12385232181	19413.5
1821.49302297142	19626.5
1823.86148651789	19723.25
1826.22924327299	19897.5
1828.59629354831	20122.5
1830.96263765526	20196
1833.32827590507	20446.75
1835.69320860877	20635
1838.05743607724	20775
1840.42095862113	20918.25
1842.78377655097	21133.25
1845.14589017707	21367.5
1847.50729980956	21375
1849.86800575843	21705.75
1852.22800833346	21845.75
1854.58730784427	22012
1856.94590460032	22417
1859.30379891087	22512.25
1861.66099108503	22701
1864.01748143175	23099.25
1866.37327025978	23258.5
1868.72835787773	23359.5
1871.08274459403	23728
1873.43643071697	23987.75
1875.78941655464	24389.5
1878.14170241498	24447.25
1880.4932886058	24732.75
1882.84417543469	25258.5
1885.19436320915	25356.75
1887.54385223646	25477.25
1889.89264282378	26008.25
1892.24073527809	26120
1894.58812990625	26426
1896.93482701493	26976.75
1899.28082691067	27162.5
1901.62612989984	27640.5
1903.97073628868	27794
1906.31464638326	28213.5
1908.6578604895	28406.5
1911.00037891321	28920.75
1913.34220196	29306.5
1915.68332993537	29546
1918.02376314468	29837
1920.36350189311	30010
1922.70254648573	30344.5
1925.04089722744	30560
1927.37855442303	30991
1929.71551837715	31284.25
1932.05178939426	31383.25
1934.38736777876	31834.5
1936.72225383484	31994
1939.0564478666	32749
1941.38995017799	32800.75
1943.72276107283	33268.5
1946.05488085479	33351
1948.38630982744	33523.75
1950.71704829419	34182
1953.04709655832	34243.25
1955.376454923	34451.5
1957.70512369126	34946.75
1960.03310316599	35273.75
1962.36039364999	35389.25
1964.68699544589	35829.75
1967.01290885622	36364.75
1969.33813418338	36736.5
1971.66267172965	37108
1973.98652179718	37584.25
1976.309684688	38058
1978.63216070402	38468.25
1980.95395014705	39327
1983.27505331873	39254.5
1985.59547052063	39920
1987.9152020542	40262.5
1990.23424822074	40577.75
1992.55260932146	40946.25
1994.87028565746	41536.25
1997.18727752968	41930.5
1999.503585239	42659.75
2001.81920908618	42937
2004.13414937184	43622.25
2006.44840639651	44432.5
2008.7619804606	45070.5
2011.07487186442	45336.25
2013.38708090815	46188.75
2015.6986078919	46549.75
2018.00945311564	47051.25
2020.31961687923	47458.75
2022.62909948246	48246.5
2024.93790122498	48648.5
2027.24602240636	49183.75
2029.55346332604	49793.5
2031.86022428337	50317.75
2034.16630557761	51108.5
2036.47170750791	51164.25
2038.77643037331	51757.5
2041.08047447275	52418
2043.38384010509	52350.5
2045.68652756907	53173.5
2047.98853716335	53399
2050.28986918648	53880.5
2052.59052393692	54369
2054.89050171302	54584.25
2057.18980281306	54934
2059.4884275352	55246.25
2061.78637617753	55211.25
2064.08364903802	55549.75
2066.38024641457	55833.5
2068.67616860497	56149
2070.97141590694	56263
2073.26598861809	56703.5
2075.55988703595	56640.75
2077.85311145796	57131.5
2080.14566218145	57357.25
2082.43753950371	57519.5
2084.72874372188	57896
2087.01927513307	57885.75
2089.30913403428	58276.75
2091.59832072241	58414.75
2093.88683549429	58424.75
2096.17467864666	59015
2098.46185047619	59307.25
2100.74835127944	59602.5
2103.03418135292	59873.75
2105.31934099303	59574.5
2107.6038304961	60113
2109.88765015838	60251.75
2112.17080027602	60278.5
2114.45328114513	60940
2116.7350930617	60964.75
2119.01623632165	61053.75
2121.29671122085	60890.25
2123.57651805505	61429.5
2125.85565711996	61724
2128.13412871117	61881.75
2130.41193312424	62023.25
2132.68907065462	62185.25
2134.96554159771	62275.75
2137.24134624881	62142
2139.51648490317	62545.75
2141.79095785593	62583
2144.0647654022	62828.75
2146.33790783698	62806.5
2148.61038545524	62557.75
2150.88219855182	63137
2153.15334742154	63051.25
2155.42383235911	63097
2157.6936536592	63252.75
2159.9628116164	62962
2162.23130652522	63152
2164.49913868011	63056
2166.76630837544	63151.75
2169.03281590552	63196.5
2171.2986615646	63032.75
2173.56384564685	62982.5
2175.82836844637	62868
2178.0922302572	62984
2180.35543137332	62810.5
2182.61797208862	62846
2184.87985269695	62341
2187.14107349208	62323.25
2189.40163476773	62436.5
2191.66153681753	62180.25
2193.92077993507	61801.75
2196.17936441386	61717
2198.43729054735	61669.25
2200.69455862894	61537.25
2202.95116895194	61417.5
2205.20712180962	61090.5
2207.46241749519	60956.5
2209.71705630179	61002.25
2211.97103852248	60776.75
2214.2243644503	60580.75
2216.47703437819	60145
2218.72904859905	60019.25
2220.98040740571	59991.75
2223.23111109095	59898.75
2225.4811599475	59393.25
2227.73055426799	59474.5
2229.97929434504	58965.25
2232.22738047118	58722.5
2234.47481293889	58757
2236.72159204058	58873.25
2238.96771806864	58380.75
2241.21319131536	57867.5
2243.458012073	57551.25
2245.70218063374	57753.75
2247.94569728973	57707.75
2250.18856233304	57138.75
2252.4307760557	56672.75
2254.67233874967	56726
2256.91325070687	56395.25
2259.15351221915	56141
2261.39312357831	56007.25
2263.63208507611	55421
2265.87039700422	55520.5
2268.1080596543	55408.75
2270.34507331792	55063
2272.5814382866	54690.75
2274.81715485183	54778.75
2277.05222330502	54505.75
2279.28664393755	54373.25
2281.52041704072	53849
2283.75354290581	53994.75
2285.98602182401	53412.25
2288.21785408648	53007.25
2290.44903998434	53032.25
2292.67957980862	52680
2294.90947385033	52034.75
2297.1387224004	52043.5
2299.36732574975	51825.5
2301.59528418921	51368.5
2303.82259800958	51065.25
2306.04926750158	50681.25
2308.27529295593	50301.75
2310.50067466325	50044.75
2312.72541291412	49857
2314.9495079991	49433.75
2317.17296020866	48988.25
2319.39576983323	49119
2321.61793716322	48615.25
2323.83946248894	48237.75
2326.06034610069	48061.75
2328.28058828871	47847.75
2330.50018934317	47578.5
2332.7191495542	47277.75
2334.93746921192	46771.75
2337.15514860633	46510.25
2339.37218802743	46402.75
2341.58858776516	45812.25
2343.80434810941	45673.5
2346.01946935001	45478.5
2348.23395177675	45147.75
2350.44779567939	44959.25
2352.66100134759	44395
2354.87356907101	44358.25
2357.08549913925	43803.5
2359.29679184185	43633.25
2361.50744746829	43954.25
2363.71746630804	43373.5
2365.92684865048	42789
2368.13559478499	42833.25
2370.34370500083	42709.25
2372.55117958727	42427
2374.75801883352	41986.25
2376.96422302874	41484.25
2379.16979246202	41350
2381.37472742243	41233
2383.57902819898	40920
2385.78269508063	40663.5
2387.98572835629	40394.75
2390.18812831482	40183.75
2392.38989524505	40088
2394.59102943573	39878
2396.79153117559	39702
2398.9914007533	39345.25
2401.19063845748	39133
2403.38924457672	38914.75
2405.58721939951	38724
2407.78456321435	38461.25
2409.98127630966	38258.75
2412.17735897382	38330.75
2414.37281149517	38023.75
2416.56763416198	37824.5
2418.76182726249	37921.75
2420.95539108487	37511.75
2423.14832591726	37252.5
2425.34063204776	36922.5
2427.53230976439	36649.25
2429.72335935513	36714.75
2431.91378110795	36435.5
2434.10357531071	36099.25
2436.29274225125	36321.5
2438.48128221739	35837.25
2440.66919549683	35643
2442.8564823773	35522
2445.04314314641	35410.75
2447.22917809176	35185.75
2449.4145875009	35221.75
2451.59937166131	34925
2453.78353086044	34680.25
2455.96706538568	34548
2458.14997552436	34278.5
2460.33226156379	34012
2462.51392379119	33909
2464.69496249376	33647.25
2466.87537795862	33403.75
2469.05517047288	33214.25
2471.23434032357	33111.5
2473.41288779767	33213.25
2475.59081318211	32780
2477.76811676378	32584
2479.9447988295	32314.5
2482.12085966605	32109.25
2484.29629956016	32127
2486.4711187985	32019.25
2488.64531766769	32057
2490.8188964543	31815
2492.99185544484	31528.75
2495.16419492579	31538.75
2497.33591518353	31309.5
2499.50701650444	31171.5
2501.67749917482	31108.5
2503.84736348091	31063.75
2506.01660970891	30727
2508.18523814496	30567.5
2510.35324907514	30556.25
2512.52064278551	30489.5
2514.68741956201	30340
2516.85357969058	30547.5
2519.01912345709	30314.75
2521.18405114735	30054.5
2523.34836304711	29877.5
2525.51205944208	29796.25
2527.6751406179	29707.75
2529.83760686016	29660.75
2531.99945845439	29511.5
2534.16069568606	29493.5
2536.3213188406	29415.75
2538.48132820336	29021.5
2540.64072405965	29109.75
2542.79950669471	28809
2544.95767639373	29117.75
2547.11523344184	28787.25
2549.27217812411	28703.5
2551.42851072555	28563.75
2553.58423153111	28364
2555.73934082569	28183
2557.89383889412	28129.75
2560.04772602118	28057.5
2562.20100249158	27643.5
2564.35366858996	27579.5
2566.50572460093	27500.25
2568.65717080901	27241
2570.80800749867	27282
2572.95823495433	27067.25
2575.10785346031	26901
2577.25686330093	26734
2579.40526476038	26440
2581.55305812282	26384
2583.70024367237	26185.25
2585.84682169303	26013.75
2587.99279246879	26123.5
2590.13815628354	25750
2592.28291342112	25697.75
2594.42706416531	25620
2596.5706087998	25606
2598.71354760826	25646.25
2600.85588087425	25516.75
2602.99760888127	25340.5
2605.13873191278	25245.25
2607.27925025214	25086
2609.41916418269	25108
2611.55847398764	24920
2613.69717995017	24780.5
2615.83528235339	25018
2617.97278148034	24782.5
2620.10967761398	24774.25
2622.2459710372	24726
2624.38166203284	24613
2626.51675088365	24481.5
2628.65123787231	24294
2630.78512328145	24318.5
2632.9184073936	24211.75
2635.05109049124	24172
2637.18317285676	24042.25
2639.31465477248	24081.25
2641.44553652067	23938.75
2643.5758183835	23772.5
2645.70550064309	23798.25
2647.83458358144	23744.5
2649.96306748053	23807.75
2652.09095262223	23660
2654.21823928836	23664
2656.34492776063	23390
2658.47101832071	23378.25
2660.59651125015	23408.5
2662.72140683047	23281.75
2664.84570534309	23159.75
2666.96940706934	23024.25
2669.0925122905	22944.5
2671.21502128773	23025
2673.33693434215	22844.75
2675.45825173479	22898.75
2677.57897374658	22827
2679.69910065839	22896.75
2681.818632751	22673.25
2683.93757030511	22569
2686.05591360133	22416.25
2688.17366292021	22319.75
2690.29081854218	22276
2692.40738074762	22193.5
2694.52334981681	22233.5
2696.63872602995	22104.5
2698.75350966713	22088
2700.86770100841	22038.75
2702.98130033371	21816.25
2705.09430792289	21748.25
2707.20672405571	21804.75
2709.31854901185	21781.25
2711.42978307091	21598.25
2713.54042651238	21739.25
2715.65047961567	21581.75
2717.7599426601	21464
2719.86881592491	21552
2721.97709968924	21543
2724.08479423213	21211.5
2726.19189983255	21297.25
2728.29841676934	21250.5
2730.4043453213	21243.75
2732.5096857671	21203.75
2734.61443838532	21111.5
2736.71860345444	20942
2738.82218125286	20912.25
2740.92517205889	20959
2743.02757615072	21001.75
2745.12939380646	20665.25
2747.23062530411	20762
2749.33127092159	20918.5
2751.4313309367	20712
2753.53080562716	20692.5
2755.62969527058	20672.5
2757.72800014448	20484
2759.82572052625	20601.5
2761.92285669323	20389.5
2764.0194089226	20333.5
2766.11537749147	20310.5
2768.21076267686	20282.75
2770.30556475566	20147.5
2772.39978400465	20159.75
2774.49342070054	20066.25
2776.58647511991	20103.25
2778.67894753923	20049.75
2780.77083823487	20030.25
2782.8621474831	19736.75
2784.95287556007	19692.75
2787.04302274184	19750.5
2789.13258930433	19739.75
2791.22157552338	19502.5
2793.30998167471	19605.25
2795.39780803392	19545.25
2797.4850548765	19614.75
2799.57172247786	19494.25
2801.65781111324	19201
2803.74332105781	19296.75
2805.82825258661	19250.5
2807.91260597457	19171.5
2809.9963814965	19098.75
2812.07957942711	19120.25
2814.16220004096	18988.5
2816.24424361252	18953.75
2818.32571041614	18875
2820.40660072604	18885.25
2822.48691481631	18871.5
2824.56665296098	18834
2826.64581543388	18769
2828.72440250876	18774
2830.80241445925	18701
2832.87985155885	18703.25
2834.95671408093	18668.25
2837.03300229875	18693
2839.10871648544	18564
2841.18385691399	18550.25
2843.25842385729	18669
2845.33241758808	18547
2847.40583837898	18609
2849.4786865025	18678.75
2851.550962231	18633
2853.6226658367	18667.5
2855.69379759173	18531.5
2857.76435776806	18496.25
2859.83434663753	18513
2861.90376447184	18444
2863.97261154259	18435.5
2866.0408881212	18431
2868.10859447901	18276.75
2870.17573088717	18380.75
2872.24229761673	18289.25
2874.30829493859	18266.75
2876.37372312352	18186.5
2878.43858244215	18187.25
2880.50287316496	18126
2882.56659556231	18088.25
2884.62974990439	18192.5
2886.69233646129	18259.5
2888.75435550293	18135
2890.81580729909	18288.5
2892.87669211941	18107.5
2894.93701023339	18074
2896.99676191039	18091.5
2899.05594741961	18226.75
2901.1145670301	18011.5
2903.1726210108	17883
2905.23010963045	18013
2907.28703315768	17881.5
2909.34339186096	17898.25
2911.39918600861	17946.25
2913.45441586879	17755
2915.50908170952	17851.5
2917.56318379867	17712.5
2919.61672240395	17831
2921.66969779291	17756.5
2923.72211023295	17768.5
2925.77395999134	17738
2927.82524733515	17833.25
2929.87597253132	17728.75
2931.92613584663	17762.25
2933.97573754769	17516.75
2936.02477790097	17457
2938.07325717276	17413.5
2940.1211756292	17497
2942.16853353626	17452.5
2944.21533115976	17469.25
2946.26156876536	17342.25
2948.30724661853	17305.75
2950.3523649846	17423
2952.39692412872	17314.25
2954.44092431587	17225
2956.48436581089	17138.75
2958.52724887843	17216.75
2960.56957378296	17212
2962.6113407888	17262.25
2964.65255016011	17272.5
2966.69320216083	17323.75
2968.73329705479	17146.25
2970.77283510559	17180.25
2972.81181657671	17229
2974.8502417314	17242
2976.88811083279	17362.5
2978.92542414378	17361
2980.96218192713	17379.75
2982.99838444541	17363.75
2985.034031961	17360
2987.06912473612	17409.25
2989.1036630328	17423.5
2991.13764711288	17463.75
2993.17107723804	17369
2995.20395366974	17505
2997.23627666931	17566
2999.26804649782	17626
3001.29926341624	17728.75
3003.32992768528	17635
3005.3600395655	17784.25
3007.38959931726	17754.5
3009.41860720076	17854.5
3011.44706347595	17959.5
3013.47496840263	17788.25
3015.50232224041	17984
3017.5291252487	18041.75
3019.5553776867	17787.75
3021.58107981344	18230.5
3023.60623188773	18288.75
3025.63083416822	18276.75
3027.65488691331	18434
3029.67839038125	18329.5
3031.70134483007	18260.5
3033.72375051759	18450.75
3035.74560770144	18489.25
3037.76691663907	18544.75
3039.78767758768	18543.75
3041.80789080431	18554
3043.82755654577	18642.75
3045.84667506867	18575.5
3047.8652466294	18644.75
3049.88327148418	18662
3051.90074988899	18713.5
3053.91768209961	18735.75
3055.9340683716	18626.5
3057.94990896033	18687
3059.96520412095	18924.25
3061.97995410838	18945.5
3063.99415917734	18881
3066.00781958234	18883
3068.02093557766	18978.75
3070.03350741738	18823
3072.04553535535	18981.75
3074.05701964521	19049.5
3076.06796054036	19074.25
3078.078358294	19069.5
3080.08821315912	19244.5
3082.09752538846	19334.25
3084.10629523454	19087.25
3086.11452294967	19335.25
3088.12220878592	19310.75
3090.12935299515	19398.5
3092.13595582898	19401.25
3094.1420175388	19425
3096.14753837579	19586.75
3098.15251859088	19611.25
3100.15695843477	19561.25
3102.16085815793	19702.5
3104.16421801061	19719.75
3106.16703824282	19732.25
3108.16931910432	19959.5
3110.17106084464	19864.75
3112.17226371308	20024.25
3114.17292795872	20089.5
3116.17305383034	20186.25
3118.17264157657	20147.75
3120.17169144571	20304.25
3122.17020368587	20287.75
3124.16817854492	20356
3126.16561627044	20614
3128.16251710982	20705.25
3130.15888131017	20849
3132.15470911837	20846
3134.15000078104	20971.5
3136.14475654455	20971.75
3138.13897665502	21142
3140.13266135835	21181.25
3142.12581090014	21174.75
3144.11842552577	21356.75
3146.11050548036	21554.5
3148.10205100875	21547.5
3150.09306235557	21724.75
3152.08353976515	21545.75
3154.07348348158	21549.75
3156.06289374869	21872.25
3158.05177081006	21721.5
3160.04011490899	21957.25
3162.02792628852	22133
3164.01520519145	22054.75
3166.00195186029	22216.25
3167.98816653728	22344.75
3169.97384946442	22450.75
3171.95900088344	22385.5
3173.94362103577	22550.25
3175.92771016259	22571
3177.91126850484	22768.75
3179.89429630312	22834
3181.87679379782	22745.25
3183.85876122903	23036
3185.84019883657	23086.5
3187.82110685997	23136
3189.80148553851	23173.5
3191.78133511116	23466.75
3193.76065581664	23558
3195.73944789337	23557.5
3197.7177115795	23583
3199.6954471129	23826.25
3201.67265473114	23866.25
3203.64933467153	23892.25
3205.62548717107	24086.75
3207.60111246648	24319.5
3209.57621079421	24173.25
3211.55078239041	24338.25
3213.52482749093	24378.5
3215.49834633133	24576
3217.4713391469	24942.5
3219.44380617262	24816
3221.41574764317	25066
3223.38716379296	24939.5
3225.35805485607	25271.75
3227.32842106631	25343.75
3229.29826265718	25638.75
3231.26757986187	25583.25
3233.2363729133	25894.75
3235.20464204405	25905
3237.17238748643	26045.75
3239.13960947243	26172
3241.10630823374	26350
3243.07248400174	26408.25
3245.03813700748	26731.75
3247.00326748177	26704.25
3248.96787565503	26795.75
3250.93196175742	27078
3252.89552601877	27066.5
3254.8585686686	27176.75
3256.82108993612	27485.75
3258.78309005022	27412.5
3260.74456923948	27549.25
3262.70552773215	27730.25
3264.66596575617	27945.75
3266.62588353916	27889
3268.58528130843	27922.75
3270.54415929094	27985.5
3272.50251771336	28139.5
3274.46035680201	28563.5
3276.4176767829	28599
3278.37447788171	28512
3280.33076032379	28875
3282.28652433416	28793.5
3284.24177013751	29120
3286.1964979582	29251.25
3288.15070802027	29333
3290.10440054741	29381.75
3292.05757576298	29335.25
3294.01023389001	29642.75
3295.96237515119	29902.25
3297.91399976887	29938.25
3299.86510796506	30060
3301.81569996142	30240
3303.76577597932	30317.25
3305.7153362397	30506.25
3307.66438096324	30598.75
3309.61291037024	30542.25
3311.56092468064	30717.75
3313.50842411404	30700.5
3315.45540888971	31149.5
3317.40187922656	31132
3319.34783534315	31266.25
3321.29327745768	31284
3323.23820578801	31222.75
3325.18262055164	31583.75
3327.1265219657	31502.75
3329.06991024699	31688
3331.01278561194	31851.5
3332.95514827662	31945.5
3334.89699845674	32233
3336.83833636766	32332.25
3338.77916222434	32070.25
3340.71947624143	32496.75
3342.65927863317	32645
3344.59856961346	32729.5
3346.53734939584	33086.5
3348.47561819344	33086.25
3350.41337621906	33109
3352.35062368513	33258.75
3354.28736080368	33363.75
3356.22358778637	33432.75
3358.15930484452	33746.75
3360.09451218904	34065.5
3362.02921003047	34198
3363.96339857898	34379
3365.89707804436	34433.75
3367.83024863602	34587
3369.76291056299	34720.5
3371.69506403389	34775
3373.62670925699	35099.25
3375.55784644016	35349.25
3377.4884757909	35269.5
3379.41859751629	35685.75
3381.34821182305	35757
3383.27731891749	35934
3385.20591900555	36295
3387.13401229276	36396.75
3389.06159898426	36709
3390.9886792848	36906.5
3392.91525339872	37134.75
3394.84132152998	37269.5
3396.76688388213	37327
3398.69194065833	37544.5
3400.61649206133	37754
3402.54053829348	38013.25
3404.46407955672	37949.5
3406.3871160526	37973.5
3408.30964798225	38584.25
3410.23167554639	38564.5
3412.15319894535	38847.25
3414.07421837904	38854.75
3415.99473404695	39043
3417.91474614817	39232.5
3419.83425488136	39461
3421.75326044479	39680.25
3423.67176303631	39574.25
3425.58976285332	39966.5
3427.50726009282	40140
3429.42425495143	40028
3431.34074762528	40267
3433.25673831012	40128.5
3435.17222720127	40322.5
3437.08721449362	40673
3439.00170038164	40381.5
3440.91568505936	40838.25
3442.82916872039	40659.5
3444.74215155791	41030.75
3446.65463376468	41098.75
3448.566615533	41260.75
3450.47809705476	41299.25
3452.3890785214	41418.5
3454.29956012393	41606.75
3456.20954205293	41693.25
3458.11902449853	41688
3460.02800765041	41783.5
3461.93649169784	41960.75
3463.84447682962	41825.75
3465.75196323412	42015
3467.65895109925	42195
3469.56544061249	42212
3471.47143196086	42255.75
3473.37692533093	42470.75
3475.28192090884	42379.75
3477.18641888026	42717.5
3479.09041943039	42674.75
3480.99392274402	42747.5
3482.89692900545	42866.75
3484.79943839853	42857
3486.70145110666	42927.25
3488.60296731277	42850.75
3490.50398719933	42945.25
3492.40451094836	42619.5
3494.30453874141	42905.25
3496.20407075956	43265.5
3498.10310718342	43386
3500.00164819315	43086.5