201.866871357051	754.25
204.754250281454	765.5
207.640596790938	757.5
210.525911876299	754.75
213.410196525689	764
216.293451724508	762.5
219.175678455485	764.5
222.056877698662	759.25
224.937050431388	763
227.816197628363	762
230.694320261602	768.25
233.571419300504	765
236.447495711764	762
239.322550459507	761.5
242.196584505182	770.25
245.069598807626	769
247.941594323078	763.5
250.812572005154	764.5
253.682532804884	763.25
256.551477670699	774
259.419407548456	767.5
262.286323381439	770.25
265.152226110364	773
268.017116673389	775.25
270.880996006115	774.25
273.743865041622	780.75
276.605724710436	777.75
279.466575940562	779.5
282.326419657496	779.5
285.1852567842	775.25
288.043088241157	770.25
290.899914946349	780.25
293.75573781526	788
296.610557760898	789.75
299.464375693817	776.5
302.317192522078	794.75
305.169009151297	784.5
308.019826484655	795.75
310.86964542287	790.5
313.718466864233	779.5
316.566291704614	787
319.413120837457	791.5
322.258955153804	791.25
325.103795542291	781
327.947642889128	786
330.79049807819	784.75
333.632361990927	787.75
336.473235506444	783
339.31311950145	791
342.152014850322	795.25
344.989922425062	798.5
347.826843095354	805
350.662777728528	796
353.497727189577	801.25
356.331692341195	805
359.164674043732	814.75
361.996673155267	809.75
364.827690531536	800
367.65772702602	808.75
370.486783489887	811.25
373.314860772047	806.75
376.14195971912	814.5
378.968081175466	813.5
381.793225983212	814.25
384.617394982201	812
387.44058901005	817.75
390.262808902131	813.5
393.08405549161	817.5
395.904329609395	816.25
398.723632084213	820.5
401.541963742569	819.5
404.359325408779	817.25
407.175717904938	819
409.991142050982	829.75
412.805598664665	823
415.619088561551	819
418.43161255505	827.5
421.243171456415	820.25
424.053766074758	832.25
426.863397217017	826.5
429.672065688024	837.5
432.479772290455	829.25
435.286517824879	825.75
438.092303089736	828.5
440.897128881359	841.25
443.70099599399	833.5
446.503905219761	837.5
449.305857348711	828.5
452.106853168796	845.5
454.906893465919	838.5
457.705979023885	838.5
460.504110624439	841
463.3012890473	841
466.097515070087	845.75
468.892789468424	835.75
471.687113015869	847
474.48048648395	838.25
477.272910642198	840
480.064386258109	834.5
482.854914097159	842.5
485.644494922839	852
488.433129496636	862.5
491.220818578047	849.5
494.007562924584	850
496.793363291785	857.5
499.578220433217	850.5
502.362135100473	853.5
505.145108043209	858
507.927140009098	861
510.708231743909	849.75
513.488383991433	858.25
516.267597493556	855.75
519.04587299022	870.25
521.82321121946	867
524.599612917398	862.5
527.375078818233	871.25
530.149609654287	871
532.923206155967	859.25
535.695869051804	871
538.467599068448	876
541.238396930665	861
544.008263361364	860.75
546.777199081578	873.75
549.545204810493	868
552.312281265436	864
555.078429161898	864.75
557.843649213533	859
560.607942132156	869
563.371308627753	873
566.133749408495	881.75
568.895265180756	880.5
571.655856649064	866.75
574.415524516189	889
577.174269483075	872.75
579.932092248884	883.5
582.688993510994	887.25
585.444973965023	883.5
588.200034304795	888.75
590.95417522237	896.5
593.70739740807	896
596.459701550433	890
599.21108833628	892.5
601.961558450668	878
604.711112576933	886
607.459751396673	887
610.207475589748	880.25
612.954285834338	901.75
615.700182806879	882.75
618.445167182101	891.25
621.189239633055	892
623.932400831087	891
626.674651445839	892.75
629.415992145303	888.75
632.156423595745	883
634.895946461813	894.25
637.634561406449	899.5
640.37226909096	895.5
643.109070174978	893.75
645.844965316508	889.75
648.579955171888	893.75
651.314040395846	903.25
654.047221641456	899
656.779499560176	900
659.510874801828	898
662.241348014642	900.5
664.97091984524	908.75
667.699590938606	904.25
670.427361938164	902.75
673.15423348573	901.5
675.880206221526	905.75
678.605280784206	901.25
681.329457810829	911.25
684.05273793692	909.75
686.775121796389	928.5
689.49661002163	903.5
692.217203243454	903
694.936902091144	914.25
697.655707192425	915.25
700.373619173493	916.75
703.09063865901	917.5
705.806766272093	914
708.522002634378	897.5
711.236348365946	911.75
713.94980408538	909.25
716.662370409762	905.75
719.374047954676	918
722.08483733419	914.75
724.794739160909	913.75
727.503754045949	923.5
730.21188259892	917.25
732.919125427998	911.75
735.625483139855	920.5
738.330956339723	920.5
741.035545631374	918.5
743.739251617106	909.75
746.44207489779	918.25
749.144016072852	926
751.845075740272	916.5
754.545254496603	924.75
757.244552936976	920
759.94297165508	953.5
762.640511243222	929.5
765.337172292249	934.75
768.032955391649	931.5
770.727861129482	940.5
773.421890092413	930
776.11504286572	936.5
778.807320033298	929.25
781.49872217765	929.25
784.18924987991	943.25
786.87890371984	927.5
789.567684275826	943.5
792.255592124908	927
794.94262784276	931.75
797.628792003703	942.5
800.314085180715	929
802.998507945427	931.5
805.682060868145	935
808.364744517821	936
811.046559462105	941.25
813.727506267311	934.5
816.407585498422	933.5
819.08679771913	947.5
821.765143491822	936.25
824.442623377563	940.5
827.119237936127	949
829.794987726003	938
832.469873304377	949.75
835.143895227167	957
837.817054048985	955.75
840.489350323205	950.25
843.160784601892	950.75
845.831357435894	957
848.501069374739	950.5
851.169920966753	960
853.837912758987	955.25
856.505045297232	954
859.171319126071	962.25
861.836734788823	965.5
864.501292827579	975.5
867.164993783208	958.75
869.827838195361	951
872.489826602454	961
875.150959541701	967.5
877.811237549104	966
880.470661159456	953
883.129230906357	954
885.786947322205	955.75
888.443810938206	963.75
891.099822284385	953
893.754981889586	965.75
896.409290281452	966.25
899.062747986485	986.5
901.715355529999	969.25
904.367113436154	954
907.01802222793	967.75
909.668082427172	957
912.317294554574	968.5
914.965659129659	967.75
917.613176670835	977.25
920.259847695364	966
922.90567271936	972.75
925.550652257825	965.5
928.194786824621	963
930.838076932512	972.75
933.480523093109	974.75
936.122125816953	965.25
938.762885613447	974
941.402802990899	975.25
944.041878456523	989.25
946.680112516428	976
949.31750567563	976
951.954058438081	977.25
954.589771306633	968.5
957.224644783048	983.75
959.858679368044	982.75
962.491875561238	980.25
965.12423386121	979.5
967.75575476545	989.5
970.386438770423	981.75
973.016286371501	1008.75
975.645298063046	981
978.273474338355	995
980.900815689674	986
983.527322608243	980.25
986.152995584245	985.25
988.777835106834	1002
991.401841664148	983
994.025015743307	989.5
996.647357830407	981.75
999.268868410534	987.75
1001.88954796777	992.25
1004.50939698518	988
1007.12841594484	996
1009.74660532783	999.75
1012.36396561423	999.75
1014.98049728314	1006.75
1017.59620081267	996
1020.21107667995	998.5
1022.82512536112	1001
1025.43834733138	998.25
1028.05074306493	1001.5
1030.66231303501	1005
1033.27305771392	1023
1035.88297757299	1004
1038.49207308257	1011.75
1041.10034471211	1002.75
1043.70779293008	1009
1046.31441820402	997.5
1048.92022100052	1014
1051.52520178525	1017
1054.12936102295	1050.5
1056.73269917742	1063.75
1059.33521671154	1098.75
1061.93691408729	1100.75
1064.53779176571	1094.75
1067.13785020694	1059.5
1069.73708987022	1044
1072.33551121386	1027.75
1074.93311469528	1027.25
1077.52990077103	1022.75
1080.12586989674	1027.75
1082.72102252714	1017.25
1085.31535911611	1028
1087.90888011663	1034.25
1090.50158598078	1027.75
1093.09347715979	1019.75
1095.68455410403	1028.75
1098.27481726296	1020
1100.86426708523	1018.25
1103.45290401857	1033
1106.04072850991	1028.75
1108.6277410053	1035
1111.21394194993	1036.5
1113.79933178816	1039.5
1116.3839109635	1039.5
1118.96767991862	1053.25
1121.55063909539	1072.25
1124.13278893477	1092.25
1126.71412987696	1141.5
1129.29466236132	1159.25
1131.87438682637	1131.25
1134.45330370982	1082
1137.03141344858	1063.5
1139.60871647872	1038
1142.18521323554	1038.5
1144.7609041535	1025.75
1147.33578966629	1035.75
1149.90987020676	1054.75
1152.48314620702	1032
1155.05561809835	1052.25
1157.62728631125	1050.25
1160.19815127545	1047.5
1162.76821341988	1065.5
1165.33747317271	1064
1167.90593096133	1058.25
1170.47358721235	1055
1173.04044235163	1047.75
1175.60649680425	1051.5
1178.17175099454	1040
1180.73620534607	1044.75
1183.29986028165	1039.5
1185.86271622336	1045.5
1188.42477359249	1053.5
1190.98603280964	1034.25
1193.54649429462	1041.75
1196.10615846653	1048.5
1198.66502574372	1039.75
1201.22309654385	1037
1203.78037128378	1054.75
1206.33685037971	1053.5
1208.89253424709	1045.5
1211.44742330063	1038
1214.00151795438	1047.25
1216.55481862163	1052.25
1219.10732571497	1049
1221.65903964631	1044.25
1224.20996082683	1047.5
1226.760089667	1057.5
1229.30942657664	1050.5
1231.85797196483	1063
1234.40572623998	1053.25
1236.95268980981	1056.25
1239.49886308136	1066
1242.04424646098	1068.75
1244.58884035435	1068
1247.13264516647	1066
1249.67566130166	1067.5
1252.21788916358	1068
1254.75932915524	1065
1257.29998167896	1092.25
1259.83984713639	1067.25
1262.37892592857	1079.25
1264.91721845586	1078.75
1267.45472511795	1090.25
1269.9914463139	1088.25
1272.52738244213	1091
1275.0625339004	1084
1277.59690108587	1093.5
1280.130484395	1099
1282.66328422367	1093.5
1285.19530096712	1113
1287.72653501993	1126.75
1290.25698677608	1169.25
1292.78665662894	1237.75
1295.31554497125	1240.5
1297.8436521951	1220.25
1300.37097869203	1151.75
1302.89752485292	1117.75
1305.42329106805	1121.25
1307.94827772713	1131.5
1310.47248521921	1113.5
1312.99591393279	1122.75
1315.51856425575	1116
1318.04043657536	1124.25
1320.56153127836	1123.75
1323.08184875083	1130.25
1325.6013893783	1126
1328.12015354572	1120.25
1330.63814163744	1133.25
1333.15535403727	1129
1335.67179112839	1131.5
1338.18745329347	1127
1340.70234091454	1133
1343.21645437314	1123.5
1345.72979405019	1136.5
1348.24236032607	1144.25
1350.75415358059	1152.5
1353.26517419303	1162
1355.7754225421	1153
1358.28489900594	1154.5
1360.79360396218	1151
1363.30153778787	1148.25
1365.80870085955	1167.75
1368.31509355319	1180.25
1370.82071624424	1179.75
1373.32556930762	1165
1375.8296531177	1164.75
1378.33296804832	1173
1380.83551447282	1155.75
1383.33729276399	1164.5
1385.83830329408	1173.25
1388.33854643489	1162
1390.83802255762	1162.75
1393.33673203301	1164.5
1395.83467523128	1167
1398.33185252211	1164.5
1400.82826427471	1169.5
1403.32391085777	1172.5
1405.81879263947	1177
1408.31290998752	1191.25
1410.80626326908	1211.5
1413.29885285087	1238.5
1415.79067909909	1249
1418.28174237944	1259.75
1420.77204305717	1225.25
1423.26158149702	1237.25
1425.75035806323	1216
1428.2383731196	1224.25
1430.72562702942	1246
1433.21212015554	1263.75
1435.69785286028	1308
1438.18282550555	1322
1440.66703845275	1322.5
1443.15049206284	1313.5
1445.6331866963	1284
1448.11512271316	1300.75
1450.59630047298	1292.5
1453.07672033486	1301.25
1455.55638265748	1307.25
1458.03528779902	1314.5
1460.51343611725	1303.25
1462.99082796946	1322.5
1465.46746371252	1313.5
1467.94334370285	1318
1470.41846829642	1309.25
1472.89283784878	1294.75
1475.36645271503	1304.5
1477.83931324983	1284.75
1480.31141980743	1286.5
1482.78277274164	1302.75
1485.25337240583	1287.5
1487.72321915297	1300.5
1490.19231333557	1289.25
1492.66065530578	1297.75
1495.12824541525	1302.5
1497.5950840153	1302.25
1500.06117145678	1302
1502.52650809014	1307.5
1504.99109426543	1312.5
1507.45493033227	1330.5
1509.91801663992	1314
1512.38035353717	1313.25
1514.84194137248	1332.25
1517.30278049386	1343.25
1519.76287124894	1336.5
1522.22221398497	1343.25
1524.68080904876	1342.75
1527.13865678681	1336.75
1529.59575754514	1356.5
1532.05211166945	1352
1534.50771950503	1379.25
1536.96258139678	1384
1539.41669768924	1383.75
1541.87006872656	1399
1544.32269485252	1382
1546.77457641051	1409.25
1549.22571374357	1407.75
1551.67610719434	1404.25
1554.12575710513	1402
1556.57466381785	1419.5
1559.02282767408	1423
1561.47024901499	1427
1563.91692818144	1450.75
1566.3628655139	1443.75
1568.80806135249	1462
1571.252516037	1460.75
1573.6962299068	1476.75
1576.13920330099	1455.5
1578.58143655828	1462.75
1581.02293001704	1481.25
1583.46368401528	1475.75
1585.90369889071	1502.75
1588.34297498065	1490
1590.7815126221	1503.5
1593.21931215173	1498.75
1595.65637390588	1505.75
1598.09269822053	1495
1600.52828543135	1518.25
1602.96313587367	1521.75
1605.3972498825	1509.5
1607.83062779252	1506.25
1610.26326993808	1510.75
1612.69517665322	1511.75
1615.12634827165	1546.75
1617.55678512676	1519.75
1619.98648755163	1530
1622.41545587902	1515.75
1624.84369044138	1539.25
1627.27119157085	1547.25
1629.69795959924	1537
1632.12399485808	1554.25
1634.54929767859	1544.75
1636.97386839165	1564.5
1639.39770732789	1574.75
1641.8208148176	1574.5
1644.24319119078	1571.5
1646.66483677715	1559
1649.0857519061	1588.25
1651.50593690677	1577
1653.92539210795	1576.5
1656.3441178382	1580.25
1658.76211442575	1594.75
1661.17938219855	1607.75
1663.59592148428	1600.25
1666.01173261032	1606.75
1668.42681590377	1616.25
1670.84117169145	1626
1673.25480029991	1629
1675.66770205541	1624.75
1678.07987728393	1619.75
1680.49132631119	1665.25
1682.90204946263	1634.5
1685.31204706342	1667.5
1687.72131943846	1663.5
1690.1298669124	1668.75
1692.53768980957	1676.25
1694.94478845411	1679.5
1697.35116316982	1701.25
1699.75681428031	1687.25
1702.16174210887	1698
1704.56594697858	1695.25
1706.96942921222	1696.75
1709.37218913235	1681.75
1711.77422706125	1692
1714.17554332098	1700.25
1716.5761382333	1720
1718.97601211977	1695
1721.37516530169	1717.25
1723.77359810006	1727.5
1726.17131083572	1715
1728.56830382922	1708.25
1730.96457740087	1731.75
1733.36013187075	1707
1735.75496755868	1705.75
1738.14908478428	1710
1740.54248386689	1716.5
1742.93516512565	1730.5
1745.32712887946	1745.25
1747.71837544697	1747.25
1750.10890514662	1728
1752.49871829661	1734
1754.88781521492	1747.5
1757.27619621929	1760
1759.66386162726	1763.25
1762.05081175612	1767
1764.43704692297	1769.25
1766.82256744465	1758.5
1769.20737363782	1798
1771.59146581887	1784.5
1773.97484430405	1796.75
1776.35750940932	1808.75
1778.73946145048	1802.5
1781.12070074309	1802.5
1783.50122760249	1807
1785.88104234385	1828.75
1788.26014528209	1855.75
1790.63853673196	1831.5
1793.01621700796	1829.25
1795.39318642443	1843.75
1797.76944529549	1854.25
1800.14499393503	1836.75
1802.51983265681	1851.25
1804.8939617743	1877.5
1807.26738160085	1862.5
1809.64009244957	1881.5
1812.01209463339	1880.5
1814.38338846504	1887
1816.75397425706	1874
1819.12385232181	1896.25
1821.49302297142	1893.25
1823.86148651789	1897.75
1826.22924327299	1897.25
1828.59629354831	1919.25
1830.96263765526	1915.75
1833.32827590507	1929
1835.69320860877	1916.25
1838.05743607724	1935.75
1840.42095862113	1938.5
1842.78377655097	1922
1845.14589017707	1951
1847.50729980956	1933.5
1849.86800575843	1937.5
1852.22800833346	1954
1854.58730784427	1950
1856.94590460032	1939.5
1859.30379891087	1946.75
1861.66099108503	1966
1864.01748143175	1976
1866.37327025978	1961
1868.72835787773	1971.25
1871.08274459403	1984.25
1873.43643071697	1981.25
1875.78941655464	2002.25
1878.14170241498	1988.5
1880.4932886058	2003.75
1882.84417543469	2018
1885.19436320915	1999.5
1887.54385223646	2025.5
1889.89264282378	2033
1892.24073527809	2033
1894.58812990625	2029.25
1896.93482701493	2060
1899.28082691067	2056.5
1901.62612989984	2053.75
1903.97073628868	2057.75
1906.31464638326	2052.25
1908.6578604895	2085.5
1911.00037891321	2092
1913.34220196	2102.75
1915.68332993537	2115.25
1918.02376314468	2123
1920.36350189311	2096.5
1922.70254648573	2103
1925.04089722744	2087.75
1927.37855442303	2100
1929.71551837715	2116.25
1932.05178939426	2102
1934.38736777876	2125.25
1936.72225383484	2121.5
1939.0564478666	2139.75
1941.38995017799	2150.5
1943.72276107283	2122.75
1946.05488085479	2125.5
1948.38630982744	2106.25
1950.71704829419	2140.25
1953.04709655832	2106.25
1955.376454923	2123.75
1957.70512369126	2100
1960.03310316599	2141.75
1962.36039364999	2126.75
1964.68699544589	2112.5
1967.01290885622	2135.75
1969.33813418338	2138.5
1971.66267172965	2147
1973.98652179718	2169.5
1976.309684688	2179.25
1978.63216070402	2176.5
1980.95395014705	2163
1983.27505331873	2162.25
1985.59547052063	2173.25
1987.9152020542	2155.75
1990.23424822074	2146.25
1992.55260932146	2163
1994.87028565746	2148
1997.18727752968	2183.75
1999.503585239	2181.25
2001.81920908618	2193.25
2004.13414937184	2226.25
2006.44840639651	2232.5
2008.7619804606	2208.25
2011.07487186442	2235.5
2013.38708090815	2238
2015.6986078919	2231.5
2018.00945311564	2234.75
2020.31961687923	2251.75
2022.62909948246	2267.5
2024.93790122498	2259
2027.24602240636	2262
2029.55346332604	2277.5
2031.86022428337	2246.5
2034.16630557761	2273.25
2036.47170750791	2288
2038.77643037331	2298.5
2041.08047447275	2277.25
2043.38384010509	2276.75
2045.68652756907	2291.5
2047.98853716335	2268.25
2050.28986918648	2296
2052.59052393692	2323.5
2054.89050171302	2311.75
2057.18980281306	2355.5
2059.4884275352	2315.75
2061.78637617753	2332.25
2064.08364903802	2312.5
2066.38024641457	2323.25
2068.67616860497	2314
2070.97141590694	2322.25
2073.26598861809	2347.75
2075.55988703595	2314.5
2077.85311145796	2348
2080.14566218145	2349.5
2082.43753950371	2366.75
2084.72874372188	2342
2087.01927513307	2362.75
2089.30913403428	2344.25
2091.59832072241	2358.5
2093.88683549429	2363.25
2096.17467864666	2364
2098.46185047619	2381.75
2100.74835127944	2365.5
2103.03418135292	2387.25
2105.31934099303	2357
2107.6038304961	2396.25
2109.88765015838	2410
2112.17080027602	2381.5
2114.45328114513	2415.75
2116.7350930617	2413.5
2119.01623632165	2414.25
2121.29671122085	2434.25
2123.57651805505	2435
2125.85565711996	2436.25
2128.13412871117	2451.25
2130.41193312424	2458
2132.68907065462	2437.5
2134.96554159771	2462.5
2137.24134624881	2462
2139.51648490317	2501.5
2141.79095785593	2495.5
2144.0647654022	2495.5
2146.33790783698	2494.75
2148.61038545524	2457
2150.88219855182	2522
2153.15334742154	2505.75
2155.42383235911	2509
2157.6936536592	2518.25
2159.9628116164	2512.5
2162.23130652522	2522.75
2164.49913868011	2523.75
2166.76630837544	2522.75
2169.03281590552	2520.75
2171.2986615646	2520.5
2173.56384564685	2537.75
2175.82836844637	2554
2178.0922302572	2542.25
2180.35543137332	2521.5
2182.61797208862	2559.75
2184.87985269695	2521
2187.14107349208	2560
2189.40163476773	2540.25
2191.66153681753	2549.25
2193.92077993507	2540.5
2196.17936441386	2547.5
2198.43729054735	2548.75
2200.69455862894	2532.5
2202.95116895194	2513
2205.20712180962	2523.5
2207.46241749519	2514.5
2209.71705630179	2560.25
2211.97103852248	2551.5
2214.2243644503	2537.5
2216.47703437819	2546.25
2218.72904859905	2514.5
2220.98040740571	2498.25
2223.23111109095	2532
2225.4811599475	2524.5
2227.73055426799	2564.75
2229.97929434504	2532
2232.22738047118	2528
2234.47481293889	2546.75
2236.72159204058	2517.25
2238.96771806864	2538.75
2241.21319131536	2516.75
2243.458012073	2533.5
2245.70218063374	2545
2247.94569728973	2535.75
2250.18856233304	2513.75
2252.4307760557	2492.75
2254.67233874967	2529.25
2256.91325070687	2531.75
2259.15351221915	2519.25
2261.39312357831	2522
2263.63208507611	2503.75
2265.87039700422	2544.5
2268.1080596543	2566.75
2270.34507331792	2526.25
2272.5814382866	2506.25
2274.81715485183	2525
2277.05222330502	2529.75
2279.28664393755	2544
2281.52041704072	2516.25
2283.75354290581	2518
2285.98602182401	2525.75
2288.21785408648	2504.75
2290.44903998434	2515.75
2292.67957980862	2531
2294.90947385033	2496
2297.1387224004	2501
2299.36732574975	2494.5
2301.59528418921	2490
2303.82259800958	2505.75
2306.04926750158	2509.75
2308.27529295593	2498
2310.50067466325	2526.25
2312.72541291412	2502.75
2314.9495079991	2469.75
2317.17296020866	2497.25
2319.39576983323	2488.5
2321.61793716322	2505.5
2323.83946248894	2494
2326.06034610069	2464.75
2328.28058828871	2461.25
2330.50018934317	2459.5
2332.7191495542	2507.25
2334.93746921192	2470
2337.15514860633	2469.25
2339.37218802743	2492.75
2341.58858776516	2471
2343.80434810941	2467.75
2346.01946935001	2473
2348.23395177675	2444.5
2350.44779567939	2473
2352.66100134759	2449.5
2354.87356907101	2447.75
2357.08549913925	2434.5
2359.29679184185	2437.75
2361.50744746829	2443.5
2363.71746630804	2454.5
2365.92684865048	2426
2368.13559478499	2439
2370.34370500083	2443.75
2372.55117958727	2453
2374.75801883352	2430.75
2376.96422302874	2417.25
2379.16979246202	2426.5
2381.37472742243	2391.25
2383.57902819898	2406.5
2385.78269508063	2376.25
2387.98572835629	2417.75
2390.18812831482	2395.5
2392.38989524505	2396.75
2394.59102943573	2388.5
2396.79153117559	2389.5
2398.9914007533	2379
2401.19063845748	2373.25
2403.38924457672	2376.75
2405.58721939951	2378.25
2407.78456321435	2376.25
2409.98127630966	2385.5
2412.17735897382	2373.75
2414.37281149517	2346.75
2416.56763416198	2389.25
2418.76182726249	2372.5
2420.95539108487	2385.75
2423.14832591726	2343.25
2425.34063204776	2380.5
2427.53230976439	2344.75
2429.72335935513	2377.25
2431.91378110795	2358.25
2434.10357531071	2323.25
2436.29274225125	2359.5
2438.48128221739	2316.5
2440.66919549683	2321.25
2442.8564823773	2351
2445.04314314641	2311.75
2447.22917809176	2364
2449.4145875009	2325
2451.59937166131	2317.5
2453.78353086044	2341.75
2455.96706538568	2317.25
2458.14997552436	2313.5
2460.33226156379	2309
2462.51392379119	2318.75
2464.69496249376	2294
2466.87537795862	2301.5
2469.05517047288	2289
2471.23434032357	2280
2473.41288779767	2331.5
2475.59081318211	2293.25
2477.76811676378	2311.25
2479.9447988295	2275.75
2482.12085966605	2280.5
2484.29629956016	2281
2486.4711187985	2266
2488.64531766769	2275.25
2490.8188964543	2263.5
2492.99185544484	2249.5
2495.16419492579	2261.25
2497.33591518353	2258.75
2499.50701650444	2265.5
2501.67749917482	2283.25
2503.84736348091	2260
2506.01660970891	2260.25
2508.18523814496	2251.75
2510.35324907514	2235.75
2512.52064278551	2269.75
2514.68741956201	2240.5
2516.85357969058	2271.75
2519.01912345709	2244
2521.18405114735	2257.25
2523.34836304711	2219.75
2525.51205944208	2247.75
2527.6751406179	2240
2529.83760686016	2240.25
2531.99945845439	2253.5
2534.16069568606	2238
2536.3213188406	2259.25
2538.48132820336	2221
2540.64072405965	2258.25
2542.79950669471	2226
2544.95767639373	2239.25
2547.11523344184	2238
2549.27217812411	2234
2551.42851072555	2233.5
2553.58423153111	2211.5
2555.73934082569	2208.5
2557.89383889412	2217
2560.04772602118	2227.75
2562.20100249158	2203
2564.35366858996	2199
2566.50572460093	2203
2568.65717080901	2175
2570.80800749867	2196.25
2572.95823495433	2177.75
2575.10785346031	2183
2577.25686330093	2188.75
2579.40526476038	2140
2581.55305812282	2171.25
2583.70024367237	2156.5
2585.84682169303	2157.25
2587.99279246879	2160
2590.13815628354	2150.5
2592.28291342112	2157.25
2594.42706416531	2165.25
2596.5706087998	2132.75
2598.71354760826	2141.25
2600.85588087425	2128.25
2602.99760888127	2125.5
2605.13873191278	2141.25
2607.27925025214	2138.25
2609.41916418269	2127.25
2611.55847398764	2128.25
2613.69717995017	2123.75
2615.83528235339	2142.25
2617.97278148034	2131
2620.10967761398	2119.75
2622.2459710372	2155.5
2624.38166203284	2148.25
2626.51675088365	2122.25
2628.65123787231	2129.5
2630.78512328145	2114.75
2632.9184073936	2147.5
2635.05109049124	2106.75
2637.18317285676	2114.75
2639.31465477248	2108
2641.44553652067	2120
2643.5758183835	2127.5
2645.70550064309	2133.5
2647.83458358144	2111
2649.96306748053	2142
2652.09095262223	2123
2654.21823928836	2141.5
2656.34492776063	2109.75
2658.47101832071	2112.5
2660.59651125015	2121.5
2662.72140683047	2113.5
2664.84570534309	2115.5
2666.96940706934	2121.25
2669.0925122905	2085.5
2671.21502128773	2108.25
2673.33693434215	2124.75
2675.45825173479	2124.5
2677.57897374658	2094.75
2679.69910065839	2098
2681.818632751	2135.25
2683.93757030511	2112.75
2686.05591360133	2102
2688.17366292021	2116.25
2690.29081854218	2103.5
2692.40738074762	2094.25
2694.52334981681	2106.75
2696.63872602995	2082.25
2698.75350966713	2106.75
2700.86770100841	2118.25
2702.98130033371	2100.25
2705.09430792289	2139.75
2707.20672405571	2107
2709.31854901185	2126.25
2711.42978307091	2118.25
2713.54042651238	2128.75
2715.65047961567	2139.5
2717.7599426601	2145
2719.86881592491	2149.25
2721.97709968924	2128.25
2724.08479423213	2121.25
2726.19189983255	2141
2728.29841676934	2097.75
2730.4043453213	2110.5
2732.5096857671	2115
2734.61443838532	2098.25
2736.71860345444	2080.25
2738.82218125286	2103
2740.92517205889	2073.5
2743.02757615072	2087.5
2745.12939380646	2091.5
2747.23062530411	2094.5
2749.33127092159	2097.5
2751.4313309367	2080
2753.53080562716	2094.5
2755.62969527058	2090.5
2757.72800014448	2091.25
2759.82572052625	2085.75
2761.92285669323	2070.25
2764.0194089226	2112
2766.11537749147	2098.5
2768.21076267686	2077.25
2770.30556475566	2068.5
2772.39978400465	2105.25
2774.49342070054	2093.25
2776.58647511991	2088.25
2778.67894753923	2070.25
2780.77083823487	2082.75
2782.8621474831	2070
2784.95287556007	2075.25
2787.04302274184	2078.75
2789.13258930433	2092.25
2791.22157552338	2101.25
2793.30998167471	2068.5
2795.39780803392	2100.5
2797.4850548765	2091.5
2799.57172247786	2070
2801.65781111324	2059.5
2803.74332105781	2077.75
2805.82825258661	2080.75
2807.91260597457	2104.25
2809.9963814965	2066
2812.07957942711	2103.75
2814.16220004096	2049.75
2816.24424361252	2106.25
2818.32571041614	2099.5
2820.40660072604	2081.25
2822.48691481631	2105.5
2824.56665296098	2123.75
2826.64581543388	2128.75
2828.72440250876	2190.75
2830.80241445925	2197
2832.87985155885	2272.75
2834.95671408093	2324.5
2837.03300229875	2417.5
2839.10871648544	2567
2841.18385691399	2712.25
2843.25842385729	2800.75
2845.33241758808	2912.5
2847.40583837898	2975
2849.4786865025	2959.75
2851.550962231	2878.25
2853.6226658367	2831.25
2855.69379759173	2729.25
2857.76435776806	2656.25
2859.83434663753	2620.25
2861.90376447184	2602.5
2863.97261154259	2547.5
2866.0408881212	2538.75
2868.10859447901	2545.5
2870.17573088717	2576.5
2872.24229761673	2608.5
2874.30829493859	2643.5
2876.37372312352	2785
2878.43858244215	2971.25
2880.50287316496	3150
2882.56659556231	3127.5
2884.62974990439	2897.5
2886.69233646129	2739
2888.75435550293	2643.5
2890.81580729909	2594.5
2892.87669211941	2591.25
2894.93701023339	2570.75
2896.99676191039	2588.5
2899.05594741961	2582
2901.1145670301	2514.25
2903.1726210108	2515
2905.23010963045	2489.75
2907.28703315768	2452.25
2909.34339186096	2486
2911.39918600861	2399.25
2913.45441586879	2420.5
2915.50908170952	2403.5
2917.56318379867	2394.75
2919.61672240395	2378.5
2921.66969779291	2392.25
2923.72211023295	2382
2925.77395999134	2380.75
2927.82524733515	2394.75
2929.87597253132	2374.75
2931.92613584663	2378.5
2933.97573754769	2337.25
2936.02477790097	2335.75
2938.07325717276	2288.75
2940.1211756292	2279
2942.16853353626	2268
2944.21533115976	2246.5
2946.26156876536	2202
2948.30724661853	2182.5
2950.3523649846	2198.5
2952.39692412872	2185.25
2954.44092431587	2170.25
2956.48436581089	2155.5
2958.52724887843	2170.25
2960.56957378296	2173.5
2962.6113407888	2172.5
2964.65255016011	2155
2966.69320216083	2150.75
2968.73329705479	2144
2970.77283510559	2141.5
2972.81181657671	2148.25
2974.8502417314	2188.5
2976.88811083279	2146
2978.92542414378	2144.75
2980.96218192713	2143.5
2982.99838444541	2155.75
2985.034031961	2151.75
2987.06912473612	2138.5
2989.1036630328	2161.25
2991.13764711288	2180.25
2993.17107723804	2161.25
2995.20395366974	2184.5
2997.23627666931	2179.75
2999.26804649782	2184
3001.29926341624	2170.5
3003.32992768528	2185.5
3005.3600395655	2165.5
3007.38959931726	2219.75
3009.41860720076	2184.5
3011.44706347595	2194.75
3013.47496840263	2198.75
3015.50232224041	2222.75
3017.5291252487	2208.25
3019.5553776867	2210.25
3021.58107981344	2210
3023.60623188773	2231.25
3025.63083416822	2218.75
3027.65488691331	2216.5
3029.67839038125	2214.5
3031.70134483007	2208.5
3033.72375051759	2235.75
3035.74560770144	2243
3037.76691663907	2245.5
3039.78767758768	2240.25
3041.80789080431	2248
3043.82755654577	2230.5
3045.84667506867	2256.5
3047.8652466294	2243
3049.88327148418	2248.75
3051.90074988899	2252
3053.91768209961	2275.25
3055.9340683716	2248.75
3057.94990896033	2234.25
3059.96520412095	2240
3061.97995410838	2249.75
3063.99415917734	2249.75
3066.00781958234	2220
3068.02093557766	2260.25
3070.03350741738	2244.25
3072.04553535535	2255.5
3074.05701964521	2251.25
3076.06796054036	2263
3078.078358294	2253
3080.08821315912	2259.5
3082.09752538846	2270.5
3084.10629523454	2227
3086.11452294967	2270.75
3088.12220878592	2260.25
3090.12935299515	2248.5
3092.13595582898	2260
3094.1420175388	2227.5
3096.14753837579	2243
3098.15251859088	2229.75
3100.15695843477	2262.25
3102.16085815793	2231.5
3104.16421801061	2267.75
3106.16703824282	2245.25
3108.16931910432	2267
3110.17106084464	2239.25
3112.17226371308	2243.25
3114.17292795872	2255.25
3116.17305383034	2254.75
3118.17264157657	2246.75
3120.17169144571	2285.5
3122.17020368587	2266.25
3124.16817854492	2297.75
3126.16561627044	2291
3128.16251710982	2285.75
3130.15888131017	2277.75
3132.15470911837	2265.25
3134.15000078104	2299.25
3136.14475654455	2294
3138.13897665502	2312.25
3140.13266135835	2287.25
3142.12581090014	2299.5
3144.11842552577	2330.5
3146.11050548036	2308.25
3148.10205100875	2307
3150.09306235557	2316.25
3152.08353976515	2316.75
3154.07348348158	2293.25
3156.06289374869	2341.75
3158.05177081006	2316.25
3160.04011490899	2293.75
3162.02792628852	2302.5
3164.01520519145	2297.5
3166.00195186029	2300
3167.98816653728	2317.5
3169.97384946442	2283.75
3171.95900088344	2312.75
3173.94362103577	2318.25
3175.92771016259	2314
3177.91126850484	2327
3179.89429630312	2290.5
3181.87679379782	2296.75
3183.85876122903	2335
3185.84019883657	2322.25
3187.82110685997	2309
3189.80148553851	2319.75
3191.78133511116	2351.5
3193.76065581664	2344.5
3195.73944789337	2343.25
3197.7177115795	2345.5
3199.6954471129	2329.25
3201.67265473114	2326.5
3203.64933467153	2319.75
3205.62548717107	2340
3207.60111246648	2325.25
3209.57621079421	2327.75
3211.55078239041	2324.75
3213.52482749093	2338.5
3215.49834633133	2352.25
3217.4713391469	2349.5
3219.44380617262	2368
3221.41574764317	2376
3223.38716379296	2384.5
3225.35805485607	2357.25
3227.32842106631	2362.75
3229.29826265718	2389.5
3231.26757986187	2376.5
3233.2363729133	2355.75
3235.20464204405	2352
3237.17238748643	2383.25
3239.13960947243	2411
3241.10630823374	2399.5
3243.07248400174	2390.75
3245.03813700748	2391.5
3247.00326748177	2405
3248.96787565503	2404.5
3250.93196175742	2431.5
3252.89552601877	2427.25
3254.8585686686	2403.25
3256.82108993612	2448.25
3258.78309005022	2418.75
3260.74456923948	2417.5
3262.70552773215	2402.5
3264.66596575617	2436.25
3266.62588353916	2400.5
3268.58528130843	2403.5
3270.54415929094	2418.25
3272.50251771336	2401
3274.46035680201	2422.25
3276.4176767829	2408.5
3278.37447788171	2411.25
3280.33076032379	2430
3282.28652433416	2428.25
3284.24177013751	2442.25
3286.1964979582	2418.25
3288.15070802027	2416.75
3290.10440054741	2415.75
3292.05757576298	2430
3294.01023389001	2429.75
3295.96237515119	2417.75
3297.91399976887	2474.25
3299.86510796506	2460.75
3301.81569996142	2438.75
3303.76577597932	2433.75
3305.7153362397	2417.5
3307.66438096324	2436.5
3309.61291037024	2415
3311.56092468064	2409.75
3313.50842411404	2423.25
3315.45540888971	2427.5
3317.40187922656	2418
3319.34783534315	2431.75
3321.29327745768	2436.5
3323.23820578801	2404.75
3325.18262055164	2441.75
3327.1265219657	2414.5
3329.06991024699	2414.5
3331.01278561194	2421.25
3332.95514827662	2398.25
3334.89699845674	2454.5
3336.83833636766	2419.75
3338.77916222434	2405
3340.71947624143	2406.25
3342.65927863317	2424
3344.59856961346	2386.5
3346.53734939584	2406.25
3348.47561819344	2410.75
3350.41337621906	2393.5
3352.35062368513	2433.5
3354.28736080368	2409.25
3356.22358778637	2397.75
3358.15930484452	2409.25
3360.09451218904	2416.25
3362.02921003047	2401
3363.96339857898	2431.75
3365.89707804436	2420
3367.83024863602	2395.75
3369.76291056299	2386
3371.69506403389	2402.25
3373.62670925699	2412
3375.55784644016	2440.75
3377.4884757909	2408.25
3379.41859751629	2418
3381.34821182305	2411.75
3383.27731891749	2429.25
3385.20591900555	2427.75
3387.13401229276	2414.25
3389.06159898426	2433.25
3390.9886792848	2446.75
3392.91525339872	2444
3394.84132152998	2454.75
3396.76688388213	2445.75
3398.69194065833	2429.5
3400.61649206133	2456.75
3402.54053829348	2457.5
3404.46407955672	2401.25
3406.3871160526	2442.25
3408.30964798225	2451.75
3410.23167554639	2427.75
3412.15319894535	2451
3414.07421837904	2434.5
3415.99473404695	2459.5
3417.91474614817	2421.75
3419.83425488136	2448
3421.75326044479	2425
3423.67176303631	2438
3425.58976285332	2442.25
3427.50726009282	2461
3429.42425495143	2436
3431.34074762528	2431.5
3433.25673831012	2431.25
3435.17222720127	2427.75
3437.08721449362	2444.5
3439.00170038164	2429.5
3440.91568505936	2426.75
3442.82916872039	2433.75
3444.74215155791	2430.75
3446.65463376468	2437.5
3448.566615533	2423.75
3450.47809705476	2395
3452.3890785214	2436
3454.29956012393	2412.75
3456.20954205293	2442.5
3458.11902449853	2444.25
3460.02800765041	2407.25
3461.93649169784	2409.5
3463.84447682962	2440.5
3465.75196323412	2397.5
3467.65895109925	2405.25
3469.56544061249	2413.75
3471.47143196086	2400.25
3473.37692533093	2389.25
3475.28192090884	2375.25
3477.18641888026	2392.5
3479.09041943039	2408.75
3480.99392274402	2396.25
3482.89692900545	2386.25
3484.79943839853	2401.75
3486.70145110666	2415
3488.60296731277	2372
3490.50398719933	2370
3492.40451094836	2367.25
3494.30453874141	2383.5
3496.20407075956	2389.75
3498.10310718342	2408
3500.00164819315	2373.75