201.866871357051	764.666687011719
204.754250281454	762
207.640596790938	764
210.525911876299	764.666687011719
213.410196525689	771.833312988281
216.293451724508	761.5
219.175678455485	761.666687011719
222.056877698662	766.333312988281
224.937050431388	765.666687011719
227.816197628363	769.666687011719
230.694320261602	763.333312988281
233.571419300504	757.333312988281
236.447495711764	773.5
239.322550459507	776.5
242.196584505182	776.333312988281
245.069598807626	784
247.941594323078	778.5
250.812572005154	774.833312988281
253.682532804884	779
256.551477670699	777.333312988281
259.419407548456	779.833312988281
262.286323381439	778.166687011719
265.152226110364	776
268.017116673389	764.666687011719
270.880996006115	774.833312988281
273.743865041622	774.333312988281
276.605724710436	768.833312988281
279.466575940562	765.833312988281
282.326419657496	776
285.1852567842	775.5
288.043088241157	774.166687011719
290.899914946349	768.166687011719
293.75573781526	781
296.610557760898	776.5
299.464375693817	772.666687011719
302.317192522078	769
305.169009151297	777.333312988281
308.019826484655	780
310.86964542287	775.833312988281
313.718466864233	773.166687011719
316.566291704614	774.166687011719
319.413120837457	779.5
322.258955153804	772.833312988281
325.103795542291	778.5
327.947642889128	777.833312988281
330.79049807819	773
333.632361990927	783.5
336.473235506444	769.666687011719
339.31311950145	773.333312988281
342.152014850322	773.833312988281
344.989922425062	778.333312988281
347.826843095354	774.166687011719
350.662777728528	780.833312988281
353.497727189577	777.666687011719
356.331692341195	780.833312988281
359.164674043732	787
361.996673155267	790.833312988281
364.827690531536	791
367.65772702602	785.166687011719
370.486783489887	785.833312988281
373.314860772047	788.833312988281
376.14195971912	795.833312988281
378.968081175466	790.5
381.793225983212	791.5
384.617394982201	786.833312988281
387.44058901005	796.666687011719
390.262808902131	794.333312988281
393.08405549161	809.833312988281
395.904329609395	816
398.723632084213	821.666687011719
401.541963742569	826.333312988281
404.359325408779	818.5
407.175717904938	807.666687011719
409.991142050982	796.833312988281
412.805598664665	801.333312988281
415.619088561551	802.666687011719
418.43161255505	792.666687011719
421.243171456415	790.5
424.053766074758	797.833312988281
426.863397217017	795.5
429.672065688024	801.5
432.479772290455	796.833312988281
435.286517824879	793
438.092303089736	802.333312988281
440.897128881359	807.833312988281
443.70099599399	802.333312988281
446.503905219761	797.5
449.305857348711	806.833312988281
452.106853168796	818.833312988281
454.906893465919	810
457.705979023885	810.5
460.504110624439	809.333312988281
463.3012890473	798
466.097515070087	804.333312988281
468.892789468424	803.333312988281
471.687113015869	800
474.48048648395	800
477.272910642198	803.5
480.064386258109	799.166687011719
482.854914097159	796.833312988281
485.644494922839	796.166687011719
488.433129496636	797.666687011719
491.220818578047	792.166687011719
494.007562924584	802.5
496.793363291785	798.5
499.578220433217	809.333312988281
502.362135100473	801.666687011719
505.145108043209	800.333312988281
507.927140009098	808.333312988281
510.708231743909	809.666687011719
513.488383991433	805.166687011719
516.267597493556	808.833312988281
519.04587299022	805.333312988281
521.82321121946	816.333312988281
524.599612917398	814.833312988281
527.375078818233	822.833312988281
530.149609654287	813.666687011719
532.923206155967	814.333312988281
535.695869051804	806.666687011719
538.467599068448	802.666687011719
541.238396930665	807.5
544.008263361364	804.333312988281
546.777199081578	809.5
549.545204810493	806.333312988281
552.312281265436	795
555.078429161898	804.833312988281
557.843649213533	808.666687011719
560.607942132156	807.5
563.371308627753	799
566.133749408495	803.5
568.895265180756	804.166687011719
571.655856649064	800.333312988281
574.415524516189	806.333312988281
577.174269483075	819.5
579.932092248884	814.666687011719
582.688993510994	809.5
585.444973965023	819.5
588.200034304795	813.833312988281
590.95417522237	806.166687011719
593.70739740807	822.833312988281
596.459701550433	824
599.21108833628	810.833312988281
601.961558450668	812.5
604.711112576933	801.166687011719
607.459751396673	817
610.207475589748	808
612.954285834338	806.5
615.700182806879	811.5
618.445167182101	813.166687011719
621.189239633055	799.166687011719
623.932400831087	814.5
626.674651445839	809
629.415992145303	820.5
632.156423595745	812.666687011719
634.895946461813	811.833312988281
637.634561406449	819.166687011719
640.37226909096	817.833312988281
643.109070174978	813.166687011719
645.844965316508	815.666687011719
648.579955171888	818.833312988281
651.314040395846	804.833312988281
654.047221641456	804.666687011719
656.779499560176	817.833312988281
659.510874801828	809.666687011719
662.241348014642	819
664.97091984524	811.333312988281
667.699590938606	818.5
670.427361938164	823.666687011719
673.15423348573	814.833312988281
675.880206221526	826.333312988281
678.605280784206	826.166687011719
681.329457810829	831.666687011719
684.05273793692	815.333312988281
686.775121796389	814.833312988281
689.49661002163	811.666687011719
692.217203243454	822.5
694.936902091144	810.333312988281
697.655707192425	808.666687011719
700.373619173493	816.666687011719
703.09063865901	821.166687011719
705.806766272093	811.833312988281
708.522002634378	812
711.236348365946	818.666687011719
713.94980408538	814.666687011719
716.662370409762	817.666687011719
719.374047954676	813.666687011719
722.08483733419	812.166687011719
724.794739160909	818.5
727.503754045949	816.833312988281
730.21188259892	818.166687011719
732.919125427998	821.833312988281
735.625483139855	816.166687011719
738.330956339723	821.666687011719
741.035545631374	823.5
743.739251617106	822.333312988281
746.44207489779	824.5
749.144016072852	825.333312988281
751.845075740272	817.833312988281
754.545254496603	823.333312988281
757.244552936976	823.333312988281
759.94297165508	817.333312988281
762.640511243222	823
765.337172292249	821.833312988281
768.032955391649	832.5
770.727861129482	829.333312988281
773.421890092413	830.166687011719
776.11504286572	831.666687011719
778.807320033298	817
781.49872217765	827.5
784.18924987991	824.333312988281
786.87890371984	828.833312988281
789.567684275826	825.333312988281
792.255592124908	818.333312988281
794.94262784276	827
797.628792003703	838.666687011719
800.314085180715	844
802.998507945427	870.833312988281
805.682060868145	898.666687011719
808.364744517821	916
811.046559462105	922.333312988281
813.727506267311	888.333312988281
816.407585498422	865
819.08679771913	843
821.765143491822	839.833312988281
824.442623377563	837
827.119237936127	839.166687011719
829.794987726003	848
832.469873304377	846.166687011719
835.143895227167	846.666687011719
837.817054048985	853.5
840.489350323205	858.333312988281
843.160784601892	853
845.831357435894	847.833312988281
848.501069374739	845.333312988281
851.169920966753	839.5
853.837912758987	835
856.505045297232	843.5
859.171319126071	838.166687011719
861.836734788823	845
864.501292827579	845.833312988281
867.164993783208	828.333312988281
869.827838195361	840
872.489826602454	833.666687011719
875.150959541701	835.833312988281
877.811237549104	831.666687011719
880.470661159456	832.5
883.129230906357	835.5
885.786947322205	835.666687011719
888.443810938206	825.666687011719
891.099822284385	827.833312988281
893.754981889586	827
896.409290281452	828.5
899.062747986485	838.833312988281
901.715355529999	835.166687011719
904.367113436154	829.666687011719
907.01802222793	839.5
909.668082427172	831.333312988281
912.317294554574	828.5
914.965659129659	826
917.613176670835	836.666687011719
920.259847695364	836.833312988281
922.90567271936	837.666687011719
925.550652257825	829.833312988281
928.194786824621	839
930.838076932512	840
933.480523093109	837.5
936.122125816953	836.5
938.762885613447	850.5
941.402802990899	850.166687011719
944.041878456523	845.333312988281
946.680112516428	840.333312988281
949.31750567563	842.666687011719
951.954058438081	841.666687011719
954.589771306633	848
957.224644783048	850.5
959.858679368044	850
962.491875561238	842.666687011719
965.12423386121	857.5
967.75575476545	874
970.386438770423	882
973.016286371501	889
975.645298063046	885.666687011719
978.273474338355	863.5
980.900815689674	862.666687011719
983.527322608243	838.666687011719
986.152995584245	845.666687011719
988.777835106834	848.833312988281
991.401841664148	842.666687011719
994.025015743307	841.833312988281
996.647357830407	847.333312988281
999.268868410534	849
1001.88954796777	849.166687011719
1004.50939698518	846.166687011719
1007.12841594484	841.5
1009.74660532783	851.333312988281
1012.36396561423	852.5
1014.98049728314	848.666687011719
1017.59620081267	851.166687011719
1020.21107667995	847.833312988281
1022.82512536112	837.833312988281
1025.43834733138	854.833312988281
1028.05074306493	851.333312988281
1030.66231303501	857.333312988281
1033.27305771392	864.166687011719
1035.88297757299	863.166687011719
1038.49207308257	858.333312988281
1041.10034471211	852.333312988281
1043.70779293008	862.666687011719
1046.31441820402	863.666687011719
1048.92022100052	852.5
1051.52520178525	852.333312988281
1054.12936102295	861.333312988281
1056.73269917742	868.5
1059.33521671154	863.833312988281
1061.93691408729	862.833312988281
1064.53779176571	859.833312988281
1067.13785020694	861.166687011719
1069.73708987022	859.833312988281
1072.33551121386	858.333312988281
1074.93311469528	864.833312988281
1077.52990077103	869
1080.12586989674	865.166687011719
1082.72102252714	870.333312988281
1085.31535911611	869.166687011719
1087.90888011663	872.833312988281
1090.50158598078	861.166687011719
1093.09347715979	867.166687011719
1095.68455410403	861.666687011719
1098.27481726296	854.5
1100.86426708523	858.333312988281
1103.45290401857	870
1106.04072850991	861.333312988281
1108.6277410053	859.333312988281
1111.21394194993	867.166687011719
1113.79933178816	861.666687011719
1116.3839109635	869
1118.96767991862	867
1121.55063909539	872.666687011719
1124.13278893477	874.833312988281
1126.71412987696	876.666687011719
1129.29466236132	881.5
1131.87438682637	880.333312988281
1134.45330370982	875.5
1137.03141344858	882.333312988281
1139.60871647872	883.5
1142.18521323554	895
1144.7609041535	892.166687011719
1147.33578966629	894.5
1149.90987020676	902.333312988281
1152.48314620702	901.166687011719
1155.05561809835	907.333312988281
1157.62728631125	913.5
1160.19815127545	906
1162.76821341988	925.833312988281
1165.33747317271	934.666687011719
1167.90593096133	931.333312988281
1170.47358721235	922.666687011719
1173.04044235163	910.5
1175.60649680425	906.833312988281
1178.17175099454	893.5
1180.73620534607	893.333312988281
1183.29986028165	889.5
1185.86271622336	882.333312988281
1188.42477359249	887.333312988281
1190.98603280964	876.833312988281
1193.54649429462	886.833312988281
1196.10615846653	884.666687011719
1198.66502574372	880
1201.22309654385	888.333312988281
1203.78037128378	883
1206.33685037971	878.166687011719
1208.89253424709	883.166687011719
1211.44742330063	884.333312988281
1214.00151795438	899.166687011719
1216.55481862163	890.833312988281
1219.10732571497	897.833312988281
1221.65903964631	886.833312988281
1224.20996082683	892.5
1226.760089667	885.833312988281
1229.30942657664	884.5
1231.85797196483	882
1234.40572623998	888.166687011719
1236.95268980981	889
1239.49886308136	889.5
1242.04424646098	901.666687011719
1244.58884035435	903.5
1247.13264516647	899.166687011719
1249.67566130166	894.833312988281
1252.21788916358	909.166687011719
1254.75932915524	913.833312988281
1257.29998167896	907.166687011719
1259.83984713639	908.666687011719
1262.37892592857	904
1264.91721845586	897.333312988281
1267.45472511795	920.166687011719
1269.9914463139	911.166687011719
1272.52738244213	911
1275.0625339004	915.333312988281
1277.59690108587	927
1280.130484395	920.666687011719
1282.66328422367	910
1285.19530096712	929
1287.72653501993	924.333312988281
1290.25698677608	933
1292.78665662894	931.666687011719
1295.31554497125	930.333312988281
1297.8436521951	932.833312988281
1300.37097869203	938
1302.89752485292	937.5
1305.42329106805	946.333312988281
1307.94827772713	945.833312988281
1310.47248521921	931.833312988281
1312.99591393279	935.333312988281
1315.51856425575	935.166687011719
1318.04043657536	942.333312988281
1320.56153127836	951
1323.08184875083	948.833312988281
1325.6013893783	962.666687011719
1328.12015354572	969.5
1330.63814163744	980.833312988281
1333.15535403727	979
1335.67179112839	985.5
1338.18745329347	974.333312988281
1340.70234091454	991.666687011719
1343.21645437314	971.333312988281
1345.72979405019	955.666687011719
1348.24236032607	951.5
1350.75415358059	967.166687011719
1353.26517419303	961.333312988281
1355.7754225421	974.333312988281
1358.28489900594	972.333312988281
1360.79360396218	971.166687011719
1363.30153778787	979.666687011719
1365.80870085955	967
1368.31509355319	967
1370.82071624424	971.5
1373.32556930762	971.833312988281
1375.8296531177	965.666687011719
1378.33296804832	971.666687011719
1380.83551447282	969
1383.33729276399	966.5
1385.83830329408	960.5
1388.33854643489	968.333312988281
1390.83802255762	957.666687011719
1393.33673203301	955.666687011719
1395.83467523128	963.166687011719
1398.33185252211	961.166687011719
1400.82826427471	961.333312988281
1403.32391085777	966
1405.81879263947	967.333312988281
1408.31290998752	963.166687011719
1410.80626326908	970.833312988281
1413.29885285087	970.833312988281
1415.79067909909	967.666687011719
1418.28174237944	974.833312988281
1420.77204305717	989.333312988281
1423.26158149702	980.833312988281
1425.75035806323	985.166687011719
1428.2383731196	977
1430.72562702942	1002.5
1433.21212015554	1017
1435.69785286028	1019.5
1438.18282550555	1029
1440.66703845275	1024
1443.15049206284	1033.5
1445.6331866963	1043.66662597656
1448.11512271316	1056.83337402344
1450.59630047298	1060
1453.07672033486	1057.16662597656
1455.55638265748	1063.33337402344
1458.03528779902	1076.66662597656
1460.51343611725	1064
1462.99082796946	1053
1465.46746371252	1048
1467.94334370285	1049.83337402344
1470.41846829642	1026
1472.89283784878	1031.83337402344
1475.36645271503	1032.16662597656
1477.83931324983	1035.5
1480.31141980743	1030.33337402344
1482.78277274164	1023.16668701172
1485.25337240583	1032.33337402344
1487.72321915297	1018.83331298828
1490.19231333557	1023.5
1492.66065530578	1023.5
1495.12824541525	1030.66662597656
1497.5950840153	1025.16662597656
1500.06117145678	1029.5
1502.52650809014	1042.33337402344
1504.99109426543	1032.66662597656
1507.45493033227	1029
1509.91801663992	1025.66662597656
1512.38035353717	1052.83337402344
1514.84194137248	1041.83337402344
1517.30278049386	1050.66662597656
1519.76287124894	1079.16662597656
1522.22221398497	1087.16662597656
1524.68080904876	1111.66662597656
1527.13865678681	1104.83337402344
1529.59575754514	1102.66662597656
1532.05211166945	1087
1534.50771950503	1077.83337402344
1536.96258139678	1072
1539.41669768924	1074.83337402344
1541.87006872656	1081
1544.32269485252	1071.33337402344
1546.77457641051	1074.83337402344
1549.22571374357	1092.33337402344
1551.67610719434	1077.83337402344
1554.12575710513	1084.66662597656
1556.57466381785	1085.5
1559.02282767408	1083.33337402344
1561.47024901499	1091.66662597656
1563.91692818144	1099.66662597656
1566.3628655139	1087.16662597656
1568.80806135249	1098.16662597656
1571.252516037	1109.5
1573.6962299068	1109.33337402344
1576.13920330099	1125.33337402344
1578.58143655828	1120
1581.02293001704	1124.5
1583.46368401528	1135.16662597656
1585.90369889071	1121.66662597656
1588.34297498065	1142
1590.7815126221	1156
1593.21931215173	1148.16662597656
1595.65637390588	1162.5
1598.09269822053	1169.16662597656
1600.52828543135	1181.16662597656
1602.96313587367	1175.5
1605.3972498825	1172.33337402344
1607.83062779252	1163.5
1610.26326993808	1176.5
1612.69517665322	1165
1615.12634827165	1161.83337402344
1617.55678512676	1155.83337402344
1619.98648755163	1156.16662597656
1622.41545587902	1141.66662597656
1624.84369044138	1147.5
1627.27119157085	1153
1629.69795959924	1148.5
1632.12399485808	1147.83337402344
1634.54929767859	1142.33337402344
1636.97386839165	1154.83337402344
1639.39770732789	1143.16662597656
1641.8208148176	1163.16662597656
1644.24319119078	1153.33337402344
1646.66483677715	1147.5
1649.0857519061	1167.66662597656
1651.50593690677	1181.5
1653.92539210795	1173.5
1656.3441178382	1162.5
1658.76211442575	1170.33337402344
1661.17938219855	1187
1663.59592148428	1190.5
1666.01173261032	1181.16662597656
1668.42681590377	1188.33337402344
1670.84117169145	1186.33337402344
1673.25480029991	1179.33337402344
1675.66770205541	1199
1678.07987728393	1206.5
1680.49132631119	1220.16662597656
1682.90204946263	1219.66662597656
1685.31204706342	1212.83337402344
1687.72131943846	1225.5
1690.1298669124	1218.5
1692.53768980957	1227
1694.94478845411	1225.5
1697.35116316982	1244
1699.75681428031	1226.16662597656
1702.16174210887	1232.16662597656
1704.56594697858	1255
1706.96942921222	1249
1709.37218913235	1239.83337402344
1711.77422706125	1238.83337402344
1714.17554332098	1240.66662597656
1716.5761382333	1250
1718.97601211977	1238
1721.37516530169	1247.33337402344
1723.77359810006	1265.66662597656
1726.17131083572	1252
1728.56830382922	1258.66662597656
1730.96457740087	1253.66662597656
1733.36013187075	1259.5
1735.75496755868	1254.5
1738.14908478428	1266.66662597656
1740.54248386689	1271.83337402344
1742.93516512565	1272
1745.32712887946	1269.33337402344
1747.71837544697	1270
1750.10890514662	1278.83337402344
1752.49871829661	1289.33337402344
1754.88781521492	1287.33337402344
1757.27619621929	1280.33337402344
1759.66386162726	1299
1762.05081175612	1297.33337402344
1764.43704692297	1299.83337402344
1766.82256744465	1297.66662597656
1769.20737363782	1314.16662597656
1771.59146581887	1315
1773.97484430405	1323.16662597656
1776.35750940932	1321
1778.73946145048	1315
1781.12070074309	1318.83337402344
1783.50122760249	1339
1785.88104234385	1344.66662597656
1788.26014528209	1340.83337402344
1790.63853673196	1351.83337402344
1793.01621700796	1345.33337402344
1795.39318642443	1354.5
1797.76944529549	1357.5
1800.14499393503	1370.5
1802.51983265681	1363.66662597656
1804.8939617743	1374
1807.26738160085	1372.66662597656
1809.64009244957	1372.66662597656
1812.01209463339	1379.16662597656
1814.38338846504	1387.33337402344
1816.75397425706	1375
1819.12385232181	1397.66662597656
1821.49302297142	1401.16662597656
1823.86148651789	1410.16662597656
1826.22924327299	1404.66662597656
1828.59629354831	1422
1830.96263765526	1403
1833.32827590507	1413.33337402344
1835.69320860877	1427.5
1838.05743607724	1428.5
1840.42095862113	1419.83337402344
1842.78377655097	1415.33337402344
1845.14589017707	1425.83337402344
1847.50729980956	1428.16662597656
1849.86800575843	1437.5
1852.22800833346	1434.5
1854.58730784427	1452.66662597656
1856.94590460032	1441
1859.30379891087	1468.16662597656
1861.66099108503	1464.16662597656
1864.01748143175	1471.16662597656
1866.37327025978	1479
1868.72835787773	1469.66662597656
1871.08274459403	1487.83337402344
1873.43643071697	1493.33337402344
1875.78941655464	1501.5
1878.14170241498	1485.66662597656
1880.4932886058	1497.16662597656
1882.84417543469	1514.5
1885.19436320915	1515.16662597656
1887.54385223646	1520.66662597656
1889.89264282378	1513.5
1892.24073527809	1533
1894.58812990625	1553.16662597656
1896.93482701493	1556
1899.28082691067	1551.33337402344
1901.62612989984	1570.33337402344
1903.97073628868	1561.66662597656
1906.31464638326	1568.16662597656
1908.6578604895	1592.66662597656
1911.00037891321	1600.5
1913.34220196	1593.33337402344
1915.68332993537	1601.5
1918.02376314468	1615.66662597656
1920.36350189311	1614.16662597656
1922.70254648573	1633.33337402344
1925.04089722744	1618.5
1927.37855442303	1631.16662597656
1929.71551837715	1635.16662597656
1932.05178939426	1640
1934.38736777876	1638
1936.72225383484	1647.83337402344
1939.0564478666	1666.16662597656
1941.38995017799	1645.83337402344
1943.72276107283	1666.83337402344
1946.05488085479	1662.16662597656
1948.38630982744	1660.66662597656
1950.71704829419	1681.16662597656
1953.04709655832	1680.33337402344
1955.376454923	1664
1957.70512369126	1669.66662597656
1960.03310316599	1665.83337402344
1962.36039364999	1685
1964.68699544589	1692
1967.01290885622	1697
1969.33813418338	1693.5
1971.66267172965	1696.83337402344
1973.98652179718	1712
1976.309684688	1723.83337402344
1978.63216070402	1714.66662597656
1980.95395014705	1738.66662597656
1983.27505331873	1730.83337402344
1985.59547052063	1738.83337402344
1987.9152020542	1737.33337402344
1990.23424822074	1739.66662597656
1992.55260932146	1740.33337402344
1994.87028565746	1753.33337402344
1997.18727752968	1790.83337402344
1999.503585239	1786.33337402344
2001.81920908618	1791.16662597656
2004.13414937184	1798
2006.44840639651	1802.83337402344
2008.7619804606	1810.33337402344
2011.07487186442	1815.16662597656
2013.38708090815	1820.16662597656
2015.6986078919	1828.66662597656
2018.00945311564	1835.66662597656
2020.31961687923	1827.16662597656
2022.62909948246	1834.33337402344
2024.93790122498	1856.66662597656
2027.24602240636	1858.66662597656
2029.55346332604	1857.16662597656
2031.86022428337	1868
2034.16630557761	1868.16662597656
2036.47170750791	1887
2038.77643037331	1876.33337402344
2041.08047447275	1879
2043.38384010509	1878.66662597656
2045.68652756907	1895.83337402344
2047.98853716335	1902.33337402344
2050.28986918648	1918
2052.59052393692	1897.16662597656
2054.89050171302	1922.16662597656
2057.18980281306	1918.5
2059.4884275352	1919
2061.78637617753	1914.83337402344
2064.08364903802	1908.66662597656
2066.38024641457	1934.33337402344
2068.67616860497	1943.33337402344
2070.97141590694	1922.66662597656
2073.26598861809	1939.5
2075.55988703595	1936
2077.85311145796	1931.66662597656
2080.14566218145	1936.33337402344
2082.43753950371	1950
2084.72874372188	1943
2087.01927513307	1935.33337402344
2089.30913403428	1949.33337402344
2091.59832072241	1952
2093.88683549429	1932.83337402344
2096.17467864666	1961.66662597656
2098.46185047619	1953
2100.74835127944	1969
2103.03418135292	1967.16662597656
2105.31934099303	1957.66662597656
2107.6038304961	1978.16662597656
2109.88765015838	1964.83337402344
2112.17080027602	1965.16662597656
2114.45328114513	1984.5
2116.7350930617	1966.83337402344
2119.01623632165	1977
2121.29671122085	1985
2123.57651805505	1988.33337402344
2125.85565711996	1991.83337402344
2128.13412871117	2006.83337402344
2130.41193312424	2012
2132.68907065462	1995.83337402344
2134.96554159771	2010.83337402344
2137.24134624881	1992
2139.51648490317	1996.5
2141.79095785593	1998.16662597656
2144.0647654022	2022.5
2146.33790783698	1998.33337402344
2148.61038545524	1983.83337402344
2150.88219855182	2014.5
2153.15334742154	2014.5
2155.42383235911	2011.66662597656
2157.6936536592	2018.16662597656
2159.9628116164	2005
2162.23130652522	1999.5
2164.49913868011	1998.5
2166.76630837544	2001.83337402344
2169.03281590552	2021.33337402344
2171.2986615646	2015
2173.56384564685	1981.5
2175.82836844637	2015.83337402344
2178.0922302572	2007.66662597656
2180.35543137332	2012.66662597656
2182.61797208862	2008.66662597656
2184.87985269695	2003.66662597656
2187.14107349208	2013
2189.40163476773	2018.83337402344
2191.66153681753	2000.5
2193.92077993507	1992.16662597656
2196.17936441386	1981.33337402344
2198.43729054735	2000.5
2200.69455862894	1992.16662597656
2202.95116895194	1989.5
2205.20712180962	1991.33337402344
2207.46241749519	1976.5
2209.71705630179	1989.83337402344
2211.97103852248	1968.66662597656
2214.2243644503	1975.33337402344
2216.47703437819	1977.33337402344
2218.72904859905	1975.5
2220.98040740571	1995.83337402344
2223.23111109095	1965
2225.4811599475	1965.16662597656
2227.73055426799	1973.5
2229.97929434504	1948.5
2232.22738047118	1956.66662597656
2234.47481293889	1961.83337402344
2236.72159204058	1971.66662597656
2238.96771806864	1965.16662597656
2241.21319131536	1938.33337402344
2243.458012073	1948.16662597656
2245.70218063374	1963.83337402344
2247.94569728973	1952.33337402344
2250.18856233304	1949.33337402344
2252.4307760557	1952.66662597656
2254.67233874967	1943
2256.91325070687	1948.83337402344
2259.15351221915	1939.83337402344
2261.39312357831	1959.16662597656
2263.63208507611	1928.5
2265.87039700422	1937
2268.1080596543	1945
2270.34507331792	1920.83337402344
2272.5814382866	1903
2274.81715485183	1911.5
2277.05222330502	1907.5
2279.28664393755	1914.33337402344
2281.52041704072	1902.66662597656
2283.75354290581	1933.5
2285.98602182401	1916.83337402344
2288.21785408648	1911.66662597656
2290.44903998434	1892.16662597656
2292.67957980862	1913.16662597656
2294.90947385033	1885.16662597656
2297.1387224004	1914
2299.36732574975	1895.33337402344
2301.59528418921	1893.5
2303.82259800958	1901.66662597656
2306.04926750158	1901
2308.27529295593	1877.5
2310.50067466325	1888.66662597656
2312.72541291412	1890.83337402344
2314.9495079991	1864.16662597656
2317.17296020866	1882
2319.39576983323	1881.83337402344
2321.61793716322	1871.83337402344
2323.83946248894	1862.66662597656
2326.06034610069	1868.66662597656
2328.28058828871	1866.16662597656
2330.50018934317	1843.83337402344
2332.7191495542	1857
2334.93746921192	1853
2337.15514860633	1848.83337402344
2339.37218802743	1843.66662597656
2341.58858776516	1849.5
2343.80434810941	1851
2346.01946935001	1851.66662597656
2348.23395177675	1851.66662597656
2350.44779567939	1846.66662597656
2352.66100134759	1829.33337402344
2354.87356907101	1852.16662597656
2357.08549913925	1822.66662597656
2359.29679184185	1833.33337402344
2361.50744746829	1835.16662597656
2363.71746630804	1834
2365.92684865048	1824.33337402344
2368.13559478499	1825
2370.34370500083	1809.16662597656
2372.55117958727	1823.16662597656
2374.75801883352	1810.16662597656
2376.96422302874	1800.16662597656
2379.16979246202	1801.33337402344
2381.37472742243	1803.66662597656
2383.57902819898	1791.83337402344
2385.78269508063	1788.16662597656
2387.98572835629	1787.66662597656
2390.18812831482	1788.66662597656
2392.38989524505	1787.33337402344
2394.59102943573	1781.16662597656
2396.79153117559	1776.5
2398.9914007533	1785.5
2401.19063845748	1779.5
2403.38924457672	1769.16662597656
2405.58721939951	1762.16662597656
2407.78456321435	1768
2409.98127630966	1763
2412.17735897382	1755.66662597656
2414.37281149517	1763.33337402344
2416.56763416198	1769.16662597656
2418.76182726249	1776.66662597656
2420.95539108487	1739.5
2423.14832591726	1748.66662597656
2425.34063204776	1741.16662597656
2427.53230976439	1747.16662597656
2429.72335935513	1748.16662597656
2431.91378110795	1741.33337402344
2434.10357531071	1738.66662597656
2436.29274225125	1750.33337402344
2438.48128221739	1747.33337402344
2440.66919549683	1735.33337402344
2442.8564823773	1736
2445.04314314641	1721.33337402344
2447.22917809176	1713.5
2449.4145875009	1723
2451.59937166131	1722
2453.78353086044	1723.83337402344
2455.96706538568	1719.5
2458.14997552436	1712.33337402344
2460.33226156379	1711.16662597656
2462.51392379119	1739.66662597656
2464.69496249376	1694.33337402344
2466.87537795862	1696.16662597656
2469.05517047288	1689.5
2471.23434032357	1698
2473.41288779767	1700.33337402344
2475.59081318211	1699.33337402344
2477.76811676378	1685.83337402344
2479.9447988295	1690
2482.12085966605	1665.5
2484.29629956016	1670
2486.4711187985	1671
2488.64531766769	1676.83337402344
2490.8188964543	1697
2492.99185544484	1690.66662597656
2495.16419492579	1687.16662597656
2497.33591518353	1664.33337402344
2499.50701650444	1668.33337402344
2501.67749917482	1660
2503.84736348091	1673.83337402344
2506.01660970891	1658.83337402344
2508.18523814496	1653.5
2510.35324907514	1671.5
2512.52064278551	1675.16662597656
2514.68741956201	1671.16662597656
2516.85357969058	1691.33337402344
2519.01912345709	1678.5
2521.18405114735	1677.33337402344
2523.34836304711	1668.16662597656
2525.51205944208	1664.33337402344
2527.6751406179	1662.5
2529.83760686016	1667.16662597656
2531.99945845439	1673.16662597656
2534.16069568606	1671.16662597656
2536.3213188406	1661.16662597656
2538.48132820336	1658.5
2540.64072405965	1662
2542.79950669471	1660.33337402344
2544.95767639373	1675.83337402344
2547.11523344184	1674.5
2549.27217812411	1654.33337402344
2551.42851072555	1673.5
2553.58423153111	1645.83337402344
2555.73934082569	1640.33337402344
2557.89383889412	1637.83337402344
2560.04772602118	1663
2562.20100249158	1647.5
2564.35366858996	1634.33337402344
2566.50572460093	1638.33337402344
2568.65717080901	1644.66662597656
2570.80800749867	1637
2572.95823495433	1638.66662597656
2575.10785346031	1633.16662597656
2577.25686330093	1619.33337402344
2579.40526476038	1609.66662597656
2581.55305812282	1621.83337402344
2583.70024367237	1614.5
2585.84682169303	1630
2587.99279246879	1622.33337402344
2590.13815628354	1602.66662597656
2592.28291342112	1627.66662597656
2594.42706416531	1610.5
2596.5706087998	1603.83337402344
2598.71354760826	1600.33337402344
2600.85588087425	1617.66662597656
2602.99760888127	1613.5
2605.13873191278	1602.66662597656
2607.27925025214	1594.83337402344
2609.41916418269	1606.66662597656
2611.55847398764	1602.83337402344
2613.69717995017	1600.83337402344
2615.83528235339	1615.5
2617.97278148034	1612.16662597656
2620.10967761398	1592.66662597656
2622.2459710372	1611.16662597656
2624.38166203284	1603.66662597656
2626.51675088365	1607.33337402344
2628.65123787231	1591.5
2630.78512328145	1596.33337402344
2632.9184073936	1585
2635.05109049124	1596
2637.18317285676	1592.33337402344
2639.31465477248	1599
2641.44553652067	1599.5
2643.5758183835	1602.16662597656
2645.70550064309	1586.5
2647.83458358144	1594.5
2649.96306748053	1596.83337402344
2652.09095262223	1598
2654.21823928836	1606.83337402344
2656.34492776063	1595.83337402344
2658.47101832071	1601.16662597656
2660.59651125015	1601
2662.72140683047	1597.83337402344
2664.84570534309	1590.16662597656
2666.96940706934	1588.66662597656
2669.0925122905	1588.83337402344
2671.21502128773	1590.33337402344
2673.33693434215	1588
2675.45825173479	1596.33337402344
2677.57897374658	1589.33337402344
2679.69910065839	1605.83337402344
2681.818632751	1595.33337402344
2683.93757030511	1601
2686.05591360133	1615.5
2688.17366292021	1584.83337402344
2690.29081854218	1582.83337402344
2692.40738074762	1583.16662597656
2694.52334981681	1601.16662597656
2696.63872602995	1563.83337402344
2698.75350966713	1592.33337402344
2700.86770100841	1589.5
2702.98130033371	1586.83337402344
2705.09430792289	1584.83337402344
2707.20672405571	1585.5
2709.31854901185	1587
2711.42978307091	1603.5
2713.54042651238	1595.16662597656
2715.65047961567	1597.66662597656
2717.7599426601	1604.33337402344
2719.86881592491	1610
2721.97709968924	1623
2724.08479423213	1604
2726.19189983255	1602.66662597656
2728.29841676934	1591.16662597656
2730.4043453213	1590.16662597656
2732.5096857671	1602
2734.61443838532	1586.5
2736.71860345444	1585.16662597656
2738.82218125286	1583.66662597656
2740.92517205889	1585.33337402344
2743.02757615072	1581
2745.12939380646	1578.83337402344
2747.23062530411	1590.33337402344
2749.33127092159	1589.33337402344
2751.4313309367	1568.5
2753.53080562716	1574.66662597656
2755.62969527058	1578.5
2757.72800014448	1574.66662597656
2759.82572052625	1583.16662597656
2761.92285669323	1567.16662597656
2764.0194089226	1574.16662597656
2766.11537749147	1579
2768.21076267686	1576.33337402344
2770.30556475566	1565.5
2772.39978400465	1573.5
2774.49342070054	1552
2776.58647511991	1560.83337402344
2778.67894753923	1580.66662597656
2780.77083823487	1578.16662597656
2782.8621474831	1565.66662597656
2784.95287556007	1577.83337402344
2787.04302274184	1585
2789.13258930433	1571.66662597656
2791.22157552338	1572.66662597656
2793.30998167471	1571.5
2795.39780803392	1584.33337402344
2797.4850548765	1575.16662597656
2799.57172247786	1571.83337402344
2801.65781111324	1576.33337402344
2803.74332105781	1571.33337402344
2805.82825258661	1577.83337402344
2807.91260597457	1568.66662597656
2809.9963814965	1551.16662597656
2812.07957942711	1571.83337402344
2814.16220004096	1567.5
2816.24424361252	1584.16662597656
2818.32571041614	1571
2820.40660072604	1580
2822.48691481631	1594.16662597656
2824.56665296098	1612.16662597656
2826.64581543388	1613.33337402344
2828.72440250876	1617.5
2830.80241445925	1635.16662597656
2832.87985155885	1638.83337402344
2834.95671408093	1726.33337402344
2837.03300229875	1745.83337402344
2839.10871648544	1755.5
2841.18385691399	1783.16662597656
2843.25842385729	1782.83337402344
2845.33241758808	1780.83337402344
2847.40583837898	1797.33337402344
2849.4786865025	1808.33337402344
2851.550962231	1796
2853.6226658367	1789.5
2855.69379759173	1775
2857.76435776806	1787.16662597656
2859.83434663753	1790.83337402344
2861.90376447184	1831.66662597656
2863.97261154259	1875.66662597656
2866.0408881212	1906
2868.10859447901	1910.33337402344
2870.17573088717	1909.83337402344
2872.24229761673	1925.83337402344
2874.30829493859	1916.83337402344
2876.37372312352	1943.83337402344
2878.43858244215	1986.66662597656
2880.50287316496	1997.5
2882.56659556231	2025.5
2884.62974990439	2008.83337402344
2886.69233646129	1995.5
2888.75435550293	1966.33337402344
2890.81580729909	1953
2892.87669211941	1922.33337402344
2894.93701023339	1906.5
2896.99676191039	1909.66662597656
2899.05594741961	1927.16662597656
2901.1145670301	1918.33337402344
2903.1726210108	1930.5
2905.23010963045	1937.66662597656
2907.28703315768	1912.83337402344
2909.34339186096	1913
2911.39918600861	1878.5
2913.45441586879	1883.16662597656
2915.50908170952	1864.16662597656
2917.56318379867	1873.16662597656
2919.61672240395	1893.83337402344
2921.66969779291	1865.5
2923.72211023295	1872.33337402344
2925.77395999134	1864
2927.82524733515	1859.66662597656
2929.87597253132	1832.16662597656
2931.92613584663	1806
2933.97573754769	1784.83337402344
2936.02477790097	1755.66662597656
2938.07325717276	1747
2940.1211756292	1738.16662597656
2942.16853353626	1714.33337402344
2944.21533115976	1758
2946.26156876536	1737.16662597656
2948.30724661853	1785.16662597656
2950.3523649846	1789.33337402344
2952.39692412872	1812.16662597656
2954.44092431587	1843.83337402344
2956.48436581089	1858.66662597656
2958.52724887843	1920.66662597656
2960.56957378296	1949.33337402344
2962.6113407888	1957
2964.65255016011	1924
2966.69320216083	1880.83337402344
2968.73329705479	1825.5
2970.77283510559	1764.83337402344
2972.81181657671	1732.83337402344
2974.8502417314	1700.83337402344
2976.88811083279	1674.66662597656
2978.92542414378	1686
2980.96218192713	1653.83337402344
2982.99838444541	1657.16662597656
2985.034031961	1651.83337402344
2987.06912473612	1632.5
2989.1036630328	1631.5
2991.13764711288	1642.16662597656
2993.17107723804	1626.5
2995.20395366974	1636.5
2997.23627666931	1623
2999.26804649782	1632.33337402344
3001.29926341624	1631.5
3003.32992768528	1627.16662597656
3005.3600395655	1644.66662597656
3007.38959931726	1618.66662597656
3009.41860720076	1632.33337402344
3011.44706347595	1646.66662597656
3013.47496840263	1626.83337402344
3015.50232224041	1648.66662597656
3017.5291252487	1657.83337402344
3019.5553776867	1642.66662597656
3021.58107981344	1646.83337402344
3023.60623188773	1649.5
3025.63083416822	1650.16662597656
3027.65488691331	1653.33337402344
3029.67839038125	1645
3031.70134483007	1652.5
3033.72375051759	1673
3035.74560770144	1672.5
3037.76691663907	1652.83337402344
3039.78767758768	1654.33337402344
3041.80789080431	1665
3043.82755654577	1648.66662597656
3045.84667506867	1668
3047.8652466294	1664.16662597656
3049.88327148418	1677.66662597656
3051.90074988899	1664.83337402344
3053.91768209961	1663.66662597656
3055.9340683716	1654.5
3057.94990896033	1659.5
3059.96520412095	1667.16662597656
3061.97995410838	1665.83337402344
3063.99415917734	1681
3066.00781958234	1667.16662597656
3068.02093557766	1673.5
3070.03350741738	1653
3072.04553535535	1656.5
3074.05701964521	1657.5
3076.06796054036	1676
3078.078358294	1648.66662597656
3080.08821315912	1673.5
3082.09752538846	1680.66662597656
3084.10629523454	1670.33337402344
3086.11452294967	1668.83337402344
3088.12220878592	1661.33337402344
3090.12935299515	1676.33337402344
3092.13595582898	1671.16662597656
3094.1420175388	1662.66662597656
3096.14753837579	1686.66662597656
3098.15251859088	1669.5
3100.15695843477	1675
3102.16085815793	1678.83337402344
3104.16421801061	1670.66662597656
3106.16703824282	1678.66662597656
3108.16931910432	1683.33337402344
3110.17106084464	1680.33337402344
3112.17226371308	1698.66662597656
3114.17292795872	1691.66662597656
3116.17305383034	1703.66662597656
3118.17264157657	1679.33337402344
3120.17169144571	1693.33337402344
3122.17020368587	1678
3124.16817854492	1670.16662597656
3126.16561627044	1695.66662597656
3128.16251710982	1702.5
3130.15888131017	1690.16662597656
3132.15470911837	1710
3134.15000078104	1720.33337402344
3136.14475654455	1701.33337402344
3138.13897665502	1721.33337402344
3140.13266135835	1708.33337402344
3142.12581090014	1728
3144.11842552577	1718.66662597656
3146.11050548036	1725.66662597656
3148.10205100875	1716.66662597656
3150.09306235557	1735.66662597656
3152.08353976515	1718.5
3154.07348348158	1711
3156.06289374869	1727.66662597656
3158.05177081006	1724.16662597656
3160.04011490899	1714.33337402344
3162.02792628852	1731
3164.01520519145	1732.33337402344
3166.00195186029	1725.16662597656
3167.98816653728	1738
3169.97384946442	1725.5
3171.95900088344	1727
3173.94362103577	1731.66662597656
3175.92771016259	1726.5
3177.91126850484	1745.5
3179.89429630312	1739.83337402344
3181.87679379782	1737.33337402344
3183.85876122903	1738.33337402344
3185.84019883657	1748.16662597656
3187.82110685997	1737.5
3189.80148553851	1744.66662597656
3191.78133511116	1756.83337402344
3193.76065581664	1778
3195.73944789337	1765
3197.7177115795	1766.16662597656
3199.6954471129	1750.5
3201.67265473114	1762.16662597656
3203.64933467153	1743.33337402344
3205.62548717107	1760.5
3207.60111246648	1766.16662597656
3209.57621079421	1764
3211.55078239041	1763.16662597656
3213.52482749093	1764
3215.49834633133	1776
3217.4713391469	1786.33337402344
3219.44380617262	1774.5
3221.41574764317	1794.5
3223.38716379296	1793.16662597656
3225.35805485607	1780.66662597656
3227.32842106631	1797.16662597656
3229.29826265718	1811
3231.26757986187	1801.83337402344
3233.2363729133	1824.5
3235.20464204405	1792.83337402344
3237.17238748643	1797.16662597656
3239.13960947243	1800.33337402344
3241.10630823374	1819.33337402344
3243.07248400174	1814.83337402344
3245.03813700748	1829.66662597656
3247.00326748177	1817.66662597656
3248.96787565503	1812.33337402344
3250.93196175742	1824.66662597656
3252.89552601877	1811.16662597656
3254.8585686686	1823.66662597656
3256.82108993612	1826.16662597656
3258.78309005022	1814
3260.74456923948	1806.16662597656
3262.70552773215	1831.66662597656
3264.66596575617	1812
3266.62588353916	1849.5
3268.58528130843	1834.66662597656
3270.54415929094	1840.83337402344
3272.50251771336	1828.16662597656
3274.46035680201	1827.66662597656
3276.4176767829	1856.16662597656
3278.37447788171	1837
3280.33076032379	1857
3282.28652433416	1836.83337402344
3284.24177013751	1855.66662597656
3286.1964979582	1832.66662597656
3288.15070802027	1864.33337402344
3290.10440054741	1838.5
3292.05757576298	1839.66662597656
3294.01023389001	1858
3295.96237515119	1847.5
3297.91399976887	1862.66662597656
3299.86510796506	1877.66662597656
3301.81569996142	1875
3303.76577597932	1866.16662597656
3305.7153362397	1846.5
3307.66438096324	1871.16662597656
3309.61291037024	1876.5
3311.56092468064	1876.66662597656
3313.50842411404	1866
3315.45540888971	1906.33337402344
3317.40187922656	1858.5
3319.34783534315	1862.66662597656
3321.29327745768	1872.5
3323.23820578801	1867.16662597656
3325.18262055164	1865.5
3327.1265219657	1875.16662597656
3329.06991024699	1886.66662597656
3331.01278561194	1889.5
3332.95514827662	1877.5
3334.89699845674	1874.33337402344
3336.83833636766	1875.33337402344
3338.77916222434	1861
3340.71947624143	1864.5
3342.65927863317	1864.33337402344
3344.59856961346	1872.16662597656
3346.53734939584	1875.5
3348.47561819344	1873
3350.41337621906	1865.33337402344
3352.35062368513	1896.66662597656
3354.28736080368	1873
3356.22358778637	1897
3358.15930484452	1878.5
3360.09451218904	1896.16662597656
3362.02921003047	1872.5
3363.96339857898	1890
3365.89707804436	1904.66662597656
3367.83024863602	1893.16662597656
3369.76291056299	1892
3371.69506403389	1897.66662597656
3373.62670925699	1894.16662597656
3375.55784644016	1922.83337402344
3377.4884757909	1883.83337402344
3379.41859751629	1907.16662597656
3381.34821182305	1910.16662597656
3383.27731891749	1900.83337402344
3385.20591900555	1918.83337402344
3387.13401229276	1905.66662597656
3389.06159898426	1910.33337402344
3390.9886792848	1912.66662597656
3392.91525339872	1925.66662597656
3394.84132152998	1927.5
3396.76688388213	1931.16662597656
3398.69194065833	1930.83337402344
3400.61649206133	1932.5
3402.54053829348	1923.16662597656
3404.46407955672	1915.66662597656
3406.3871160526	1938.16662597656
3408.30964798225	1938.66662597656
3410.23167554639	1929
3412.15319894535	1950.83337402344
3414.07421837904	1939.66662597656
3415.99473404695	1948
3417.91474614817	1951.33337402344
3419.83425488136	1943.33337402344
3421.75326044479	1956.16662597656
3423.67176303631	1947.5
3425.58976285332	1935.33337402344
3427.50726009282	1939.5
3429.42425495143	1944.83337402344
3431.34074762528	1965.16662597656
3433.25673831012	1941.5
3435.17222720127	1908.83337402344
3437.08721449362	1939.5
3439.00170038164	1927
3440.91568505936	1934.83337402344
3442.82916872039	1949
3444.74215155791	1928.83337402344
3446.65463376468	1916
3448.566615533	1911.66662597656
3450.47809705476	1928.83337402344
3452.3890785214	1921.66662597656
3454.29956012393	1946
3456.20954205293	1954.5
3458.11902449853	1929.5
3460.02800765041	1920.83337402344
3461.93649169784	1911.83337402344
3463.84447682962	1932.83337402344
3465.75196323412	1924.5
3467.65895109925	1927.83337402344
3469.56544061249	1936.5
3471.47143196086	1916
3473.37692533093	1908.16662597656
3475.28192090884	1931.33337402344
3477.18641888026	1903.16662597656
3479.09041943039	1916.66662597656
3480.99392274402	1948
3482.89692900545	1916.16662597656
3484.79943839853	1922.5
3486.70145110666	1935.33337402344
3488.60296731277	1912.33337402344
3490.50398719933	1916.33337402344
3492.40451094836	1906.66662597656
3494.30453874141	1913.16662597656
3496.20407075956	1926.66662597656
3498.10310718342	1900.33337402344
3500.00164819315	1903.33337402344