200.090469251518	569.25
202.974751419362	572.5
205.858021632263	569.5
208.740280737522	570
211.621529580443	573.25
214.501769004371	567.5
217.380999850626	567.25
220.25922295859	570.25
223.136439165646	568.25
226.012649307235	574.75
228.88785421682	573.25
231.762054725918	571.5
234.635251664113	572.75
237.507445859021	568.75
240.378638136346	573.75
243.248829319855	575.25
246.11802023137	576.75
248.986211690826	577.75
251.853404516227	577.25
254.719599523654	577.75
257.584797527335	572.75
260.44899933954	574.5
263.312205770682	579.5
266.174417629303	572.25
269.035635722015	570.75
271.895860853609	573.75
274.755093826978	569
277.613335443144	572.75
280.470586501309	575
283.326847798766	578.5
286.182120131019	575.25
289.036404291684	572.75
291.889701072574	571.5
294.742011263643	570.5
297.593335653048	574.25
300.443675027094	571.75
303.293030170295	573.5
306.141401865367	569
308.988790893174	575.5
311.835198032837	578.5
314.680624061635	571.75
317.525069755113	576.5
320.36853588697	581
323.211023229178	576.75
326.052532551923	576.25
328.893064623604	574.75
331.732620210885	573
334.57120007867	572.5
337.408804990093	574.75
340.245435706565	570.5
343.081092987733	568.5
345.915777591523	570.25
348.749490274145	569.5
351.582231790049	576.5
354.414002891997	572.5
357.244804331021	571.25
360.074636856443	570.25
362.903501215886	567.25
365.731398155265	573
368.558328418814	573.25
371.384292749062	573
374.209291886869	575
377.033326571407	573.5
379.85639754017	572.25
382.678505529009	579.5
385.499651272065	581
388.319835501872	590.25
391.139058949258	602.25
393.957322343453	616
396.774626412011	633
399.590971880847	623.75
402.406359474258	621
405.220789914893	604.5
408.034263923801	589.75
410.8467822204	579.25
413.658345522483	580.5
416.468954546242	583.5
419.278610006277	579
422.087312615557	575
424.895063085503	578.5
427.701862125901	577
430.507710444981	578
433.312608749366	580
436.116557744146	575.5
438.919558132791	578.25
441.721610617238	581
444.522715897856	580
447.322874673457	587.25
450.122087641299	582.25
452.920355497092	590.5
455.717678935009	594.25
458.514058647681	588.25
461.309495326219	581
464.103989660191	583
466.89754233765	582.25
469.690154045114	577.75
472.481825467625	580.75
475.272557288674	573
478.062350190281	577.75
480.851204852952	576
483.639121955683	579.25
486.426102176007	575
489.212146189955	573.75
491.997254672093	579.75
494.781428295471	574.5
497.564667731716	580.25
500.346973650958	573.25
503.128346721878	573
505.90878761169	574
508.688296986151	576
511.46687550957	578.25
514.244523844831	578
517.021242653354	585.75
519.797032595132	588.25
522.571894328732	589.25
525.345828511279	587.75
528.11883579849	592.75
530.890916844655	588.25
533.662072302668	584.75
536.432302823985	580.5
539.201609058684	582.25
541.96999165542	576.5
544.737451261473	577.75
547.503988522723	575.5
550.26960408366	578.5
553.034298587394	580.25
555.798072675669	579.25
558.560926988819	577
561.322862165849	580.25
564.083878844369	573.75
566.843977660654	578.25
569.603159249604	577.25
572.361424244769	579.5
575.118773278369	572
577.87520698124	576.5
580.630725982905	574.25
583.385330911566	577
586.139022394076	572.25
588.891801055954	578.25
591.643667521406	581.25
594.394622413318	575.75
597.144666353273	574.5
599.893799961512	577
602.64202385701	579
605.389338657413	574
608.135744979089	577.75
610.881243437092	576.5
613.625834645191	570.5
616.369519215881	572.75
619.112297760374	576.75
621.854170888604	576.25
624.595139209225	571.5
627.335203329614	581.25
630.074363855914	575
632.81262139299	576.25
635.549976544436	577
638.286429912612	580.5
641.021982098635	578.75
643.756633702364	576
646.49038532241	582
649.223237556176	574.75
651.955190999808	575.75
654.686246248224	578.5
657.416403895135	578
660.145664533011	578.5
662.874028753133	578
665.601497145537	574
668.328070299071	578.5
671.05374880138	580
673.778533238885	582
676.502424196839	577.5
679.225422259297	579
681.947528009099	577.25
684.668742027927	576.25
687.389064896281	577.25
690.108497193465	580.25
692.827039497621	576.75
695.544692385724	580.5
698.261456433585	581
700.977332215847	577.75
703.692320305981	582.5
706.406421276337	581
709.11963569808	577.25
711.831964141256	579.5
714.54340717474	580.5
717.253965366304	577
719.963639282552	581
722.672429488961	578.75
725.380336549904	575.75
728.087361028596	578.5
730.793503487166	577
733.498764486594	583.25
736.203144586758	583.25
738.906644346447	578.25
741.60926432331	584.5
744.311005073912	581.5
747.011867153727	582.25
749.711851117121	582.5
752.410957517375	583.75
755.109186906677	581
757.806539836132	585.75
760.503016855779	579.75
763.198618514551	581.25
765.893345360346	584
768.587197939964	586.75
771.28017679914	584.5
773.972282482566	582.75
776.663515533859	584.75
779.353876495581	581.25
782.043365909241	578.25
784.731984315327	584.25
787.419732253235	582.5
790.106610261366	588.25
792.792618877058	587.75
795.477758636618	586.5
798.162030075313	597.25
800.845433727423	607
803.52797012615	632.75
806.209639803714	652.5
808.890443291304	661.5
811.570381119098	636.75
814.249453816265	618
816.927661910959	603.75
819.60500593036	596.25
822.281486400603	593.5
824.957103846864	596
827.631858793316	604
830.305751763135	603.5
832.978783278519	618.5
835.650953860677	637.75
838.322264029848	653.25
840.992714305292	660.25
843.662305205289	645.75
846.331037247157	622.5
848.998910947241	604.5
851.665926820933	594
854.332085382674	592.5
856.997387145915	594.5
859.661832623191	590.75
862.325422326066	582.75
864.988156765172	588.75
867.650036450181	583.25
870.311061889846	578.25
872.971233591961	586.5
875.630552063409	587.75
878.28901781013	581
880.946631337138	584.25
883.603393148533	587.5
886.259303747484	584.75
888.914363636246	584.5
891.568573316155	587.5
894.22193328767	588
896.874444050281	594.25
899.526106102625	589.5
902.176919942416	592.75
904.826886066483	587.75
907.476004970747	588.25
910.124277150255	586.75
912.77170309913	586
915.418283310642	585.75
918.064018277175	585.75
920.708908490222	586.75
923.352954440405	581.75
925.996156617486	587.5
928.638515510334	585
931.280031606966	590
933.920705394521	589.25
936.560537359303	596.5
939.199527986737	595
941.837677761392	595.25
944.474987167006	595.25
947.111456686438	591.75
949.747086801734	589.75
952.38187799407	585.75
955.015830743792	582.25
957.648945530418	587
960.281222832633	595.5
962.91266312826	596.5
965.543266894336	596.5
968.173034607058	603.25
970.801966741779	614.25
973.43006377307	613.5
976.057326174661	608.5
978.683754419471	595
981.309348979623	595
983.93411032642	590.5
986.558038930361	593
989.181135261144	600.25
991.803399787692	604.25
994.424832978086	615.75
997.045435299653	611.75
999.665207218906	620.25
1002.2841492016	603.25
1004.90226171266	598
1007.51954521628	597
1010.13600017584	594.5
1012.75162705397	588.25
1015.3664263125	588.5
1017.9803984125	584.25
1020.5935438143	590.5
1023.20586297741	583.5
1025.81735636063	593
1028.42802442196	592.5
1031.03786761869	603.5
1033.64688640732	607.25
1036.2550812436	608
1038.86245258255	608
1041.46900087844	603.75
1044.07472658479	603
1046.67963015438	597.5
1049.28371203927	595.75
1051.88697269075	594.75
1054.48941255943	595.25
1057.09103209513	588.25
1059.691831747	592
1062.29181196343	585.5
1064.89097319211	588.25
1067.48931587999	586
1070.08684047333	586.75
1072.68354741766	587.75
1075.27943715779	592.75
1077.87451013787	593
1080.46876680127	591.75
1083.06220759071	606.5
1085.65483294822	612.25
1088.24664331509	603.25
1090.83763913194	596.75
1093.42782083869	593.5
1096.01718887459	588.25
1098.60574367818	592.25
1101.19348568732	592
1103.78041533919	593
1106.3665330703	587.25
1108.95183931646	586.75
1111.53633451284	587
1114.12001909391	588.75
1116.70289349349	587.75
1119.2849581447	590.5
1121.86621348005	589.5
1124.44665993134	589.5
1127.02629792973	593.75
1129.60512790574	592.5
1132.18315028919	593.75
1134.76036550929	589.5
1137.3367739946	597.5
1139.912376173	598
1142.48717247176	604
1145.06116331748	617.25
1147.63434913616	630.75
1150.20673035312	649.75
1152.77830739307	642
1155.34908068007	631.25
1157.91905063757	627.5
1160.48821768838	619.75
1163.05658225471	615.25
1165.6241447581	620.25
1168.19090561951	625.5
1170.75686525927	608.75
1173.32202409708	607.5
1175.88638255206	598.25
1178.44994104269	591
1181.01269998684	593.5
1183.57465980182	589.5
1186.13582090427	586.5
1188.69618371026	586.5
1191.25574863529	586
1193.8145160942	588.75
1196.37248650129	588
1198.92966027025	589
1201.48603781416	592.25
1204.04161954556	588.25
1206.59640587635	593.75
1209.15039721788	598
1211.70359398092	597.75
1214.25599657564	603.25
1216.80760541166	602.75
1219.35842089801	619.25
1221.90844344314	603.75
1224.45767345496	598.75
1227.00611134077	599.25
1229.55375750736	591.5
1232.10061236092	590.75
1234.64667630707	590.75
1237.1919497509	588.5
1239.73643309692	585.5
1242.28012674912	590.75
1244.82303111089	587
1247.36514658511	589.25
1249.9064735741	590.25
1252.44701247964	594.5
1254.98676370294	594.75
1257.52572764469	592
1260.06390470506	598.75
1262.60129528365	591.5
1265.13789977954	587.75
1267.67371859128	592
1270.20875211688	590.75
1272.74300075384	588
1275.2764648991	591
1277.80914494911	594.75
1280.34104129978	592.75
1282.87215434652	588.25
1285.40248448419	592.5
1287.93203210715	593.75
1290.46079760927	595.75
1292.98878138385	599.25
1295.51598382375	595
1298.04240532127	601.5
1300.56804626822	596.25
1303.09290705593	600.25
1305.6169880752	604.75
1308.14028971632	595.75
1310.66281236913	587.75
1313.18455642292	596.75
1315.70552226653	603.75
1318.22571028829	604.25
1320.74512087603	611
1323.26375441711	632.75
1325.7816112984	656
1328.29869190629	664.25
1330.81499662666	659.75
1333.33052584497	638.75
1335.84527994613	619.5
1338.35925931464	613.75
1340.87246433446	604.5
1343.38489538916	606
1345.89655286177	604.25
1348.40743713487	601.25
1350.91754859059	607.25
1353.42688761059	611.5
1355.93545457606	620
1358.44324986772	622.75
1360.95027386588	628.75
1363.45652695032	611.25
1365.96200950042	604.75
1368.4667218951	611.25
1370.97066451281	605.5
1373.47383773156	603.5
1375.97624192891	605.25
1378.47787748199	603.5
1380.97874476746	599.25
1383.47884416157	597.25
1385.97817604009	594.25
1388.4767407784	592.25
1390.9745387514	588.5
1393.47157033358	593.75
1395.96783589898	590.75
1398.46333582124	589.25
1400.95807047354	590.25
1403.45204022864	591
1405.94524545889	591.25
1408.4376865362	592.75
1410.92936383205	590.25
1413.42027771752	588.25
1415.91042856328	590.75
1418.39981673955	594.75
1420.88844261615	592
1423.37630656249	591.75
1425.86340894757	592.75
1428.34975013999	599
1430.83533050792	611
1433.32015041912	616.25
1435.80421024098	625
1438.28751034045	620.5
1440.77005108411	621
1443.25183283812	618
1445.73285596824	620.75
1448.21312083984	632
1450.69262781791	646.75
1453.17137726702	663.75
1455.64936955137	675.75
1458.12660503477	680.25
1460.60308408063	680
1463.07880705197	661.5
1465.55377431145	645
1468.02798622133	621.75
1470.50144314348	610.5
1472.97414543941	603.25
1475.44609347024	599.5
1477.91728759673	597.75
1480.38772817924	594.5
1482.85741557777	593.5
1485.32635015194	593.5
1487.79453226103	592.5
1490.26196226391	594.75
1492.72864051911	593.75
1495.1945673848	590.5
1497.65974321874	596
1500.1241683784	591.5
1502.58784322083	590
1505.05076810274	590.75
1507.51294338049	593.75
1509.97436941009	592.25
1512.43504654717	591.25
1514.89497514704	593.75
1517.35415556462	590.25
1519.81258815451	591.75
1522.27027327095	593.25
1524.72721126784	585.5
1527.18340249874	594
1529.63884731684	592.5
1532.09354607502	592
1534.5474991258	591
1537.00070682136	592
1539.45316951355	589.25
1541.90488755388	590.5
1544.35586129353	597.25
1546.80609108336	590.25
1549.25557727385	593
1551.70432021519	596.5
1554.15232025725	598.25
1556.59957774953	591.5
1559.04609304125	598
1561.49186648127	591.75
1563.93689841815	593.75
1566.38118920011	597.25
1568.82473917506	593.25
1571.2675486906	591.75
1573.70961809399	597.75
1576.15094773219	598
1578.59153795184	595.5
1581.03138909928	591.25
1583.47050152051	593
1585.90887556123	595
1588.34651156686	597.25
1590.78340988246	599
1593.21957085283	592.5
1595.65499482245	593
1598.08968213547	596.25
1600.52363313578	592
1602.95684816694	594
1605.38932757224	591.75
1607.82107169462	590.75
1610.25208087677	598
1612.68235546107	593
1615.1118957896	592.25
1617.54070220415	595.75
1619.96877504621	593.25
1622.39611465701	588.75
1624.82272137746	591.75
1627.24859554818	593
1629.67373750953	595
1632.09814760155	594.25
1634.52182616404	590.75
1636.94477353647	596
1639.36699005806	594.25
1641.78847606776	591.5
1644.20923190418	598.75
1646.62925790573	593
1649.04855441048	596.75
1651.46712175628	590.5
1653.88496028066	592
1656.3020703209	590.25
1658.71845221401	592.25
1661.13410629671	596.75
1663.54903290547	597.75
1665.96323237649	596
1668.37670504571	595.75
1670.78945124877	596.25
1673.20147132109	599
1675.61276559779	601.75
1678.02333441377	594.75
1680.43317810362	588.25
1682.84229700171	594.75
1685.25069144213	591.75
1687.65836175872	597.75
1690.06530828507	596.5
1692.47153135451	600.25
1694.87703130009	598.5
1697.28180845467	602.25
1699.6858631508	592
1702.08919572081	593.25
1704.49180649676	597.75
1706.89369581049	596.5
1709.29486399355	598.25
1711.69531137731	598
1714.09503829282	592.25
1716.49404507095	601.25
1718.89233204229	594.75
1721.28989953721	601.5
1723.68674788581	596.25
1726.08287741798	601.25
1728.47828846338	598.5
1730.87298135139	598
1733.26695641119	596.75
1735.66021397173	590.75
1738.05275436169	602.25
1740.44457790954	594.75
1742.83568494354	597.75
1745.22607579168	594
1747.61575078175	590
1750.00471024128	593.75
1752.39295449761	599.75
1754.78048387783	594.25
1757.16729870881	599.75
1759.5533993172	592
1761.93878602942	593
1764.32345917168	596.75
1766.70741906995	596.5
1769.09066604999	595.25
1771.47320043735	596.75
1773.85502255735	600.5
1776.2361327351	592
1778.61653129548	598.5
1780.99621856318	594.25
1783.37519486264	603
1785.75346051813	598
1788.13101585368	599.5
1790.5078611931	601
1792.88399686002	601.5
1795.25942317785	598
1797.63414046977	602.5
1800.00814905878	600
1802.38144926766	599.75
1804.75404141898	600
1807.12592583514	597.75
1809.49710283829	599.5
1811.86757275039	597.5
1814.23733589322	599.25
1816.60639258834	597.5
1818.97474315712	597
1821.34238792073	597.5
1823.70932720012	592
1826.07556131608	600.75
1828.44109058918	602.75
1830.8059153398	596
1833.17003588812	596.75
1835.53345255413	600.75
1837.89616565765	600
1840.25817551827	602.25
1842.61948245541	601
1844.9800867883	598.5
1847.33998883598	600.75
1849.69918891729	600.75
1852.05768735091	601.75
1854.4154844553	599.25
1856.77258054875	597.75
1859.12897594938	601.25
1861.4846709751	594.75
1863.83966594366	602.75
1866.19396117261	601.75
1868.54755697932	600.5
1870.90045368099	598.75
1873.25265159463	604
1875.60415103708	603.5
1877.95495232501	597.5
1880.30505577486	598.5
1882.65446170299	602.75
1885.00317042548	602
1887.35118225832	600.25
1889.69849751726	602.5
1892.04511651792	603.5
1894.39103957574	608.75
1896.73626700596	604.5
1899.08079912368	606.75
1901.42463624384	602.25
1903.76777868116	604.75
1906.11022675025	607.25
1908.4519807655	601
1910.79304104117	601
1913.13340789134	599
1915.47308162992	604.25
1917.81206257067	603
1920.15035102718	607.5
1922.48794731286	601
1924.82485174096	608.25
1927.16106462461	604.5
1929.49658627672	608.75
1931.83141701008	605.75
1934.1655571373	606.75
1936.49900697085	602.5
1938.83176682301	598.75
1941.16383700594	605.25
1943.49521783161	601.5
1945.82590961186	603
1948.15591265835	605
1950.48522728262	605.75
1952.81385379602	605.75
1955.14179250976	607
1957.46904373489	610.25
1959.79560778233	604.75
1962.12148496284	610
1964.44667558701	602
1966.77117996529	607.5
1969.09499840799	601.75
1971.41813122527	607.5
1973.74057872714	608
1976.06234122345	610
1978.38341902391	612.5
1980.7038124381	603
1983.02352177543	609.5
1985.34254734518	604.25
1987.66088945649	610.5
1989.97854841833	606.5
1992.29552453956	606.25
1994.61181812887	605.75
1996.92742949483	616
1999.24235894586	609.25
2001.55660679023	608
2003.87017333608	604.5
2006.18305889143	604.5
2008.49526376413	608.25
2010.80678826189	607.25
2013.1176326923	612
2015.42779736282	606.25
2017.73728258075	608.75
2020.04608865326	613.5
2022.3542158874	608
2024.66166459008	604.5
2026.96843506807	612
2029.274527628	611.5
2031.57994257637	610.25
2033.88468021957	611.25
2036.18874086383	617.75
2038.49212481526	613.25
2040.79483237983	611.75
2043.0968638634	615.75
2045.39821957169	617.25
2047.69889981028	612.25
2049.99890488462	617.25
2052.29823510006	611.5
2054.59689076181	608.5
2056.89487217492	610
2059.19217964437	614.5
2061.48881347497	621
2063.7847739714	612.75
2066.08006143826	615.25
2068.37467618	619
2070.66861850093	620.5
2072.96188870527	611.75
2075.25448709707	608.75
2077.54641398031	614.5
2079.83766965881	616.25
2082.12825443629	613
2084.41816861634	616.5
2086.70741250242	612
2088.99598639789	616
2091.28389060597	609
2093.57112542978	614.75
2095.85769117232	616
2098.14358813644	615
2100.42881662491	611.5
2102.71337694037	614
2104.99726938532	618.25
2107.28049426219	617.5
2109.56305187325	614.75
2111.84494252069	611.25
2114.12616650655	613.5
2116.40672413278	613.5
2118.68661570121	615
2120.96584151355	618.5
2123.24440187138	609.25
2125.52229707622	611
2127.79952742943	617.5
2130.07609323227	618.25
2132.35199478588	616.75
2134.62723239132	612
2136.90180634949	613.75
2139.17571696123	618.75
2141.44896452723	618
2143.72154934809	617.75
2145.99347172429	613.5
2148.26473195623	609.75
2150.53533034415	619.5
2152.80526718821	618.25
2155.07454278848	619.25
2157.3431574449	616.25
2159.61111145728	615
2161.87840512538	615.5
2164.1450387488	614.75
2166.41101262707	616
2168.67632705959	615.75
2170.94098234567	616.75
2173.20497878451	612
2175.46831667519	620
2177.73099631672	617.5
2179.99301800797	619
2182.25438204772	618.5
2184.51508873466	616.5
2186.77513836735	614.75
2189.03453124427	617.5
2191.29326766378	619
2193.55134792416	618
2195.80877232355	616.25
2198.06554116004	620
2200.32165473157	617.25
2202.577113336	618.25
2204.83191727111	609.25
2207.08606683453	620.5
2209.33956232384	616.5
2211.59240403648	613.25
2213.84459226982	617.25
2216.09612732112	621.25
2218.34700948753	615.75
2220.59723906612	613.75
2222.84681635385	617
2225.09574164758	613.75
2227.34401524408	617.75
2229.59163744002	618.5
2231.83860853197	622.5
2234.08492881639	619
2236.33059858968	617
2238.5756181481	624.25
2240.81998778784	620.25
2243.06370780499	621
2245.30677849555	618.25
2247.54920015539	622.5
2249.79097308033	614.75
2252.03209756607	621.25
2254.27257390822	617
2256.51240240228	617.5
2258.75158334369	614.75
2260.99011702777	618.25
2263.22800374976	615
2265.46524380477	619.75
2267.70183748786	615
2269.93778509399	618.5
2272.17308691801	620.25
2274.40774325467	621.75
2276.64175439866	620.75
2278.87512064454	613.25
2281.10784228682	619.5
2283.33991961987	620.5
2285.571352938	612.75
2287.80214253541	615.75
2290.03228870623	620.5
2292.26179174449	620
2294.4906519441	614
2296.71886959892	618.5
2298.9464450027	618
2301.1733784491	622.25
2303.39967023169	618.25
2305.62532064395	625.25
2307.85032997926	620
2310.07469853093	622.25
2312.29842659216	620
2314.52151445608	620
2316.7439624157	621.75
2318.96577076397	616
2321.18693979374	623.75
2323.40746979777	620
2325.62736106873	623.25
2327.8466138992	626.25
2330.06522858166	617.75
2332.28320540853	619
2334.50054467212	627.5
2336.71724666465	620
2338.93331167827	619.5
2341.14874000501	622
2343.36353193685	618.75
2345.57768776564	622.5
2347.79120778319	614.25
2350.00409228117	622
2352.21634155121	620
2354.42795588482	620.5
2356.63893557342	611.5
2358.84928090838	617.5
2361.05899218094	624.25
2363.26806968228	616.75
2365.47651370347	624.75
2367.68432453552	623.5
2369.89150246933	615
2372.09804779571	620.75
2374.30396080541	617.75
2376.50924178907	618
2378.71389103725	614
2380.91790884042	620.25
2383.12129548897	613.5
2385.3240512732	619.5
2387.52617648332	615.75
2389.72767140946	616.75
2391.92853634165	617.75
2394.12877156985	618.5
2396.32837738392	625.75
2398.52735407365	620.5
2400.72570192873	618.75
2402.92342123875	618.5
2405.12051229325	620
2407.31697538167	613.75
2409.51281079333	619.75
2411.70801881751	614
2413.90259974339	618.25
2416.09655386004	618
2418.28988145648	614.5
2420.48258282162	617
2422.6746582443	612.5
2424.86610801325	619.5
2427.05693241713	613.75
2429.24713174452	620.5
2431.43670628389	618
2433.62565632365	615.75
2435.81398215212	615.75
2438.00168405752	619
2440.18876232799	618.5
2442.37521725158	617.75
2444.56104911628	620.25
2446.74625820994	612.75
2448.93084482038	617.75
2451.1148092353	614
2453.29815174233	617.75
2455.480872629	616.25
2457.66297218275	618.5
2459.84445069097	612.25
2462.02530844092	612.25
2464.2055457198	616.25
2466.38516281471	612
2468.56416001267	615.5
2470.74253760061	609.75
2472.92029586537	614.5
2475.09743509372	612.75
2477.27395557232	618.75
2479.44985758777	616.5
2481.62514142655	617.75
2483.79980737508	612.25
2485.97385571969	612.25
2488.14728674661	614.75
2490.32010074198	614.25
2492.49229799188	617.25
2494.66387878228	613.25
2496.83484339905	612.75
2499.00519212802	615.75
2501.17492525488	617.5
2503.34404306528	610.5
2505.51254584473	613.5
2507.6804338787	611.25
2509.84770745254	615
2512.01436685153	625
2514.18041236085	615.5
2516.34584426561	613
2518.51066285081	614.75
2520.67486840138	616.75
2522.83846120214	609.75
2525.00144153784	616.5
2527.16380969314	615.75
2529.32556595261	617.5
2531.48671060072	621.25
2533.64724392186	616.25
2535.80716620033	614
2537.96647772034	610.75
2540.12517876602	620.5
2542.2832696214	613.5
2544.44075057041	607.5
2546.59762189691	612.5
2548.75388388466	607.5
2550.90953681735	613.75
2553.06458097853	615.25
2555.21901665172	612.75
2557.37284412031	617.75
2559.5260636676	619.5
2561.67867557684	611.5
2563.83068013113	620.25
2565.98207761351	610.5
2568.13286830695	614.75
2570.28305249429	615.25
2572.43263045829	616.5
2574.58160248163	619
2576.72996884689	610.25
2578.87772983655	612.5
2581.02488573303	614.75
2583.1714368186	614
2585.31738337549	616.5
2587.46272568582	612.25
2589.60746403161	619.25
2591.75159869479	613.75
2593.89512995722	618
2596.03805810061	613.25
2598.18038340665	618.5
2600.32210615686	618
2602.46322663274	613.5
2604.60374511563	622.5
2606.74366188683	611.25
2608.88297722751	611.5
2611.02169141875	613.25
2613.15980474156	614.5
2615.29731747681	613
2617.43422990532	615
2619.57054230779	618.25
2621.70625496483	619
2623.84136815694	611.75
2625.97588216456	614.25
2628.10979726799	616.75
2630.24311374746	616.25
2632.3758318831	617.75
2634.50795195493	615.75
2636.6394742429	612
2638.77039902682	621.75
2640.90072658645	612.25
2643.0304572014	622
2645.15959115123	622.25
2647.28812871538	622
2649.41607017319	619
2651.5434158039	619.5
2653.67016588665	631.5
2655.79632070049	628.25
2657.92188052436	624
2660.04684563711	624
2662.17121631749	624.25
2664.29499284413	626.5
2666.41817549558	623.25
2668.54076455027	616.75
2670.66276028656	624.25
2672.78416298267	625.5
2674.90497291675	619.25
2677.02519036682	624
2679.14481561082	621.75
2681.26384892658	617.5
2683.38229059182	619.75
2685.50014088417	615.25
2687.61740008114	614
2689.73406846017	622.25
2691.85014629854	623
2693.96563387347	619.5
2696.08053146206	620.75
2698.1948393413	626.25
2700.3085577881	626.75
2702.42168707924	626.75
2704.53422749139	632.5
2706.64617930112	638.25
2708.75754278492	644.25
2710.86831821913	635.5
2712.97850588002	642.5
2715.08810604372	641
2717.19711898628	648
2719.30554498363	656
2721.41338431158	660.75
2723.52063724586	655.75
2725.62730406206	650.25
2727.73338503569	642.5
2729.83888044213	639.25
2731.94379055664	646.5
2734.04811565441	633.25
2736.15185601048	630.5
2738.25501189979	635.75
2740.35758359718	631.25
2742.45957137738	628
2744.56097551499	623.75
2746.6617962845	624.75
2748.7620339603	629.25
2750.86168881666	625.5
2752.96076112774	624
2755.05925116758	628.25
2757.15715921012	619
2759.25448552917	626
2761.35123039843	622.5
2763.44739409148	619.25
2765.5429768818	614.25
2767.63797904275	611.75
2769.73240084756	617
2771.82624256934	614.75
2773.91950448113	614
2776.01218685579	623.75
2778.10428996609	616.75
2780.19581408469	616.75
2782.28675948414	618
2784.37712643683	617.5
2786.46691521507	623
2788.55612609104	614.5
2790.64475933678	621.75
2792.73281522425	626.75
2794.82029402525	624.75
2796.90719601149	620.75
2798.99352145453	620.25
2801.07927062583	622.5
2803.16444379672	620.5
2805.24904123841	623
2807.33306322197	629.25
2809.41651001838	630
2811.49938189847	638.5
2813.58167913296	630.25
2815.66340199243	635.75
2817.74455074734	635.75
2819.82512566805	644
2821.90512702475	640.5
2823.98455508754	661.25
2826.06341012637	664.25
2828.14169241109	687.75
2830.2194022114	715.5
2832.29653979686	755.25
2834.37310543694	827
2836.44909940096	900.5
2838.5245219581	923.75
2840.59937337744	916
2842.67365392791	857.25
2844.74736387829	811.5
2846.82050349727	766.5
2848.8930730534	743.75
2850.96507281506	727.75
2853.03650305056	713.5
2855.10736402802	732.75
2857.17765601545	756.25
2859.24737928074	802.5
2861.31653409164	877.5
2863.38512071574	954.5
2865.45313942054	1029.5
2867.52059047335	1027.75
2869.58747414139	1042
2871.65379069173	1030.5
2873.7195403913	1060.5
2875.78472350688	1103
2877.84934030515	1180
2879.91339105262	1231
2881.97687601567	1242.25
2884.03979546053	1242
2886.10214965332	1201.5
2888.16393886	1173.75
2890.22516334639	1110
2892.28582337816	1071.75
2894.34591922087	1053.75
2896.40545113992	1049.5
2898.46441940054	1069.5
2900.52282426787	1091.5
2902.58066600687	1142
2904.63794488237	1129.75
2906.69466115906	1114
2908.75081510147	1043.25
2910.806406974	1002.75
2912.8614370409	974.25
2914.91590556626	951.25
2916.96981281404	946.25
2919.02315904807	940.75
2921.07594453199	963.5
2923.12816952932	963.25
2925.17983430343	954.75
2927.23093911753	935.25
2929.28148423469	904.25
2931.33146991782	859.75
2933.3808964297	829.25
2935.42976403294	798.25
2937.47807299	774.25
2939.5258235632	761.5
2941.57301601469	767
2943.61965060648	795
2945.66572760042	840
2947.71124725823	894.5
2949.75620984143	934.5
2951.80061561143	949.75
2953.84446482945	932.5
2955.88775775656	913.5
2957.9304946537	891
2959.97267578162	880.5
2962.01430140095	865
2964.05537177211	832
2966.09588715541	806
2968.13584781097	778.75
2970.17525399875	738
2972.21410597859	715.75
2974.25240401011	697
2976.29014835283	683.75
2978.32733926604	667.5
2980.36397700892	655.25
2982.40006184049	655
2984.43559401955	653
2986.4705738048	642
2988.50500145473	640
2990.53887722771	632.75
2992.57220138189	643
2994.6049741753	633.25
2996.63719586576	631
2998.66886671097	627
3000.69998696843	629
3002.73055689549	628
3004.7605767493	628.5
3006.79004678688	626.5
3008.81896726505	618.25
3010.84733844048	626.25
3012.87516056966	619
3014.9024339089	626.75
3016.92915871433	629
3018.95533524196	625
3020.98096374756	621
3023.00604448675	618.75
3025.030577715	620.5
3027.05456368757	620
3029.07800265956	619.25
3031.10089488589	619.5
3033.12324062131	618
3035.14504012038	617.25
3037.16629363749	615.5
3039.18700142685	620
3041.20716374249	617
3043.22678083826	618.75
3045.24585296782	620
3047.26438038468	615.5
3049.28236334212	609.25
3051.29980209329	617.5
3053.31669689111	621.5
3055.33304798835	615
3057.34885563757	613
3059.36412009117	619.75
3061.37884160134	621.5
3063.39302042011	616.5
3065.40665679931	616
3067.41975099058	615.25
3069.43230324538	617.75
3071.44431381495	619.75
3073.45578295041	618.75
3075.46671090261	616.5
3077.47709792227	616
3079.48694425989	620
3081.49625016578	614.5
3083.50501589008	612
3085.5132416827	619.25
3087.5209277934	613.25
3089.52807447169	615.75
3091.53468196695	613.75
3093.54075052832	610.75
3095.54628040476	616.5
3097.55127184503	617.25
3099.55572509769	616.25
3101.55964041111	616.5
3103.56301803346	618.25
3105.5658582127	615.5
3107.56816119661	620.5
3109.56992723275	616.75
3111.57115656849	610.25
3113.571849451	618
3115.57200612724	616
3117.57162684397	618.25
3119.57071184775	619
3121.56926138493	618.75
3123.56727570166	615.75
3125.56475504389	619.5
3127.56169965735	617.25
3129.55810978757	619
3131.55398567987	625.5
3133.54932757937	622.75
3135.54413573099	622.25
3137.53841037939	621
3139.53215176909	624.25
3141.52536014435	620.25
3143.51803574924	620.5
3145.51017882762	619
3147.50178962311	618.75
3149.49286837916	625
3151.48341533897	621.5
3153.47343074553	623
3155.46291484164	620.5
3157.45186786985	617.25
3159.44029007252	615.75
3161.42818169179	619.25
3163.41554296955	618.75
3165.40237414753	615
3167.38867546718	618.5
3169.37444716975	617.75
3171.35968949631	617.25
3173.34440268764	619
3175.32858698436	622.5
3177.31224262682	623.75
3179.29536985517	623.5
3181.27796890934	619
3183.26004002902	617.25
3185.24158345368	619.25
3187.22259942256	621
3189.2030881747	621.25
3191.18304994886	618.75
3193.16248498363	618.25
3195.14139351733	616.75
3197.11977578807	624.25
3199.09763203371	627.5
3201.07496249191	624.75
3203.05176740007	619.5
3205.02804699537	619.75
3207.00380151475	624.25
3208.97903119493	621
3210.95373627238	617.5
3212.92791698335	617
3214.90157356383	616.25
3216.8747062496	621.25
3218.84731527619	615.5
3220.81940087889	620.75
3222.79096329275	621.5
3224.76200275259	617
3226.73251949298	620.75
3228.70251374825	622.25
3230.67198575251	617.25
3232.64093573959	612.75
3234.6093639431	613.25
3236.57727059641	618.5
3238.54465593261	619.75
3240.51152018461	620.5
3242.47786358502	617.75
3244.44368636621	620.75
3246.40898876031	621
3248.37377099923	620
3250.33803331458	618
3252.30177593775	617.5
3254.26499909987	615.75
3256.22770303184	624.25
3258.18988796427	613.25
3260.15155412755	620.5
3262.1127017518	617.5
3264.0733310669	617.5
3266.03344230246	620.75
3267.99303568784	618.75
3269.95211145215	624
3271.91066982422	620
3273.86871103267	617.5
3275.82623530581	622.75
3277.7832428717	617.75
3279.73973395818	622.75
3281.69570879278	621.75
3283.6511676028	620.5
3285.60611061527	620.5
3287.56053805694	616.25
3289.51445015432	616.25
3291.46784713364	621.5
3293.42072922088	619
3295.37309664173	620.75
3297.32494962163	615.25
3299.27628838575	620
3301.227113159	615
3303.17742416601	618.75
3305.12722163114	616.75
3307.07650577848	625.75
3309.02527683185	615
3310.9735350148	616.75
3312.9212805506	618
3314.86851366225	618
3316.81523457249	621.5
3318.76144350377	619.5
3320.70714067825	619.5
3322.65232631783	617.5
3324.59700064415	615.5
3326.54116387854	616.5
3328.48481624207	620
3330.42795795551	614.5
3332.37058923938	616.25
3334.31271031389	616.25
3336.25432139898	616
3338.19542271432	614
3340.13601447927	615.75
3342.07609691292	615.5
3344.01567023407	613
3345.95473466124	619
3347.89329041266	619.75
3349.83133770627	619.5
3351.76887675973	619.25
3353.70590779039	616
3355.64243101534	615.25
3357.57844665135	619
3359.51395491492	615.5
3361.44895602224	614.25
3363.38345018922	613
3365.31743763148	622
3367.25091856432	611.5
3369.18389320278	615.75
3371.11636176156	618.25
3373.0483244551	615.5
3374.97978149754	617
3376.91073310269	620
3378.84117948409	612.5
3380.77112085498	616.25
3382.70055742826	613.25
3384.62948941659	619
3386.55791703227	612.75
3388.48584048733	619.25
3390.41325999348	625.75
3392.34017576214	620.25
3394.2665880044	615.25
3396.19249693107	617
3398.11790275263	615.75
3400.04280567926	618
3401.96720592084	625.25
3403.89110368692	618.75
3405.81449918675	627.75
3407.73739262928	619
3409.65978422311	611.75
3411.58167417658	619.75
3413.50306269768	618.25
3415.42394999408	624
3417.34433627316	619.25
3419.26422174195	617.5
3421.18360660721	619.5
3423.10249107532	621.25
3425.02087535239	620.25
3426.93875964421	620.25
3428.8561441562	618.5
3430.77302909353	618.75
3432.68941466097	618.5
3434.60530106301	616
3436.52068850383	624.5
3438.43557718726	624.5
3440.34996731681	615.25
3442.26385909565	622
3444.17725272664	622
3446.09014841231	615.75
3448.00254635486	618
3449.91444675614	623
3451.82584981771	616.75
3453.73675574076	620.75
3455.64716472616	621.5
3457.55707697445	622
3459.46649268584	615.75
3461.37541206018	612.5
3463.28383529703	620.75
3465.19176259555	621.25
3467.09919415464	617
3469.00613017278	621
3470.91257084817	614.5
3472.81851637863	619
3474.72396696168	617
3476.62892279446	619.25
3478.53338407379	622
3480.43735099614	616.75
3482.34082375764	615.75
3484.24380255404	628.25
3486.1462875808	615.25
3488.048279033	616
3489.94977710537	618
3491.85078199231	616.25
3493.75129388783	610.5
3495.65131298566	616
3497.5508394791	616
3499.44987356115	614.25
