201.866871357051	1654.25
204.754250281454	1670.5
207.640596790938	1634.25
210.525911876299	1661.75
213.410196525689	1651.25
216.293451724508	1659
219.175678455485	1646
222.056877698662	1675.5
224.937050431388	1677
227.816197628363	1675.75
230.694320261602	1693.25
233.571419300504	1680.25
236.447495711764	1711.5
239.322550459507	1714.25
242.196584505182	1721.75
245.069598807626	1722.5
247.941594323078	1726.5
250.812572005154	1748.75
253.682532804884	1743.75
256.551477670699	1741
259.419407548456	1740
262.286323381439	1726.75
265.152226110364	1741
268.017116673389	1768.5
270.880996006115	1738
273.743865041622	1742.25
276.605724710436	1774.25
279.466575940562	1776.25
282.326419657496	1748.25
285.1852567842	1769.25
288.043088241157	1781
290.899914946349	1760.5
293.75573781526	1753.25
296.610557760898	1765.5
299.464375693817	1792.5
302.317192522078	1789
305.169009151297	1791.5
308.019826484655	1803
310.86964542287	1800.75
313.718466864233	1823.25
316.566291704614	1807.75
319.413120837457	1838
322.258955153804	1819.25
325.103795542291	1804.5
327.947642889128	1823
330.79049807819	1832.75
333.632361990927	1797.25
336.473235506444	1845.5
339.31311950145	1816
342.152014850322	1819
344.989922425062	1844
347.826843095354	1828.25
350.662777728528	1823.5
353.497727189577	1862.75
356.331692341195	1842.5
359.164674043732	1864.5
361.996673155267	1883.75
364.827690531536	1892.5
367.65772702602	1888
370.486783489887	1891
373.314860772047	1906.75
376.14195971912	1928
378.968081175466	1909.25
381.793225983212	1914.25
384.617394982201	1922
387.44058901005	1927.75
390.262808902131	1957.5
393.08405549161	1984
395.904329609395	2053
398.723632084213	2074.75
401.541963742569	2059.5
404.359325408779	2005
407.175717904938	1994.5
409.991142050982	1948.5
412.805598664665	1954.75
415.619088561551	1971.5
418.43161255505	1951.5
421.243171456415	1954.25
424.053766074758	1976.25
426.863397217017	1963.5
429.672065688024	1938.5
432.479772290455	1969.5
435.286517824879	1977.75
438.092303089736	1980.5
440.897128881359	1997.25
443.70099599399	2004.25
446.503905219761	2016.75
449.305857348711	2044.5
452.106853168796	2014
454.906893465919	2012.5
457.705979023885	2033
460.504110624439	2016.5
463.3012890473	2018.5
466.097515070087	1998.75
468.892789468424	1983
471.687113015869	2000
474.48048648395	1994
477.272910642198	1993.5
480.064386258109	2020.5
482.854914097159	2027.25
485.644494922839	2018.5
488.433129496636	2017
491.220818578047	2032.75
494.007562924584	2036.25
496.793363291785	2055
499.578220433217	2037
502.362135100473	2050.25
505.145108043209	2050.75
507.927140009098	2067
510.708231743909	2078
513.488383991433	2089
516.267597493556	2111
519.04587299022	2090.75
521.82321121946	2122.75
524.599612917398	2138.25
527.375078818233	2135.5
530.149609654287	2123
532.923206155967	2110.5
535.695869051804	2103
538.467599068448	2116.75
541.238396930665	2103.25
544.008263361364	2081.5
546.777199081578	2074.25
549.545204810493	2111.25
552.312281265436	2084.5
555.078429161898	2100.75
557.843649213533	2116.5
560.607942132156	2102
563.371308627753	2106.25
566.133749408495	2101
568.895265180756	2131.25
571.655856649064	2127
574.415524516189	2123.75
577.174269483075	2142.25
579.932092248884	2141.5
582.688993510994	2163.5
585.444973965023	2140.5
588.200034304795	2170.25
590.95417522237	2166
593.70739740807	2165.75
596.459701550433	2170.75
599.21108833628	2177.75
601.961558450668	2192.5
604.711112576933	2195.75
607.459751396673	2164.75
610.207475589748	2171
612.954285834338	2207.5
615.700182806879	2152.75
618.445167182101	2160.75
621.189239633055	2171.25
623.932400831087	2169.5
626.674651445839	2144
629.415992145303	2162
632.156423595745	2133.25
634.895946461813	2153
637.634561406449	2179.5
640.37226909096	2144.25
643.109070174978	2183.25
645.844965316508	2187.25
648.579955171888	2188.25
651.314040395846	2192
654.047221641456	2192
656.779499560176	2219.5
659.510874801828	2215.5
662.241348014642	2215.5
664.97091984524	2205
667.699590938606	2203
670.427361938164	2212.75
673.15423348573	2215.75
675.880206221526	2242
678.605280784206	2247
681.329457810829	2232.25
684.05273793692	2244
686.775121796389	2246
689.49661002163	2236.25
692.217203243454	2228.25
694.936902091144	2255.75
697.655707192425	2244.5
700.373619173493	2232.25
703.09063865901	2227.5
705.806766272093	2234.25
708.522002634378	2256.75
711.236348365946	2247
713.94980408538	2244.25
716.662370409762	2271.25
719.374047954676	2249.25
722.08483733419	2263.5
724.794739160909	2282.5
727.503754045949	2249.75
730.21188259892	2273.25
732.919125427998	2268.75
735.625483139855	2269.75
738.330956339723	2281
741.035545631374	2238.5
743.739251617106	2267
746.44207489779	2284.5
749.144016072852	2306.75
751.845075740272	2333.75
754.545254496603	2334.75
757.244552936976	2346
759.94297165508	2325.75
762.640511243222	2330.75
765.337172292249	2319
768.032955391649	2338
770.727861129482	2321.25
773.421890092413	2336.5
776.11504286572	2353.75
778.807320033298	2347.25
781.49872217765	2312.5
784.18924987991	2334.75
786.87890371984	2335
789.567684275826	2331.25
792.255592124908	2323.75
794.94262784276	2358.5
797.628792003703	2355.25
800.314085180715	2385.75
802.998507945427	2478.25
805.682060868145	2524.25
808.364744517821	2599.75
811.046559462105	2588
813.727506267311	2485.5
816.407585498422	2416.75
819.08679771913	2384.75
821.765143491822	2415.75
824.442623377563	2409.5
827.119237936127	2401.75
829.794987726003	2415
832.469873304377	2467.5
835.143895227167	2484.5
837.817054048985	2551.5
840.489350323205	2604.75
843.160784601892	2587
845.831357435894	2533.25
848.501069374739	2483.75
851.169920966753	2440.25
853.837912758987	2423
856.505045297232	2438
859.171319126071	2425.5
861.836734788823	2413.25
864.501292827579	2464.5
867.164993783208	2422.25
869.827838195361	2420.25
872.489826602454	2417.25
875.150959541701	2434
877.811237549104	2419.5
880.470661159456	2435
883.129230906357	2440.5
885.786947322205	2422.25
888.443810938206	2439.25
891.099822284385	2430.5
893.754981889586	2437
896.409290281452	2458
899.062747986485	2447.75
901.715355529999	2473.25
904.367113436154	2487.5
907.01802222793	2486.75
909.668082427172	2449.5
912.317294554574	2457
914.965659129659	2478
917.613176670835	2473
920.259847695364	2501
922.90567271936	2498.5
925.550652257825	2487.5
928.194786824621	2491.5
930.838076932512	2482.5
933.480523093109	2503.75
936.122125816953	2539
938.762885613447	2522.25
941.402802990899	2536
944.041878456523	2523
946.680112516428	2557
949.31750567563	2512.75
951.954058438081	2534
954.589771306633	2534.25
957.224644783048	2526.5
959.858679368044	2535.75
962.491875561238	2552
965.12423386121	2559.5
967.75575476545	2567.75
970.386438770423	2618.5
973.016286371501	2647.5
975.645298063046	2638.75
978.273474338355	2591.25
980.900815689674	2547.5
983.527322608243	2525.25
986.152995584245	2592
988.777835106834	2558.75
991.401841664148	2612.5
994.025015743307	2566
996.647357830407	2603
999.268868410534	2647.75
1001.88954796777	2604.25
1004.50939698518	2613.25
1007.12841594484	2595.75
1009.74660532783	2566.75
1012.36396561423	2608
1014.98049728314	2610.75
1017.59620081267	2593.75
1020.21107667995	2588
1022.82512536112	2622
1025.43834733138	2652
1028.05074306493	2638.25
1030.66231303501	2652.75
1033.27305771392	2689.25
1035.88297757299	2691
1038.49207308257	2693.25
1041.10034471211	2663.25
1043.70779293008	2705
1046.31441820402	2691
1048.92022100052	2654.25
1051.52520178525	2682.75
1054.12936102295	2641.5
1056.73269917742	2676.75
1059.33521671154	2649.75
1061.93691408729	2672.75
1064.53779176571	2669.5
1067.13785020694	2672.75
1069.73708987022	2683.75
1072.33551121386	2665.5
1074.93311469528	2680.75
1077.52990077103	2668
1080.12586989674	2649.25
1082.72102252714	2652
1085.31535911611	2656
1087.90888011663	2697.25
1090.50158598078	2667.5
1093.09347715979	2677.25
1095.68455410403	2695.75
1098.27481726296	2674.5
1100.86426708523	2685.5
1103.45290401857	2698.75
1106.04072850991	2720.25
1108.6277410053	2692.25
1111.21394194993	2702
1113.79933178816	2674.75
1116.3839109635	2723.5
1118.96767991862	2717.75
1121.55063909539	2752.75
1124.13278893477	2769
1126.71412987696	2763.75
1129.29466236132	2751.75
1131.87438682637	2790.5
1134.45330370982	2736.25
1137.03141344858	2779.5
1139.60871647872	2792
1142.18521323554	2795.5
1144.7609041535	2817.5
1147.33578966629	2884.5
1149.90987020676	2931.25
1152.48314620702	2886.5
1155.05561809835	2900.5
1157.62728631125	2894
1160.19815127545	2891.5
1162.76821341988	2862
1165.33747317271	2908.75
1167.90593096133	2885.5
1170.47358721235	2871
1173.04044235163	2838.25
1175.60649680425	2814.75
1178.17175099454	2777
1180.73620534607	2795
1183.29986028165	2757.25
1185.86271622336	2792
1188.42477359249	2807.25
1190.98603280964	2794.75
1193.54649429462	2763.5
1196.10615846653	2789.25
1198.66502574372	2780.5
1201.22309654385	2807.5
1203.78037128378	2790.5
1206.33685037971	2804.75
1208.89253424709	2804.5
1211.44742330063	2815.25
1214.00151795438	2813.5
1216.55481862163	2863.25
1219.10732571497	2892.25
1221.65903964631	2886.5
1224.20996082683	2844.5
1226.760089667	2837.5
1229.30942657664	2848.5
1231.85797196483	2874.75
1234.40572623998	2828.25
1236.95268980981	2837.5
1239.49886308136	2841.5
1242.04424646098	2881.75
1244.58884035435	2869.75
1247.13264516647	2876.25
1249.67566130166	2893.25
1252.21788916358	2879.5
1254.75932915524	2928.75
1257.29998167896	2891
1259.83984713639	2907.25
1262.37892592857	2908
1264.91721845586	2926.5
1267.45472511795	2927.25
1269.9914463139	2936.75
1272.52738244213	2944.25
1275.0625339004	2933.5
1277.59690108587	2937
1280.130484395	2949.25
1282.66328422367	2946.5
1285.19530096712	2932.25
1287.72653501993	2969
1290.25698677608	2976
1292.78665662894	3022.75
1295.31554497125	3035
1297.8436521951	3048
1300.37097869203	3021.75
1302.89752485292	3025.25
1305.42329106805	3022
1307.94827772713	3040.25
1310.47248521921	3041
1312.99591393279	3058
1315.51856425575	3034
1318.04043657536	3027.25
1320.56153127836	3088.25
1323.08184875083	3133.25
1325.6013893783	3189.5
1328.12015354572	3218.75
1330.63814163744	3234.75
1333.15535403727	3199.25
1335.67179112839	3168
1338.18745329347	3137.75
1340.70234091454	3110.5
1343.21645437314	3156.5
1345.72979405019	3164.75
1348.24236032607	3157.5
1350.75415358059	3166.5
1353.26517419303	3211.5
1355.7754225421	3251
1358.28489900594	3247
1360.79360396218	3296.5
1363.30153778787	3254.75
1365.80870085955	3215
1368.31509355319	3236.5
1370.82071624424	3251
1373.32556930762	3252.25
1375.8296531177	3238.25
1378.33296804832	3214
1380.83551447282	3212
1383.33729276399	3178.5
1385.83830329408	3159.25
1388.33854643489	3149
1390.83802255762	3167.5
1393.33673203301	3176.25
1395.83467523128	3176.25
1398.33185252211	3143.75
1400.82826427471	3152.25
1403.32391085777	3164.5
1405.81879263947	3169.75
1408.31290998752	3162
1410.80626326908	3165.5
1413.29885285087	3187.75
1415.79067909909	3226.75
1418.28174237944	3204.25
1420.77204305717	3223.25
1423.26158149702	3216.5
1425.75035806323	3253.5
1428.2383731196	3284.25
1430.72562702942	3302.75
1433.21212015554	3359.75
1435.69785286028	3380
1438.18282550555	3415.75
1440.66703845275	3380
1443.15049206284	3375.5
1445.6331866963	3430.25
1448.11512271316	3436
1450.59630047298	3484.5
1453.07672033486	3546.75
1455.55638265748	3595
1458.03528779902	3629.75
1460.51343611725	3610
1462.99082796946	3557
1465.46746371252	3523.5
1467.94334370285	3497.25
1470.41846829642	3428.75
1472.89283784878	3403
1475.36645271503	3438.75
1477.83931324983	3476.25
1480.31141980743	3415.25
1482.78277274164	3429.75
1485.25337240583	3406.5
1487.72321915297	3372.75
1490.19231333557	3364
1492.66065530578	3382.75
1495.12824541525	3408.75
1497.5950840153	3414.75
1500.06117145678	3376
1502.52650809014	3427.75
1504.99109426543	3416
1507.45493033227	3377
1509.91801663992	3421
1512.38035353717	3434
1514.84194137248	3398.75
1517.30278049386	3442.25
1519.76287124894	3425.25
1522.22221398497	3430.25
1524.68080904876	3441.75
1527.13865678681	3423
1529.59575754514	3459.75
1532.05211166945	3457
1534.50771950503	3496
1536.96258139678	3462.25
1539.41669768924	3516.5
1541.87006872656	3486.5
1544.32269485252	3535.25
1546.77457641051	3535.75
1549.22571374357	3532.25
1551.67610719434	3592
1554.12575710513	3582.25
1556.57466381785	3551.5
1559.02282767408	3527.25
1561.47024901499	3592.75
1563.91692818144	3599.75
1566.3628655139	3640
1568.80806135249	3640
1571.252516037	3601.75
1573.6962299068	3639
1576.13920330099	3640
1578.58143655828	3628.75
1581.02293001704	3701.75
1583.46368401528	3643.5
1585.90369889071	3678
1588.34297498065	3705.75
1590.7815126221	3657.75
1593.21931215173	3696
1595.65637390588	3655.75
1598.09269822053	3686
1600.52828543135	3754.25
1602.96313587367	3683
1605.3972498825	3707
1607.83062779252	3686.5
1610.26326993808	3721.75
1612.69517665322	3682.75
1615.12634827165	3717
1617.55678512676	3729.75
1619.98648755163	3677.25
1622.41545587902	3670.25
1624.84369044138	3722.5
1627.27119157085	3717.75
1629.69795959924	3707.75
1632.12399485808	3708.5
1634.54929767859	3738.75
1636.97386839165	3715.25
1639.39770732789	3731.5
1641.8208148176	3698.5
1644.24319119078	3747.5
1646.66483677715	3732.75
1649.0857519061	3771
1651.50593690677	3767.25
1653.92539210795	3792.75
1656.3441178382	3776.25
1658.76211442575	3843.25
1661.17938219855	3798.75
1663.59592148428	3855.5
1666.01173261032	3845
1668.42681590377	3889.75
1670.84117169145	3876.25
1673.25480029991	3869.75
1675.66770205541	3891.25
1678.07987728393	3908
1680.49132631119	3935
1682.90204946263	3906
1685.31204706342	3897.5
1687.72131943846	3939
1690.1298669124	3922.5
1692.53768980957	4014
1694.94478845411	3953.75
1697.35116316982	3942.5
1699.75681428031	3968
1702.16174210887	3943.5
1704.56594697858	3969.75
1706.96942921222	3989.5
1709.37218913235	3964.75
1711.77422706125	3959.25
1714.17554332098	3969.75
1716.5761382333	3990.25
1718.97601211977	3991.5
1721.37516530169	4011.25
1723.77359810006	3981.5
1726.17131083572	3981.75
1728.56830382922	3959.75
1730.96457740087	4005.5
1733.36013187075	4000.25
1735.75496755868	4011.5
1738.14908478428	3985.5
1740.54248386689	3999.75
1742.93516512565	3981.75
1745.32712887946	3997.75
1747.71837544697	3996.5
1750.10890514662	3990.25
1752.49871829661	4006.5
1754.88781521492	4036
1757.27619621929	4059.75
1759.66386162726	4045.25
1762.05081175612	4073.5
1764.43704692297	4059.25
1766.82256744465	4016.25
1769.20737363782	4073
1771.59146581887	4073
1773.97484430405	4089.75
1776.35750940932	4088.75
1778.73946145048	4080.5
1781.12070074309	4081.75
1783.50122760249	4171.25
1785.88104234385	4146.5
1788.26014528209	4166.75
1790.63853673196	4157.25
1793.01621700796	4194.75
1795.39318642443	4171.25
1797.76944529549	4193.5
1800.14499393503	4178
1802.51983265681	4178
1804.8939617743	4209.25
1807.26738160085	4249.5
1809.64009244957	4226.25
1812.01209463339	4215.5
1814.38338846504	4238.5
1816.75397425706	4228.5
1819.12385232181	4233.75
1821.49302297142	4255.5
1823.86148651789	4260.25
1826.22924327299	4238.25
1828.59629354831	4225.5
1830.96263765526	4237
1833.32827590507	4301.75
1835.69320860877	4255.75
1838.05743607724	4256.75
1840.42095862113	4272.25
1842.78377655097	4293.75
1845.14589017707	4257.75
1847.50729980956	4293.25
1849.86800575843	4271.25
1852.22800833346	4296
1854.58730784427	4274.25
1856.94590460032	4297
1859.30379891087	4344.5
1861.66099108503	4339.5
1864.01748143175	4359.25
1866.37327025978	4337.25
1868.72835787773	4374.75
1871.08274459403	4385.5
1873.43643071697	4381.5
1875.78941655464	4399.75
1878.14170241498	4367.5
1880.4932886058	4414.75
1882.84417543469	4427.25
1885.19436320915	4456
1887.54385223646	4430.25
1889.89264282378	4508
1892.24073527809	4449.5
1894.58812990625	4517
1896.93482701493	4570.75
1899.28082691067	4544.5
1901.62612989984	4580.25
1903.97073628868	4555.75
1906.31464638326	4586.75
1908.6578604895	4644
1911.00037891321	4674.25
1913.34220196	4660
1915.68332993537	4659
1918.02376314468	4649.5
1920.36350189311	4683
1922.70254648573	4677.25
1925.04089722744	4700.75
1927.37855442303	4670.75
1929.71551837715	4670
1932.05178939426	4681.25
1934.38736777876	4727.5
1936.72225383484	4690
1939.0564478666	4761
1941.38995017799	4730.75
1943.72276107283	4784.25
1946.05488085479	4705.75
1948.38630982744	4721.5
1950.71704829419	4747.75
1953.04709655832	4732
1955.376454923	4740.75
1957.70512369126	4760.75
1960.03310316599	4745.75
1962.36039364999	4701.75
1964.68699544589	4791.5
1967.01290885622	4758.5
1969.33813418338	4780.25
1971.66267172965	4754.5
1973.98652179718	4797.5
1976.309684688	4801.75
1978.63216070402	4850.25
1980.95395014705	4903.75
1983.27505331873	4826
1985.59547052063	4856.5
1987.9152020542	4865.75
1990.23424822074	4861.75
1992.55260932146	4848
1994.87028565746	4927.75
1997.18727752968	4892.75
1999.503585239	4950.25
2001.81920908618	4913.25
2004.13414937184	4977.25
2006.44840639651	5001.75
2008.7619804606	5022
2011.07487186442	5017.5
2013.38708090815	5062.75
2015.6986078919	5075.5
2018.00945311564	5082.25
2020.31961687923	5098
2022.62909948246	5111
2024.93790122498	5125.75
2027.24602240636	5183.5
2029.55346332604	5209.25
2031.86022428337	5213
2034.16630557761	5239.75
2036.47170750791	5207
2038.77643037331	5309.25
2041.08047447275	5237.25
2043.38384010509	5235.5
2045.68652756907	5279.5
2047.98853716335	5273.75
2050.28986918648	5267.75
2052.59052393692	5327.75
2054.89050171302	5308.25
2057.18980281306	5374.75
2059.4884275352	5358
2061.78637617753	5300.75
2064.08364903802	5308.75
2066.38024641457	5328.75
2068.67616860497	5381.75
2070.97141590694	5367.5
2073.26598861809	5360.75
2075.55988703595	5328
2077.85311145796	5331.25
2080.14566218145	5369
2082.43753950371	5366
2084.72874372188	5397.75
2087.01927513307	5366
2089.30913403428	5406
2091.59832072241	5368.25
2093.88683549429	5390
2096.17467864666	5413.5
2098.46185047619	5415
2100.74835127944	5476.5
2103.03418135292	5479.5
2105.31934099303	5445.75
2107.6038304961	5491
2109.88765015838	5493
2112.17080027602	5505.75
2114.45328114513	5497.75
2116.7350930617	5526.5
2119.01623632165	5531.25
2121.29671122085	5536
2123.57651805505	5617.25
2125.85565711996	5593.75
2128.13412871117	5589
2130.41193312424	5616
2132.68907065462	5603
2134.96554159771	5624
2137.24134624881	5624
2139.51648490317	5661.75
2141.79095785593	5646.75
2144.0647654022	5690.25
2146.33790783698	5691
2148.61038545524	5670.75
2150.88219855182	5736.25
2153.15334742154	5734
2155.42383235911	5789.25
2157.6936536592	5742
2159.9628116164	5726.75
2162.23130652522	5765.75
2164.49913868011	5801
2166.76630837544	5781.25
2169.03281590552	5714.5
2171.2986615646	5772.75
2173.56384564685	5819
2175.82836844637	5713
2178.0922302572	5802.25
2180.35543137332	5755.75
2182.61797208862	5785.5
2184.87985269695	5746.75
2187.14107349208	5765.75
2189.40163476773	5786.5
2191.66153681753	5773
2193.92077993507	5738.75
2196.17936441386	5767.5
2198.43729054735	5762
2200.69455862894	5781.25
2202.95116895194	5784.25
2205.20712180962	5813.75
2207.46241749519	5748.5
2209.71705630179	5807.25
2211.97103852248	5775.5
2214.2243644503	5738.75
2216.47703437819	5763.25
2218.72904859905	5777
2220.98040740571	5768.75
2223.23111109095	5784.5
2225.4811599475	5735.25
2227.73055426799	5803.75
2229.97929434504	5728.25
2232.22738047118	5728
2234.47481293889	5768.5
2236.72159204058	5804
2238.96771806864	5774.5
2241.21319131536	5820.25
2243.458012073	5730.75
2245.70218063374	5801.5
2247.94569728973	5853.25
2250.18856233304	5759.75
2252.4307760557	5755
2254.67233874967	5768.25
2256.91325070687	5777.75
2259.15351221915	5777
2261.39312357831	5765
2263.63208507611	5766.25
2265.87039700422	5768.75
2268.1080596543	5791.75
2270.34507331792	5780.5
2272.5814382866	5737.5
2274.81715485183	5780
2277.05222330502	5813.25
2279.28664393755	5806.5
2281.52041704072	5783.25
2283.75354290581	5787.25
2285.98602182401	5731.5
2288.21785408648	5787
2290.44903998434	5809.75
2292.67957980862	5778
2294.90947385033	5787.75
2297.1387224004	5797.75
2299.36732574975	5806.5
2301.59528418921	5806.25
2303.82259800958	5807.75
2306.04926750158	5794.25
2308.27529295593	5765.25
2310.50067466325	5781
2312.72541291412	5812
2314.9495079991	5788.5
2317.17296020866	5800.5
2319.39576983323	5845
2321.61793716322	5792.5
2323.83946248894	5742.25
2326.06034610069	5802
2328.28058828871	5782.5
2330.50018934317	5767.5
2332.7191495542	5785.5
2334.93746921192	5757
2337.15514860633	5789
2339.37218802743	5737.5
2341.58858776516	5778.25
2343.80434810941	5729.25
2346.01946935001	5800.25
2348.23395177675	5744.75
2350.44779567939	5781
2352.66100134759	5803.75
2354.87356907101	5778
2357.08549913925	5750.25
2359.29679184185	5714.5
2361.50744746829	5848
2363.71746630804	5795.75
2365.92684865048	5718.25
2368.13559478499	5746.5
2370.34370500083	5774.5
2372.55117958727	5717.25
2374.75801883352	5722
2376.96422302874	5730.25
2379.16979246202	5722.75
2381.37472742243	5734
2383.57902819898	5713.25
2385.78269508063	5722.25
2387.98572835629	5713.75
2390.18812831482	5696.75
2392.38989524505	5683.5
2394.59102943573	5680.75
2396.79153117559	5725
2398.9914007533	5669
2401.19063845748	5662
2403.38924457672	5667
2405.58721939951	5667.25
2407.78456321435	5692.5
2409.98127630966	5657
2412.17735897382	5696.25
2414.37281149517	5664.25
2416.56763416198	5673.5
2418.76182726249	5704
2420.95539108487	5609.75
2423.14832591726	5655
2425.34063204776	5645.5
2427.53230976439	5601.5
2429.72335935513	5645.25
2431.91378110795	5618.5
2434.10357531071	5652.25
2436.29274225125	5645.5
2438.48128221739	5597.5
2440.66919549683	5625.25
2442.8564823773	5627.75
2445.04314314641	5617.25
2447.22917809176	5589.5
2449.4145875009	5646.5
2451.59937166131	5631.5
2453.78353086044	5598.25
2455.96706538568	5581.75
2458.14997552436	5598.5
2460.33226156379	5598.75
2462.51392379119	5643.5
2464.69496249376	5537.25
2466.87537795862	5585.25
2469.05517047288	5564
2471.23434032357	5548.75
2473.41288779767	5574.75
2475.59081318211	5579.75
2477.76811676378	5509
2479.9447988295	5529
2482.12085966605	5534.25
2484.29629956016	5527.75
2486.4711187985	5560.5
2488.64531766769	5530.75
2490.8188964543	5537.5
2492.99185544484	5554.75
2495.16419492579	5517.5
2497.33591518353	5537
2499.50701650444	5506.5
2501.67749917482	5518.5
2503.84736348091	5529
2506.01660970891	5499.75
2508.18523814496	5491
2510.35324907514	5531.75
2512.52064278551	5613.75
2514.68741956201	5547
2516.85357969058	5599.25
2519.01912345709	5586.25
2521.18405114735	5508
2523.34836304711	5545.75
2525.51205944208	5539.75
2527.6751406179	5559.75
2529.83760686016	5582.5
2531.99945845439	5619.5
2534.16069568606	5545.5
2536.3213188406	5644.25
2538.48132820336	5557.5
2540.64072405965	5623
2542.79950669471	5574.5
2544.95767639373	5648.75
2547.11523344184	5589.75
2549.27217812411	5596.75
2551.42851072555	5582
2553.58423153111	5564.25
2555.73934082569	5547.5
2557.89383889412	5568.75
2560.04772602118	5556.5
2562.20100249158	5528
2564.35366858996	5549.25
2566.50572460093	5546.5
2568.65717080901	5553.5
2570.80800749867	5553.75
2572.95823495433	5569.75
2575.10785346031	5517.75
2577.25686330093	5496
2579.40526476038	5470.5
2581.55305812282	5503.75
2583.70024367237	5493.75
2585.84682169303	5464.25
2587.99279246879	5467.75
2590.13815628354	5465.75
2592.28291342112	5490.75
2594.42706416531	5472
2596.5706087998	5421
2598.71354760826	5548.5
2600.85588087425	5464.5
2602.99760888127	5450
2605.13873191278	5448.5
2607.27925025214	5428.75
2609.41916418269	5421.5
2611.55847398764	5430.75
2613.69717995017	5483
2615.83528235339	5503.75
2617.97278148034	5480.75
2620.10967761398	5487.25
2622.2459710372	5474.75
2624.38166203284	5490.25
2626.51675088365	5515.5
2628.65123787231	5449.25
2630.78512328145	5502
2632.9184073936	5475.5
2635.05109049124	5476.75
2637.18317285676	5492.25
2639.31465477248	5517.25
2641.44553652067	5520.75
2643.5758183835	5521.5
2645.70550064309	5538.25
2647.83458358144	5531.5
2649.96306748053	5567
2652.09095262223	5599.25
2654.21823928836	5588
2656.34492776063	5543
2658.47101832071	5487.25
2660.59651125015	5555
2662.72140683047	5580.75
2664.84570534309	5517.25
2666.96940706934	5546
2669.0925122905	5511.25
2671.21502128773	5579.75
2673.33693434215	5569.25
2675.45825173479	5563.75
2677.57897374658	5513.25
2679.69910065839	5552.75
2681.818632751	5549.25
2683.93757030511	5562
2686.05591360133	5588.75
2688.17366292021	5540.5
2690.29081854218	5557
2692.40738074762	5504
2694.52334981681	5584.5
2696.63872602995	5530.75
2698.75350966713	5564
2700.86770100841	5562
2702.98130033371	5540
2705.09430792289	5548.75
2707.20672405571	5590.75
2709.31854901185	5631.75
2711.42978307091	5594
2713.54042651238	5648
2715.65047961567	5693
2717.7599426601	5638.5
2719.86881592491	5686
2721.97709968924	5712
2724.08479423213	5645.25
2726.19189983255	5660.25
2728.29841676934	5656.5
2730.4043453213	5676
2732.5096857671	5654
2734.61443838532	5704.5
2736.71860345444	5601
2738.82218125286	5637
2740.92517205889	5634.25
2743.02757615072	5670.25
2745.12939380646	5591.5
2747.23062530411	5634
2749.33127092159	5672.75
2751.4313309367	5633.5
2753.53080562716	5640.25
2755.62969527058	5682.75
2757.72800014448	5620.75
2759.82572052625	5576.5
2761.92285669323	5611.5
2764.0194089226	5635.5
2766.11537749147	5630.5
2768.21076267686	5626.25
2770.30556475566	5573
2772.39978400465	5647
2774.49342070054	5643.75
2776.58647511991	5609.5
2778.67894753923	5623
2780.77083823487	5701.5
2782.8621474831	5574
2784.95287556007	5603.25
2787.04302274184	5623
2789.13258930433	5646
2791.22157552338	5668.75
2793.30998167471	5624
2795.39780803392	5662.5
2797.4850548765	5694.5
2799.57172247786	5648.25
2801.65781111324	5656.25
2803.74332105781	5639.75
2805.82825258661	5646
2807.91260597457	5661
2809.9963814965	5642.25
2812.07957942711	5715.75
2814.16220004096	5644
2816.24424361252	5679.5
2818.32571041614	5716
2820.40660072604	5712.75
2822.48691481631	5785
2824.56665296098	5734.25
2826.64581543388	5811.25
2828.72440250876	5933.75
2830.80241445925	5977.5
2832.87985155885	6151.5
2834.95671408093	6337.75
2837.03300229875	6533.25
2839.10871648544	6601.75
2841.18385691399	6664.5
2843.25842385729	6523.5
2845.33241758808	6390.5
2847.40583837898	6373.25
2849.4786865025	6311.75
2851.550962231	6228.25
2853.6226658367	6294.75
2855.69379759173	6259.5
2857.76435776806	6328.25
2859.83434663753	6506.25
2861.90376447184	6700.25
2863.97261154259	7013.5
2866.0408881212	7161.5
2868.10859447901	7124.25
2870.17573088717	7118.25
2872.24229761673	7090.75
2874.30829493859	7148.5
2876.37372312352	7358.75
2878.43858244215	7619
2880.50287316496	7801.75
2882.56659556231	7810.5
2884.62974990439	7842.25
2886.69233646129	7656.75
2888.75435550293	7529
2890.81580729909	7365
2892.87669211941	7223
2894.93701023339	7230.25
2896.99676191039	7179.75
2899.05594741961	7291
2901.1145670301	7292.5
2903.1726210108	7426.75
2905.23010963045	7547
2907.28703315768	7336.25
2909.34339186096	7197.75
2911.39918600861	7100.25
2913.45441586879	6968.75
2915.50908170952	6882.75
2917.56318379867	6919.5
2919.61672240395	6998.5
2921.66969779291	7032.5
2923.72211023295	7055.25
2925.77395999134	7058
2927.82524733515	6971.25
2929.87597253132	6878.25
2931.92613584663	6755.25
2933.97573754769	6549.75
2936.02477790097	6393.75
2938.07325717276	6374
2940.1211756292	6375
2942.16853353626	6384.25
2944.21533115976	6496.25
2946.26156876536	6602.5
2948.30724661853	6744.75
2950.3523649846	6945.25
2952.39692412872	6957.5
2954.44092431587	6843.75
2956.48436581089	6773.5
2958.52724887843	6771
2960.56957378296	6859
2962.6113407888	6778.75
2964.65255016011	6670.25
2966.69320216083	6595.75
2968.73329705479	6417.5
2970.77283510559	6353.25
2972.81181657671	6246.5
2974.8502417314	6185.75
2976.88811083279	6154.75
2978.92542414378	6120.75
2980.96218192713	6072.5
2982.99838444541	6081.25
2985.034031961	6060.5
2987.06912473612	6065.25
2989.1036630328	6044
2991.13764711288	6023
2993.17107723804	6015.5
2995.20395366974	6032
2997.23627666931	6070.5
2999.26804649782	6006.5
3001.29926341624	6117
3003.32992768528	6097.25
3005.3600395655	6051.75
3007.38959931726	6104.75
3009.41860720076	6074
3011.44706347595	6103
3013.47496840263	6112
3015.50232224041	6122.25
3017.5291252487	6184.75
3019.5553776867	6095.25
3021.58107981344	6130.75
3023.60623188773	6207
3025.63083416822	6168.25
3027.65488691331	6188.25
3029.67839038125	6203.75
3031.70134483007	6197.5
3033.72375051759	6245.5
3035.74560770144	6247.25
3037.76691663907	6216.75
3039.78767758768	6224.25
3041.80789080431	6191.75
3043.82755654577	6204.25
3045.84667506867	6215.25
3047.8652466294	6254
3049.88327148418	6273.25
3051.90074988899	6225.25
3053.91768209961	6233.25
3055.9340683716	6233.25
3057.94990896033	6217
3059.96520412095	6332
3061.97995410838	6319.25
3063.99415917734	6253.5
3066.00781958234	6203.5
3068.02093557766	6264.75
3070.03350741738	6153.25
3072.04553535535	6271.25
3074.05701964521	6238.5
3076.06796054036	6225.5
3078.078358294	6207.25
3080.08821315912	6244
3082.09752538846	6300.75
3084.10629523454	6181.25
3086.11452294967	6193.25
3088.12220878592	6216
3090.12935299515	6262
3092.13595582898	6246.25
3094.1420175388	6235.5
3096.14753837579	6259.75
3098.15251859088	6275.25
3100.15695843477	6263.25
3102.16085815793	6280.5
3104.16421801061	6238
3106.16703824282	6230.75
3108.16931910432	6283.5
3110.17106084464	6251.25
3112.17226371308	6307
3114.17292795872	6297
3116.17305383034	6311
3118.17264157657	6326.25
3120.17169144571	6316.75
3122.17020368587	6315.5
3124.16817854492	6325.25
3126.16561627044	6343.75
3128.16251710982	6420.5
3130.15888131017	6398
3132.15470911837	6383.5
3134.15000078104	6370
3136.14475654455	6416.25
3138.13897665502	6425
3140.13266135835	6478
3142.12581090014	6424.25
3144.11842552577	6426.5
3146.11050548036	6473.25
3148.10205100875	6439
3150.09306235557	6500.5
3152.08353976515	6463.75
3154.07348348158	6338
3156.06289374869	6448
3158.05177081006	6460.75
3160.04011490899	6430
3162.02792628852	6462.75
3164.01520519145	6462.75
3166.00195186029	6476.25
3167.98816653728	6464
3169.97384946442	6498.75
3171.95900088344	6434
3173.94362103577	6487.75
3175.92771016259	6511.5
3177.91126850484	6526
3179.89429630312	6524.75
3181.87679379782	6454.25
3183.85876122903	6514.75
3185.84019883657	6563.25
3187.82110685997	6499
3189.80148553851	6501.75
3191.78133511116	6579.25
3193.76065581664	6550
3195.73944789337	6569.5
3197.7177115795	6543.25
3199.6954471129	6603
3201.67265473114	6581.75
3203.64933467153	6561
3205.62548717107	6524
3207.60111246648	6635.25
3209.57621079421	6575.25
3211.55078239041	6601.75
3213.52482749093	6562
3215.49834633133	6602.25
3217.4713391469	6631
3219.44380617262	6625
3221.41574764317	6617.75
3223.38716379296	6598.25
3225.35805485607	6692
3227.32842106631	6633.25
3229.29826265718	6650
3231.26757986187	6713.25
3233.2363729133	6748.75
3235.20464204405	6710
3237.17238748643	6728.25
3239.13960947243	6710.25
3241.10630823374	6756.25
3243.07248400174	6765.5
3245.03813700748	6849
3247.00326748177	6755
3248.96787565503	6813.25
3250.93196175742	6763.25
3252.89552601877	6803.5
3254.8585686686	6801.25
3256.82108993612	6814
3258.78309005022	6846.75
3260.74456923948	6820.25
3262.70552773215	6841.75
3264.66596575617	6851.5
3266.62588353916	6805.75
3268.58528130843	6784.25
3270.54415929094	6802
3272.50251771336	6833
3274.46035680201	6817
3276.4176767829	6870.5
3278.37447788171	6845.25
3280.33076032379	6891
3282.28652433416	6899.25
3284.24177013751	6892.25
3286.1964979582	6938.25
3288.15070802027	6915.75
3290.10440054741	6858.5
3292.05757576298	6858.75
3294.01023389001	6916.75
3295.96237515119	6857.5
3297.91399976887	6919.75
3299.86510796506	6910
3301.81569996142	6922.25
3303.76577597932	6920
3305.7153362397	6930.25
3307.66438096324	6886
3309.61291037024	6883.5
3311.56092468064	6893.5
3313.50842411404	6898.25
3315.45540888971	6933.5
3317.40187922656	6857.25
3319.34783534315	6902.5
3321.29327745768	6939
3323.23820578801	6809.75
3325.18262055164	6898.75
3327.1265219657	6842.5
3329.06991024699	6925.5
3331.01278561194	6884.5
3332.95514827662	6895.75
3334.89699845674	6905.5
3336.83833636766	6903.25
3338.77916222434	6820.75
3340.71947624143	6925.25
3342.65927863317	6919.75
3344.59856961346	6894
3346.53734939584	6900.25
3348.47561819344	6946.75
3350.41337621906	6954.75
3352.35062368513	6940.75
3354.28736080368	6927.25
3356.22358778637	6923
3358.15930484452	6939.5
3360.09451218904	6927
3362.02921003047	6971.5
3363.96339857898	6982
3365.89707804436	6910
3367.83024863602	6950.25
3369.76291056299	6989.25
3371.69506403389	6922.75
3373.62670925699	6939.5
3375.55784644016	6990.25
3377.4884757909	6961.75
3379.41859751629	7028
3381.34821182305	7006.75
3383.27731891749	7046.75
3385.20591900555	7037.25
3387.13401229276	7062.75
3389.06159898426	7064.25
3390.9886792848	7110.5
3392.91525339872	7080.75
3394.84132152998	7080.25
3396.76688388213	7093.5
3398.69194065833	7102.5
3400.61649206133	7081
3402.54053829348	7067.5
3404.46407955672	7021
3406.3871160526	7060.25
3408.30964798225	7083.25
3410.23167554639	7055.25
3412.15319894535	7153.5
3414.07421837904	7150.25
3415.99473404695	7139
3417.91474614817	7151.25
3419.83425488136	7158
3421.75326044479	7197
3423.67176303631	7170.75
3425.58976285332	7159.75
3427.50726009282	7176.5
3429.42425495143	7091.75
3431.34074762528	7115.5
3433.25673831012	7076
3435.17222720127	7164
3437.08721449362	7120.25
3439.00170038164	7077.5
3440.91568505936	7131.75
3442.82916872039	7076.25
3444.74215155791	7144.75
3446.65463376468	7113.25
3448.566615533	7108.5
3450.47809705476	7144.25
3452.3890785214	7076
3454.29956012393	7127.75
3456.20954205293	7095.25
3458.11902449853	7134.75
3460.02800765041	7075
3461.93649169784	7101.75
3463.84447682962	7082.75
3465.75196323412	7069.25
3467.65895109925	7059.25
3469.56544061249	7098
3471.47143196086	7032
3473.37692533093	7017.75
3475.28192090884	7075.5
3477.18641888026	7122
3479.09041943039	7027.5
3480.99392274402	7144.25
3482.89692900545	7102.5
3484.79943839853	7067.75
3486.70145110666	7089.5
3488.60296731277	7085.5
3490.50398719933	7033
3492.40451094836	6996.75
3494.30453874141	7074
3496.20407075956	7074
3498.10310718342	7112.5
3500.00164819315	7017