200.090469251518	910.25
202.974751419362	915.25
205.858021632263	926
208.740280737522	911.5
211.621529580443	922.75
214.501769004371	915.5
217.380999850626	912
220.25922295859	913.75
223.136439165646	925.25
226.012649307235	924
228.88785421682	932
231.762054725918	939
234.635251664113	919
237.507445859021	914.25
240.378638136346	921.25
243.248829319855	930.25
246.11802023137	933.5
248.986211690826	930.5
251.853404516227	929
254.719599523654	930
257.584797527335	940.75
260.44899933954	927.5
263.312205770682	951.25
266.174417629303	938.25
269.035635722015	940.5
271.895860853609	936.75
274.755093826978	946.25
277.613335443144	946.25
280.470586501309	944
283.326847798766	947.75
286.182120131019	955
289.036404291684	949
291.889701072574	952.75
294.742011263643	952.25
297.593335653048	963
300.443675027094	951.5
303.293030170295	959.25
306.141401865367	961.75
308.988790893174	954
311.835198032837	949.5
314.680624061635	957.75
317.525069755113	953.5
320.36853588697	958.75
323.211023229178	959
326.052532551923	953.75
328.893064623604	964.75
331.732620210885	956.25
334.57120007867	960
337.408804990093	961.75
340.245435706565	952.5
343.081092987733	960
345.915777591523	962.5
348.749490274145	971.5
351.582231790049	959
354.414002891997	971
357.244804331021	975.5
360.074636856443	976.25
362.903501215886	981
365.731398155265	974.5
368.558328418814	981.5
371.384292749062	974.5
374.209291886869	973.25
377.033326571407	971
379.85639754017	980
382.678505529009	994.5
385.499651272065	977.75
388.319835501872	987.75
391.139058949258	985.25
393.957322343453	973.75
396.774626412011	972.75
399.590971880847	992
402.406359474258	979.25
405.220789914893	1002.75
408.034263923801	971.5
410.8467822204	978
413.658345522483	984.25
416.468954546242	994
419.278610006277	998
422.087312615557	994
424.895063085503	999.75
427.701862125901	989.25
430.507710444981	1003.75
433.312608749366	1000.75
436.116557744146	992.75
438.919558132791	1003.5
441.721610617238	1007
444.522715897856	1001
447.322874673457	1016.5
450.122087641299	1008.5
452.920355497092	1006.25
455.717678935009	997
458.514058647681	1005
461.309495326219	998.25
464.103989660191	1004.75
466.89754233765	1000.25
469.690154045114	1008.75
472.481825467625	1009.25
475.272557288674	997.25
478.062350190281	995
480.851204852952	1002.25
483.639121955683	1012
486.426102176007	1018.25
489.212146189955	1001.5
491.997254672093	1007
494.781428295471	1005.5
497.564667731716	1021.25
500.346973650958	1006.25
503.128346721878	1031
505.90878761169	1000.5
508.688296986151	1012.75
511.46687550957	1026.25
514.244523844831	1010.5
517.021242653354	1012.25
519.797032595132	1018
522.571894328732	1014.25
525.345828511279	1018.25
528.11883579849	1033.75
530.890916844655	1019
533.662072302668	1028.75
536.432302823985	1016.5
539.201609058684	1027.25
541.96999165542	1019
544.737451261473	1016
547.503988522723	1006.5
550.26960408366	1032.5
553.034298587394	1017.75
555.798072675669	1033
558.560926988819	1016.5
561.322862165849	1027.75
564.083878844369	1030.25
566.843977660654	1020.75
569.603159249604	1027.75
572.361424244769	1027
575.118773278369	1048.5
577.87520698124	1029.75
580.630725982905	1034.75
583.385330911566	1034
586.139022394076	1054.75
588.891801055954	1030.75
591.643667521406	1047
594.394622413318	1032.5
597.144666353273	1029.75
599.893799961512	1036.5
602.64202385701	1044
605.389338657413	1026.25
608.135744979089	1033
610.881243437092	1049.25
613.625834645191	1040.75
616.369519215881	1042.75
619.112297760374	1040.5
621.854170888604	1034.75
624.595139209225	1027.25
627.335203329614	1035.25
630.074363855914	1039.75
632.81262139299	1042.25
635.549976544436	1036.5
638.286429912612	1033.75
641.021982098635	1046.75
643.756633702364	1036.75
646.49038532241	1032.75
649.223237556176	1033.75
651.955190999808	1039.25
654.686246248224	1039.5
657.416403895135	1038.5
660.145664533011	1047.25
662.874028753133	1043.5
665.601497145537	1032.25
668.328070299071	1037.25
671.05374880138	1041.5
673.778533238885	1039.25
676.502424196839	1044.5
679.225422259297	1060.75
681.947528009099	1040.25
684.668742027927	1037.5
687.389064896281	1033.75
690.108497193465	1046.75
692.827039497621	1049
695.544692385724	1056.25
698.261456433585	1025.5
700.977332215847	1044.75
703.692320305981	1048.5
706.406421276337	1042.75
709.11963569808	1047.75
711.831964141256	1058.5
714.54340717474	1039
717.253965366304	1049
719.963639282552	1054
722.672429488961	1061.25
725.380336549904	1040.5
728.087361028596	1071.25
730.793503487166	1044.5
733.498764486594	1047.25
736.203144586758	1055.75
738.906644346447	1055.75
741.60926432331	1049.5
744.311005073912	1063.25
747.011867153727	1057
749.711851117121	1052.75
752.410957517375	1061.5
755.109186906677	1066.5
757.806539836132	1057.5
760.503016855779	1062
763.198618514551	1062
765.893345360346	1066.75
768.587197939964	1071.25
771.28017679914	1048.75
773.972282482566	1059.5
776.663515533859	1051.25
779.353876495581	1068
782.043365909241	1059.25
784.731984315327	1055.5
787.419732253235	1067.75
790.106610261366	1051
792.792618877058	1071.75
795.477758636618	1057
798.162030075313	1074
800.845433727423	1069
803.52797012615	1062.25
806.209639803714	1065.5
808.890443291304	1061.5
811.570381119098	1070.75
814.249453816265	1084.25
816.927661910959	1069.25
819.60500593036	1061.75
822.281486400603	1063.75
824.957103846864	1080.5
827.631858793316	1077
830.305751763135	1078.5
832.978783278519	1090.5
835.650953860677	1079
838.322264029848	1076.25
840.992714305292	1076.75
843.662305205289	1095
846.331037247157	1098
848.998910947241	1100.25
851.665926820933	1091.25
854.332085382674	1102
856.997387145915	1104.5
859.661832623191	1097.5
862.325422326066	1098
864.988156765172	1098
867.650036450181	1102.25
870.311061889846	1085.5
872.971233591961	1099
875.630552063409	1096.75
878.28901781013	1101.25
880.946631337138	1092.75
883.603393148533	1097.25
886.259303747484	1096
888.914363636246	1105.25
891.568573316155	1096.5
894.22193328767	1096.75
896.874444050281	1105
899.526106102625	1094.25
902.176919942416	1105
904.826886066483	1100.75
907.476004970747	1095.25
910.124277150255	1104.75
912.77170309913	1094.25
915.418283310642	1118.75
918.064018277175	1115.5
920.708908490222	1110.5
923.352954440405	1116.5
925.996156617486	1108.5
928.638515510334	1126
931.280031606966	1117.75
933.920705394521	1121.75
936.560537359303	1107.75
939.199527986737	1104
941.837677761392	1114.25
944.474987167006	1123.5
947.111456686438	1123
949.747086801734	1114.75
952.38187799407	1106.75
955.015830743792	1105
957.648945530418	1119.5
960.281222832633	1134.5
962.91266312826	1129
965.543266894336	1116.75
968.173034607058	1126.5
970.801966741779	1126
973.43006377307	1126.25
976.057326174661	1138
978.683754419471	1128.75
981.309348979623	1122.5
983.93411032642	1120.25
986.558038930361	1120
989.181135261144	1124.25
991.803399787692	1121
994.424832978086	1126
997.045435299653	1126
999.665207218906	1137.25
1002.2841492016	1141
1004.90226171266	1150.75
1007.51954521628	1146.5
1010.13600017584	1145.75
1012.75162705397	1151.25
1015.3664263125	1151
1017.9803984125	1155.5
1020.5935438143	1154
1023.20586297741	1158.5
1025.81735636063	1149.25
1028.42802442196	1175.25
1031.03786761869	1170.75
1033.64688640732	1163
1036.2550812436	1155
1038.86245258255	1186.75
1041.46900087844	1185
1044.07472658479	1164
1046.67963015438	1191.25
1049.28371203927	1211.75
1051.88697269075	1232.5
1054.48941255943	1260.75
1057.09103209513	1348.75
1059.691831747	1428.5
1062.29181196343	1430.75
1064.89097319211	1364.5
1067.48931587999	1289.25
1070.08684047333	1250.25
1072.68354741766	1224.25
1075.27943715779	1224.25
1077.87451013787	1217.25
1080.46876680127	1234.5
1083.06220759071	1235.5
1085.65483294822	1230.25
1088.24664331509	1219.25
1090.83763913194	1219.75
1093.42782083869	1215.25
1096.01718887459	1218.75
1098.60574367818	1221
1101.19348568732	1211
1103.78041533919	1221
1106.3665330703	1218
1108.95183931646	1231.25
1111.53633451284	1224
1114.12001909391	1262
1116.70289349349	1283.5
1119.2849581447	1318.5
1121.86621348005	1409.5
1124.44665993134	1522
1127.02629792973	1669.25
1129.60512790574	1656.5
1132.18315028919	1526.5
1134.76036550929	1377.5
1137.3367739946	1301.75
1139.912376173	1295.25
1142.48717247176	1267.75
1145.06116331748	1248
1147.63434913616	1281.75
1150.20673035312	1254
1152.77830739307	1269.5
1155.34908068007	1259.75
1157.91905063757	1257
1160.48821768838	1253.25
1163.05658225471	1270
1165.6241447581	1266.25
1168.19090561951	1279.75
1170.75686525927	1280
1173.32202409708	1276.5
1175.88638255206	1257.75
1178.44994104269	1259
1181.01269998684	1269.25
1183.57465980182	1271.75
1186.13582090427	1262
1188.69618371026	1261.5
1191.25574863529	1250.25
1193.8145160942	1272.25
1196.37248650129	1272.25
1198.92966027025	1274
1201.48603781416	1258
1204.04161954556	1275
1206.59640587635	1282
1209.15039721788	1285.75
1211.70359398092	1286.25
1214.25599657564	1296.5
1216.80760541166	1296.5
1219.35842089801	1297.5
1221.90844344314	1310
1224.45767345496	1313.25
1227.00611134077	1314.75
1229.55375750736	1327.25
1232.10061236092	1328.5
1234.64667630707	1337.25
1237.1919497509	1325.5
1239.73643309692	1331
1242.28012674912	1334.5
1244.82303111089	1344.25
1247.36514658511	1355
1249.9064735741	1355
1252.44701247964	1374
1254.98676370294	1371.5
1257.52572764469	1368.5
1260.06390470506	1389.5
1262.60129528365	1397
1265.13789977954	1396
1267.67371859128	1403.25
1270.20875211688	1428
1272.74300075384	1424
1275.2764648991	1427.5
1277.80914494911	1432.25
1280.34104129978	1441.75
1282.87215434652	1464.5
1285.40248448419	1494.5
1287.93203210715	1575.25
1290.46079760927	1713.5
1292.98878138385	1854
1295.51598382375	1866.5
1298.04240532127	1716.75
1300.56804626822	1606.5
1303.09290705593	1571.25
1305.6169880752	1533.75
1308.14028971632	1549.25
1310.66281236913	1532.5
1313.18455642292	1528.5
1315.70552226653	1537.25
1318.22571028829	1531.5
1320.74512087603	1527.25
1323.26375441711	1538
1325.7816112984	1558.75
1328.29869190629	1568
1330.81499662666	1573.5
1333.33052584497	1575.75
1335.84527994613	1597.25
1338.35925931464	1622.5
1340.87246433446	1619
1343.38489538916	1638.25
1345.89655286177	1637.25
1348.40743713487	1646
1350.91754859059	1678.25
1353.42688761059	1658.25
1355.93545457606	1682.25
1358.44324986772	1693.25
1360.95027386588	1723.5
1363.45652695032	1704.75
1365.96200950042	1763.75
1368.4667218951	1765.75
1370.97066451281	1772.5
1373.47383773156	1775.5
1375.97624192891	1789
1378.47787748199	1766
1380.97874476746	1801.5
1383.47884416157	1785.5
1385.97817604009	1808.5
1388.4767407784	1802
1390.9745387514	1844.5
1393.47157033358	1827
1395.96783589898	1868.75
1398.46333582124	1851
1400.95807047354	1875.75
1403.45204022864	1881.75
1405.94524545889	1916
1408.4376865362	1965.25
1410.92936383205	2034.5
1413.42027771752	2137.25
1415.91042856328	2192.5
1418.39981673955	2152
1420.88844261615	2123.5
1423.37630656249	2093.5
1425.86340894757	2103.5
1428.34975013999	2165.25
1430.83533050792	2221.5
1433.32015041912	2254.75
1435.80421024098	2324
1438.28751034045	2375.25
1440.77005108411	2363
1443.25183283812	2402
1445.73285596824	2407.5
1448.21312083984	2396.25
1450.69262781791	2414.25
1453.17137726702	2452
1455.64936955137	2477.75
1458.12660503477	2484.25
1460.60308408063	2537
1463.07880705197	2519.25
1465.55377431145	2547.5
1468.02798622133	2537.5
1470.50144314348	2564
1472.97414543941	2529.25
1475.44609347024	2591.5
1477.91728759673	2599.5
1480.38772817924	2657.75
1482.85741557777	2670.75
1485.32635015194	2611.5
1487.79453226103	2670
1490.26196226391	2668.5
1492.72864051911	2722.75
1495.1945673848	2770.5
1497.65974321874	2780.25
1500.1241683784	2807.25
1502.58784322083	2831
1505.05076810274	2852
1507.51294338049	2886.75
1509.97436941009	2903.75
1512.43504654717	2967.25
1514.89497514704	2959
1517.35415556462	3010.5
1519.81258815451	3026
1522.27027327095	3076.5
1524.72721126784	3099.25
1527.18340249874	3138.5
1529.63884731684	3183
1532.09354607502	3218.75
1534.5474991258	3255
1537.00070682136	3306.75
1539.45316951355	3310.5
1541.90488755388	3366
1544.35586129353	3399.5
1546.80609108336	3481.75
1549.25557727385	3482.25
1551.70432021519	3552.5
1554.15232025725	3561.5
1556.59957774953	3629.75
1559.04609304125	3729.5
1561.49186648127	3722.5
1563.93689841815	3751.25
1566.38118920011	3797.75
1568.82473917506	3826.75
1571.2675486906	3897.75
1573.70961809399	3911
1576.15094773219	3929.5
1578.59153795184	3987
1581.03138909928	4033.25
1583.47050152051	4054.75
1585.90887556123	4072.5
1588.34651156686	4127
1590.78340988246	4216.75
1593.21957085283	4213
1595.65499482245	4285.5
1598.08968213547	4309.5
1600.52363313578	4255.75
1602.95684816694	4372
1605.38932757224	4389.25
1607.82107169462	4405.25
1610.25208087677	4418
1612.68235546107	4454.25
1615.1118957896	4443.75
1617.54070220415	4491.25
1619.96877504621	4517.25
1622.39611465701	4543.75
1624.82272137746	4554.75
1627.24859554818	4602
1629.67373750953	4610.75
1632.09814760155	4670.25
1634.52182616404	4660
1636.94477353647	4703
1639.36699005806	4725.5
1641.78847606776	4786.25
1644.20923190418	4814
1646.62925790573	4818.5
1649.04855441048	4869.5
1651.46712175628	4902.75
1653.88496028066	4925.5
1656.3020703209	4992.75
1658.71845221401	4971
1661.13410629671	5051.25
1663.54903290547	5111
1665.96323237649	5160.75
1668.37670504571	5174
1670.78945124877	5157.75
1673.20147132109	5177.5
1675.61276559779	5286
1678.02333441377	5298.25
1680.43317810362	5310.75
1682.84229700171	5402.25
1685.25069144213	5368.5
1687.65836175872	5412.5
1690.06530828507	5423.75
1692.47153135451	5459
1694.87703130009	5457.5
1697.28180845467	5561.5
1699.6858631508	5539.75
1702.08919572081	5539.5
1704.49180649676	5590.75
1706.89369581049	5588
1709.29486399355	5596
1711.69531137731	5619.5
1714.09503829282	5609.5
1716.49404507095	5645.75
1718.89233204229	5670
1721.28989953721	5675
1723.68674788581	5628.5
1726.08287741798	5719.5
1728.47828846338	5735.75
1730.87298135139	5689.75
1733.26695641119	5736.5
1735.66021397173	5758
1738.05275436169	5707.5
1740.44457790954	5767.25
1742.83568494354	5761.5
1745.22607579168	5848
1747.61575078175	5779.5
1750.00471024128	5858.5
1752.39295449761	5837.5
1754.78048387783	5827.5
1757.16729870881	5847
1759.5533993172	5954.5
1761.93878602942	5911.75
1764.32345917168	5914
1766.70741906995	5976
1769.09066604999	5995
1771.47320043735	6024.5
1773.85502255735	6029.25
1776.2361327351	6059.5
1778.61653129548	6106.25
1780.99621856318	6155
1783.37519486264	6147.75
1785.75346051813	6228.5
1788.13101585368	6178.5
1790.5078611931	6184.25
1792.88399686002	6228.25
1795.25942317785	6209.25
1797.63414046977	6271.5
1800.00814905878	6294.5
1802.38144926766	6328
1804.75404141898	6342.5
1807.12592583514	6303.75
1809.49710283829	6431.25
1811.86757275039	6362.75
1814.23733589322	6447.5
1816.60639258834	6412.25
1818.97474315712	6417.75
1821.34238792073	6468.5
1823.70932720012	6418.75
1826.07556131608	6435
1828.44109058918	6478.5
1830.8059153398	6471.25
1833.17003588812	6454.25
1835.53345255413	6486.25
1837.89616565765	6532
1840.25817551827	6510.75
1842.61948245541	6597.25
1844.9800867883	6557.5
1847.33998883598	6620.5
1849.69918891729	6623.75
1852.05768735091	6707.75
1854.4154844553	6614
1856.77258054875	6694
1859.12897594938	6649.25
1861.4846709751	6687.5
1863.83966594366	6698.25
1866.19396117261	6737.25
1868.54755697932	6725
1870.90045368099	6755.5
1873.25265159463	6760.5
1875.60415103708	6852.5
1877.95495232501	6824.25
1880.30505577486	6831.75
1882.65446170299	6911.5
1885.00317042548	7001.25
1887.35118225832	6913.75
1889.69849751726	6985.5
1892.04511651792	6969.25
1894.39103957574	7042
1896.73626700596	7047.5
1899.08079912368	7080.75
1901.42463624384	7132
1903.76777868116	7071.75
1906.11022675025	7163.25
1908.4519807655	7098
1910.79304104117	7174.25
1913.13340789134	7191
1915.47308162992	7143.5
1917.81206257067	7216.5
1920.15035102718	7234.5
1922.48794731286	7208
1924.82485174096	7280
1927.16106462461	7288.75
1929.49658627672	7245.75
1931.83141701008	7291.75
1934.1655571373	7252
1936.49900697085	7249.5
1938.83176682301	7279.5
1941.16383700594	7264.25
1943.49521783161	7225
1945.82590961186	7282.5
1948.15591265835	7222
1950.48522728262	7294.5
1952.81385379602	7266
1955.14179250976	7251.75
1957.46904373489	7250
1959.79560778233	7177.5
1962.12148496284	7211.5
1964.44667558701	7249.25
1966.77117996529	7243.5
1969.09499840799	7249
1971.41813122527	7292.75
1973.74057872714	7270.5
1976.06234122345	7342.25
1978.38341902391	7259.5
1980.7038124381	7262.25
1983.02352177543	7333.75
1985.34254734518	7308.5
1987.66088945649	7386
1989.97854841833	7397
1992.29552453956	7347.75
1994.61181812887	7292.5
1996.92742949483	7388.25
1999.24235894586	7411.25
2001.55660679023	7477.25
2003.87017333608	7419.25
2006.18305889143	7455.75
2008.49526376413	7530
2010.80678826189	7477
2013.1176326923	7468
2015.42779736282	7496.5
2017.73728258075	7523.5
2020.04608865326	7533.25
2022.3542158874	7507.25
2024.66166459008	7634.5
2026.96843506807	7647.5
2029.274527628	7619.25
2031.57994257637	7688
2033.88468021957	7647
2036.18874086383	7660.5
2038.49212481526	7609
2040.79483237983	7655.25
2043.0968638634	7650.5
2045.39821957169	7685.25
2047.69889981028	7674.25
2049.99890488462	7680.5
2052.29823510006	7731.25
2054.59689076181	7646.75
2056.89487217492	7681.25
2059.19217964437	7652.75
2061.48881347497	7732
2063.7847739714	7707.5
2066.08006143826	7744.5
2068.37467618	7646.75
2070.66861850093	7711.5
2072.96188870527	7675.25
2075.25448709707	7700.5
2077.54641398031	7696
2079.83766965881	7759.25
2082.12825443629	7769
2084.41816861634	7679.25
2086.70741250242	7685.75
2088.99598639789	7698.75
2091.28389060597	7692
2093.57112542978	7680.5
2095.85769117232	7700.25
2098.14358813644	7713.75
2100.42881662491	7688.75
2102.71337694037	7749.5
2104.99726938532	7695
2107.28049426219	7645.75
2109.56305187325	7768.75
2111.84494252069	7798
2114.12616650655	7789.5
2116.40672413278	7771.25
2118.68661570121	7756.75
2120.96584151355	7852.25
2123.24440187138	7849.5
2125.52229707622	7843.5
2127.79952742943	7782.25
2130.07609323227	7834.5
2132.35199478588	7858.5
2134.62723239132	7852.75
2136.90180634949	7913
2139.17571696123	7900
2141.44896452723	7862
2143.72154934809	7921
2145.99347172429	7939
2148.26473195623	7901.25
2150.53533034415	7981.5
2152.80526718821	7956
2155.07454278848	7984.75
2157.3431574449	7930.75
2159.61111145728	8003.75
2161.87840512538	7956.75
2164.1450387488	7957
2166.41101262707	7958
2168.67632705959	7982.5
2170.94098234567	7943.75
2173.20497878451	7914.25
2175.46831667519	7969.25
2177.73099631672	7917.25
2179.99301800797	7961.5
2182.25438204772	7943.25
2184.51508873466	7887.5
2186.77513836735	7897.5
2189.03453124427	7898
2191.29326766378	7830
2193.55134792416	7890
2195.80877232355	7873.75
2198.06554116004	7864.25
2200.32165473157	7891.5
2202.577113336	7779
2204.83191727111	7843.25
2207.08606683453	7829.25
2209.33956232384	7832.5
2211.59240403648	7779.25
2213.84459226982	7773.5
2216.09612732112	7781
2218.34700948753	7706.25
2220.59723906612	7706.75
2222.84681635385	7704
2225.09574164758	7700.25
2227.34401524408	7690.5
2229.59163744002	7670.25
2231.83860853197	7629.5
2234.08492881639	7652
2236.33059858968	7619.5
2238.5756181481	7702.75
2240.81998778784	7663.25
2243.06370780499	7577
2245.30677849555	7599.25
2247.54920015539	7644.25
2249.79097308033	7552.25
2252.03209756607	7616.75
2254.27257390822	7532.25
2256.51240240228	7537.25
2258.75158334369	7499.25
2260.99011702777	7485.25
2263.22800374976	7451.5
2265.46524380477	7413.25
2267.70183748786	7421
2269.93778509399	7467.25
2272.17308691801	7387.5
2274.40774325467	7449
2276.64175439866	7432.75
2278.87512064454	7405
2281.10784228682	7360
2283.33991961987	7409.25
2285.571352938	7314
2287.80214253541	7302.5
2290.03228870623	7269.25
2292.26179174449	7291.75
2294.4906519441	7221.5
2296.71886959892	7268.25
2298.9464450027	7192
2301.1733784491	7216.5
2303.39967023169	7143
2305.62532064395	7145.5
2307.85032997926	7115
2310.07469853093	7139.75
2312.29842659216	7058.5
2314.52151445608	7142.25
2316.7439624157	7068
2318.96577076397	7088.75
2321.18693979374	7049.25
2323.40746979777	7016.25
2325.62736106873	6924
2327.8466138992	6945.5
2330.06522858166	6929
2332.28320540853	6954
2334.50054467212	6861.75
2336.71724666465	6879.5
2338.93331167827	6851.25
2341.14874000501	6853.25
2343.36353193685	6810.5
2345.57768776564	6764.25
2347.79120778319	6730.25
2350.00409228117	6746.75
2352.21634155121	6742.25
2354.42795588482	6707.5
2356.63893557342	6713.25
2358.84928090838	6644.5
2361.05899218094	6630.5
2363.26806968228	6577
2365.47651370347	6565.25
2367.68432453552	6558
2369.89150246933	6547.25
2372.09804779571	6505.25
2374.30396080541	6522.5
2376.50924178907	6529.25
2378.71389103725	6455.5
2380.91790884042	6452.75
2383.12129548897	6363.75
2385.3240512732	6371
2387.52617648332	6364.75
2389.72767140946	6310.75
2391.92853634165	6316.75
2394.12877156985	6356.5
2396.32837738392	6371.25
2398.52735407365	6328.25
2400.72570192873	6247
2402.92342123875	6245.5
2405.12051229325	6211.5
2407.31697538167	6155
2409.51281079333	6199.5
2411.70801881751	6219.5
2413.90259974339	6139.75
2416.09655386004	6157.25
2418.28988145648	6074.5
2420.48258282162	6028.25
2422.6746582443	6065
2424.86610801325	6120.25
2427.05693241713	6016
2429.24713174452	6049
2431.43670628389	6015.5
2433.62565632365	6063.25
2435.81398215212	5939.25
2438.00168405752	5970.75
2440.18876232799	5939.75
2442.37521725158	5896.25
2444.56104911628	5885.5
2446.74625820994	5832
2448.93084482038	5860
2451.1148092353	5884.5
2453.29815174233	5771.5
2455.480872629	5806.5
2457.66297218275	5806.25
2459.84445069097	5760
2462.02530844092	5715.5
2464.2055457198	5702.5
2466.38516281471	5682.5
2468.56416001267	5651
2470.74253760061	5621.25
2472.92029586537	5585.5
2475.09743509372	5615.25
2477.27395557232	5589.25
2479.44985758777	5627
2481.62514142655	5599.25
2483.79980737508	5514.75
2485.97385571969	5554.5
2488.14728674661	5493.25
2490.32010074198	5529.25
2492.49229799188	5469
2494.66387878228	5457.5
2496.83484339905	5507.25
2499.00519212802	5500
2501.17492525488	5494
2503.34404306528	5474.75
2505.51254584473	5485.25
2507.6804338787	5441.5
2509.84770745254	5428.5
2512.01436685153	5428.5
2514.18041236085	5381
2516.34584426561	5427
2518.51066285081	5397
2520.67486840138	5390
2522.83846120214	5372.25
2525.00144153784	5368.75
2527.16380969314	5357.75
2529.32556595261	5343
2531.48671060072	5351.25
2533.64724392186	5344.75
2535.80716620033	5358.25
2537.96647772034	5282
2540.12517876602	5309.25
2542.2832696214	5273
2544.44075057041	5304.75
2546.59762189691	5214
2548.75388388466	5259.25
2550.90953681735	5205.25
2553.06458097853	5211.25
2555.21901665172	5192.25
2557.37284412031	5187.25
2559.5260636676	5160.25
2561.67867557684	5151.5
2563.83068013113	5086.75
2565.98207761351	5114.5
2568.13286830695	5064.5
2570.28305249429	5059.25
2572.43263045829	5073.75
2574.58160248163	5030
2576.72996884689	4999
2578.87772983655	4973.75
2581.02488573303	5000.75
2583.1714368186	4994
2585.31738337549	5008.5
2587.46272568582	4928.25
2589.60746403161	4938.25
2591.75159869479	4964.75
2593.89512995722	4882.25
2596.03805810061	4903.75
2598.18038340665	4932.75
2600.32210615686	4906.5
2602.46322663274	4871.5
2604.60374511563	4872.5
2606.74366188683	4879.25
2608.88297722751	4845.5
2611.02169141875	4850
2613.15980474156	4848
2615.29731747681	4836.5
2617.43422990532	4840.5
2619.57054230779	4784.25
2621.70625496483	4797.25
2623.84136815694	4795
2625.97588216456	4809.25
2628.10979726799	4773.75
2630.24311374746	4823.25
2632.3758318831	4813
2634.50795195493	4768
2636.6394742429	4811.75
2638.77039902682	4776.25
2640.90072658645	4744.75
2643.0304572014	4756.5
2645.15959115123	4775.75
2647.28812871538	4740.25
2649.41607017319	4753.75
2651.5434158039	4760.25
2653.67016588665	4721.75
2655.79632070049	4731.75
2657.92188052436	4729.5
2660.04684563711	4744
2662.17121631749	4719.5
2664.29499284413	4730.75
2666.41817549558	4684.25
2668.54076455027	4705.75
2670.66276028656	4674.5
2672.78416298267	4716.5
2674.90497291675	4654
2677.02519036682	4659.5
2679.14481561082	4692.25
2681.26384892658	4679.75
2683.38229059182	4672.5
2685.50014088417	4629.25
2687.61740008114	4666.75
2689.73406846017	4658
2691.85014629854	4695.25
2693.96563387347	4663
2696.08053146206	4666.25
2698.1948393413	4624.25
2700.3085577881	4653
2702.42168707924	4628.75
2704.53422749139	4662.75
2706.64617930112	4654.25
2708.75754278492	4706.25
2710.86831821913	4702
2712.97850588002	4708.75
2715.08810604372	4680.75
2717.19711898628	4719.5
2719.30554498363	4691.25
2721.41338431158	4647.25
2723.52063724586	4673.5
2725.62730406206	4669.75
2727.73338503569	4688.25
2729.83888044213	4637.25
2731.94379055664	4652.25
2734.04811565441	4690.5
2736.15185601048	4691.5
2738.25501189979	4658
2740.35758359718	4645.5
2742.45957137738	4617.25
2744.56097551499	4683.5
2746.6617962845	4670.75
2748.7620339603	4613.25
2750.86168881666	4616.75
2752.96076112774	4623
2755.05925116758	4653.25
2757.15715921012	4636.25
2759.25448552917	4634.25
2761.35123039843	4655.5
2763.44739409148	4651.75
2765.5429768818	4619.5
2767.63797904275	4628.75
2769.73240084756	4655.5
2771.82624256934	4663.5
2773.91950448113	4659.5
2776.01218685579	4630.25
2778.10428996609	4661.75
2780.19581408469	4647.5
2782.28675948414	4652
2784.37712643683	4687.5
2786.46691521507	4681.75
2788.55612609104	4663.75
2790.64475933678	4656.75
2792.73281522425	4672.5
2794.82029402525	4665.5
2796.90719601149	4668.25
2798.99352145453	4625.75
2801.07927062583	4661
2803.16444379672	4693.25
2805.24904123841	4737
2807.33306322197	4695.5
2809.41651001838	4713.5
2811.49938189847	4713.5
2813.58167913296	4763.75
2815.66340199243	4782.25
2817.74455074734	4788.75
2819.82512566805	4782.75
2821.90512702475	4834
2823.98455508754	4808.75
2826.06341012637	4913
2828.14169241109	4939.75
2830.2194022114	5027.5
2832.29653979686	5114.75
2834.37310543694	5324.5
2836.44909940096	5511.75
2838.5245219581	5779
2840.59937337744	6101.75
2842.67365392791	6426
2844.74736387829	6716.25
2846.82050349727	6821.25
2848.8930730534	6752.75
2850.96507281506	6648.25
2853.03650305056	6458.5
2855.10736402802	6288
2857.17765601545	6181.25
2859.24737928074	6094
2861.31653409164	6029.75
2863.38512071574	5939
2865.45313942054	5925
2867.52059047335	5979.75
2869.58747414139	5985.5
2871.65379069173	6022.25
2873.7195403913	6131
2875.78472350688	6326.25
2877.84934030515	6661.25
2879.91339105262	6972.25
2881.97687601567	6917.5
2884.03979546053	6611.25
2886.10214965332	6368.25
2888.16393886	6252
2890.22516334639	6234.75
2892.28582337816	6161
2894.34591922087	6226.5
2896.40545113992	6180.5
2898.46441940054	6234.25
2900.52282426787	6163.75
2902.58066600687	6154
2904.63794488237	6048.75
2906.69466115906	5989
2908.75081510147	5995.5
2910.806406974	5977.25
2912.8614370409	5961.75
2914.91590556626	5913.5
2916.96981281404	5882.5
2919.02315904807	5820.25
2921.07594453199	5929.25
2923.12816952932	5904.5
2925.17983430343	5936
2927.23093911753	5942
2929.28148423469	5873
2931.33146991782	5878
2933.3808964297	5804.5
2935.42976403294	5779
2937.47807299	5731.5
2939.5258235632	5687
2941.57301601469	5604.5
2943.61965060648	5547.5
2945.66572760042	5509
2947.71124725823	5571
2949.75620984143	5505.75
2951.80061561143	5485.25
2953.84446482945	5530.5
2955.88775775656	5496
2957.9304946537	5451.75
2959.97267578162	5482.25
2962.01430140095	5498
2964.05537177211	5476.5
2966.09588715541	5479.75
2968.13584781097	5582.75
2970.17525399875	5548.75
2972.21410597859	5497.25
2974.25240401011	5519.25
2976.29014835283	5553
2978.32733926604	5586.75
2980.36397700892	5588.25
2982.40006184049	5620.5
2984.43559401955	5623.75
2986.4705738048	5605
2988.50500145473	5672
2990.53887722771	5649.25
2992.57220138189	5716
2994.6049741753	5676.25
2996.63719586576	5753.25
2998.66886671097	5720.25
3000.69998696843	5807
3002.73055689549	5840.75
3004.7605767493	5838.5
3006.79004678688	5812.5
3008.81896726505	5877.25
3010.84733844048	5839
3012.87516056966	5903.5
3014.9024339089	5890
3016.92915871433	5945.25
3018.95533524196	5917.75
3020.98096374756	5956.75
3023.00604448675	5982.25
3025.030577715	5978.25
3027.05456368757	6002.25
3029.07800265956	5990.5
3031.10089488589	5981.75
3033.12324062131	6028
3035.14504012038	6097
3037.16629363749	6062.5
3039.18700142685	6075.5
3041.20716374249	6079
3043.22678083826	6054
3045.24585296782	6080
3047.26438038468	6124.25
3049.28236334212	6114.25
3051.29980209329	6179.75
3053.31669689111	6106.25
3055.33304798835	6104.5
3057.34885563757	6173.5
3059.36412009117	6168.25
3061.37884160134	6131.5
3063.39302042011	6125
3065.40665679931	6208.25
3067.41975099058	6171.5
3069.43230324538	6140.25
3071.44431381495	6124.25
3073.45578295041	6177
3075.46671090261	6218
3077.47709792227	6166.25
3079.48694425989	6189
3081.49625016578	6211.75
3083.50501589008	6240.25
3085.5132416827	6234.25
3087.5209277934	6215
3089.52807447169	6245
3091.53468196695	6256
3093.54075052832	6163.5
3095.54628040476	6204.75
3097.55127184503	6246
3099.55572509769	6169.5
3101.55964041111	6227.5
3103.56301803346	6226.5
3105.5658582127	6251.5
3107.56816119661	6318.5
3109.56992723275	6258.75
3111.57115656849	6265.5
3113.571849451	6257
3115.57200612724	6304
3117.57162684397	6331
3119.57071184775	6312
3121.56926138493	6286.25
3123.56727570166	6316.75
3125.56475504389	6351.75
3127.56169965735	6315.75
3129.55810978757	6341.5
3131.55398567987	6375.5
3133.54932757937	6424
3135.54413573099	6422
3137.53841037939	6336.5
3139.53215176909	6387.25
3141.52536014435	6420.5
3143.51803574924	6442.25
3145.51017882762	6456
3147.50178962311	6458.5
3149.49286837916	6429.75
3151.48341533897	6419
3153.47343074553	6447.5
3155.46291484164	6435
3157.45186786985	6473.75
3159.44029007252	6422
3161.42818169179	6431
3163.41554296955	6520
3165.40237414753	6488.5
3167.38867546718	6492.75
3169.37444716975	6446.5
3171.35968949631	6517.75
3173.34440268764	6461.5
3175.32858698436	6475.25
3177.31224262682	6436.25
3179.29536985517	6442.25
3181.27796890934	6482.25
3183.26004002902	6459
3185.24158345368	6497.5
3187.22259942256	6494.5
3189.2030881747	6496.25
3191.18304994886	6457.5
3193.16248498363	6518.5
3195.14139351733	6521.5
3197.11977578807	6530
3199.09763203371	6539.75
3201.07496249191	6450.25
3203.05176740007	6494.5
3205.02804699537	6509.5
3207.00380151475	6512.5
3208.97903119493	6565.25
3210.95373627238	6571.75
3212.92791698335	6604
3214.90157356383	6527.5
3216.8747062496	6557.75
3218.84731527619	6593.75
3220.81940087889	6521.75
3222.79096329275	6622.75
3224.76200275259	6559
3226.73251949298	6687.75
3228.70251374825	6606.25
3230.67198575251	6574.25
3232.64093573959	6641
3234.6093639431	6682.5
3236.57727059641	6640
3238.54465593261	6709
3240.51152018461	6664.75
3242.47786358502	6679
3244.44368636621	6696.75
3246.40898876031	6685
3248.37377099923	6716.25
3250.33803331458	6733
3252.30177593775	6730.25
3254.26499909987	6713
3256.22770303184	6759.5
3258.18988796427	6706.25
3260.15155412755	6703.75
3262.1127017518	6649.5
3264.0733310669	6699.25
3266.03344230246	6733.5
3267.99303568784	6705.5
3269.95211145215	6696.5
3271.91066982422	6750.25
3273.86871103267	6730.75
3275.82623530581	6702.75
3277.7832428717	6736.5
3279.73973395818	6744
3281.69570879278	6755.5
3283.6511676028	6776.25
3285.60611061527	6781
3287.56053805694	6730
3289.51445015432	6715.5
3291.46784713364	6732
3293.42072922088	6714.25
3295.37309664173	6765
3297.32494962163	6707.25
3299.27628838575	6658.5
3301.227113159	6724.75
3303.17742416601	6672.75
3305.12722163114	6756.25
3307.07650577848	6654.75
3309.02527683185	6712.5
3310.9735350148	6750.5
3312.9212805506	6714
3314.86851366225	6661
3316.81523457249	6742.25
3318.76144350377	6731.5
3320.70714067825	6678.25
3322.65232631783	6657
3324.59700064415	6639
3326.54116387854	6608
3328.48481624207	6665.25
3330.42795795551	6615
3332.37058923938	6579.75
3334.31271031389	6571.5
3336.25432139898	6562.75
3338.19542271432	6638.75
3340.13601447927	6618
3342.07609691292	6597.75
3344.01567023407	6605.5
3345.95473466124	6554
3347.89329041266	6623.25
3349.83133770627	6636.25
3351.76887675973	6600.25
3353.70590779039	6567
3355.64243101534	6547.25
3357.57844665135	6569.5
3359.51395491492	6610.5
3361.44895602224	6532.25
3363.38345018922	6597.25
3365.31743763148	6534
3367.25091856432	6518.5
3369.18389320278	6513.5
3371.11636176156	6543.5
3373.0483244551	6573.5
3374.97978149754	6611
3376.91073310269	6530
3378.84117948409	6511.75
3380.77112085498	6554.25
3382.70055742826	6587.5
3384.62948941659	6547.25
3386.55791703227	6529
3388.48584048733	6535.75
3390.41325999348	6583.5
3392.34017576214	6608.25
3394.2665880044	6544
3396.19249693107	6552
3398.11790275263	6520.5
3400.04280567926	6510.25
3401.96720592084	6556.75
3403.89110368692	6533.5
3405.81449918675	6577.5
3407.73739262928	6476.25
3409.65978422311	6542
3411.58167417658	6532.75
3413.50306269768	6603.75
3415.42394999408	6550.75
3417.34433627316	6540.25
3419.26422174195	6508.75
3421.18360660721	6453.75
3423.10249107532	6467.25
3425.02087535239	6469.75
3426.93875964421	6489
3428.8561441562	6468.5
3430.77302909353	6427
3432.68941466097	6436.25
3434.60530106301	6454.5
3436.52068850383	6429
3438.43557718726	6446.5
3440.34996731681	6350.25
3442.26385909565	6394.25
3444.17725272664	6384.75
3446.09014841231	6359.75
3448.00254635486	6356
3449.91444675614	6389
3451.82584981771	6328.25
3453.73675574076	6354.75
3455.64716472616	6317
3457.55707697445	6340.75
3459.46649268584	6320.5
3461.37541206018	6308.25
3463.28383529703	6345.5
3465.19176259555	6270.25
3467.09919415464	6258.25
3469.00613017278	6182.5
3470.91257084817	6233.25
3472.81851637863	6290.25
3474.72396696168	6214.25
3476.62892279446	6223.75
3478.53338407379	6303.75
3480.43735099614	6158.5
3482.34082375764	6164.5
3484.24380255404	6194.5
3486.1462875808	6204.25
3488.048279033	6157.25
3489.94977710537	6156.75
3491.85078199231	6151.25
3493.75129388783	6163.75
3495.65131298566	6133.5
3497.5508394791	6164.75
3499.44987356115	6120.5