201.866871357051	944.75
204.754250281454	934.5
207.640596790938	942.75
210.525911876299	943.5
213.410196525689	932
216.293451724508	932.75
219.175678455485	937.5
222.056877698662	941.5
224.937050431388	940.5
227.816197628363	944.75
230.694320261602	941.25
233.571419300504	931.25
236.447495711764	949.25
239.322550459507	949.75
242.196584505182	958
245.069598807626	956.25
247.941594323078	959.5
250.812572005154	958
253.682532804884	957.25
256.551477670699	962.25
259.419407548456	966
262.286323381439	973
265.152226110364	969.5
268.017116673389	977.5
270.880996006115	985.25
273.743865041622	976.25
276.605724710436	972
279.466575940562	976.25
282.326419657496	988.75
285.1852567842	976.75
288.043088241157	995
290.899914946349	996.75
293.75573781526	997
296.610557760898	1007.75
299.464375693817	1006
302.317192522078	997.5
305.169009151297	1017
308.019826484655	1024.25
310.86964542287	1034.75
313.718466864233	1038
316.566291704614	1050
319.413120837457	1039.25
322.258955153804	1031
325.103795542291	1035
327.947642889128	1023.75
330.79049807819	1039.25
333.632361990927	1030.75
336.473235506444	1040
339.31311950145	1025.75
342.152014850322	1039.75
344.989922425062	1057.25
347.826843095354	1049.75
350.662777728528	1063.25
353.497727189577	1074.75
356.331692341195	1074.75
359.164674043732	1091.5
361.996673155267	1100.25
364.827690531536	1084
367.65772702602	1087
370.486783489887	1081.5
373.314860772047	1062
376.14195971912	1057.5
378.968081175466	1050.25
381.793225983212	1037.5
384.617394982201	1027.5
387.44058901005	1023.25
390.262808902131	1029
393.08405549161	1002.25
395.904329609395	1017
398.723632084213	1008
401.541963742569	1006.75
404.359325408779	1003
407.175717904938	1004
409.991142050982	1014.75
412.805598664665	1015
415.619088561551	998.25
418.43161255505	1007.5
421.243171456415	1011.5
424.053766074758	1009.75
426.863397217017	1003.75
429.672065688024	1009.75
432.479772290455	1012.5
435.286517824879	1008.25
438.092303089736	1030
440.897128881359	1003
443.70099599399	1004.25
446.503905219761	1007
449.305857348711	1008
452.106853168796	995
454.906893465919	990
457.705979023885	1001
460.504110624439	1000
463.3012890473	995.5
466.097515070087	1007.75
468.892789468424	985.75
471.687113015869	1019
474.48048648395	997.5
477.272910642198	1013
480.064386258109	1014.25
482.854914097159	1003
485.644494922839	1019.75
488.433129496636	1014.25
491.220818578047	1028
494.007562924584	1022.5
496.793363291785	1015.5
499.578220433217	1009
502.362135100473	1011.5
505.145108043209	1026.5
507.927140009098	1009
510.708231743909	1017
513.488383991433	1015.25
516.267597493556	1023.25
519.04587299022	1022.5
521.82321121946	1042.75
524.599612917398	1037
527.375078818233	1052
530.149609654287	1042.25
532.923206155967	1047.5
535.695869051804	1033
538.467599068448	1027.25
541.238396930665	1033
544.008263361364	1033
546.777199081578	1033.25
549.545204810493	1038
552.312281265436	1031.75
555.078429161898	1030.75
557.843649213533	1037.5
560.607942132156	1047.5
563.371308627753	1050.5
566.133749408495	1039.75
568.895265180756	1050.25
571.655856649064	1053.75
574.415524516189	1055
577.174269483075	1053.75
579.932092248884	1065.75
582.688993510994	1063.75
585.444973965023	1078.75
588.200034304795	1063.75
590.95417522237	1093.5
593.70739740807	1103.75
596.459701550433	1104.5
599.21108833628	1115
601.961558450668	1141.25
604.711112576933	1165
607.459751396673	1171.25
610.207475589748	1216.25
612.954285834338	1241.75
615.700182806879	1254.5
618.445167182101	1254.5
621.189239633055	1254.25
623.932400831087	1252.25
626.674651445839	1267
629.415992145303	1306.75
632.156423595745	1320.75
634.895946461813	1321.75
637.634561406449	1345.75
640.37226909096	1331
643.109070174978	1305.75
645.844965316508	1278.25
648.579955171888	1274
651.314040395846	1247
654.047221641456	1207
656.779499560176	1174.75
659.510874801828	1160.75
662.241348014642	1156.75
664.97091984524	1164.75
667.699590938606	1160.25
670.427361938164	1167.25
673.15423348573	1184.75
675.880206221526	1204.5
678.605280784206	1227.25
681.329457810829	1239
684.05273793692	1243.25
686.775121796389	1274.5
689.49661002163	1257.75
692.217203243454	1274.5
694.936902091144	1279.25
697.655707192425	1275.25
700.373619173493	1284.5
703.09063865901	1243.25
705.806766272093	1207
708.522002634378	1198
711.236348365946	1182
713.94980408538	1155.5
716.662370409762	1143.25
719.374047954676	1109.75
722.08483733419	1103.75
724.794739160909	1102.5
727.503754045949	1085.5
730.21188259892	1061
732.919125427998	1069.5
735.625483139855	1056.75
738.330956339723	1064.75
741.035545631374	1049.75
743.739251617106	1058.5
746.44207489779	1061
749.144016072852	1070.5
751.845075740272	1064.75
754.545254496603	1055.5
757.244552936976	1052.75
759.94297165508	1058.5
762.640511243222	1061.5
765.337172292249	1056.75
768.032955391649	1044.25
770.727861129482	1059.25
773.421890092413	1058
776.11504286572	1054
778.807320033298	1054.25
781.49872217765	1044.25
784.18924987991	1050.75
786.87890371984	1030
789.567684275826	1059.5
792.255592124908	1038
794.94262784276	1062.5
797.628792003703	1052.5
800.314085180715	1028
802.998507945427	1056.5
805.682060868145	1047.25
808.364744517821	1054.75
811.046559462105	1062.75
813.727506267311	1051
816.407585498422	1067.25
819.08679771913	1049.25
821.765143491822	1066
824.442623377563	1075
827.119237936127	1063.5
829.794987726003	1078
832.469873304377	1094.5
835.143895227167	1078.5
837.817054048985	1079.5
840.489350323205	1086.25
843.160784601892	1084.75
845.831357435894	1089.5
848.501069374739	1080.5
851.169920966753	1083.75
853.837912758987	1084.5
856.505045297232	1086.5
859.171319126071	1092
861.836734788823	1088.25
864.501292827579	1091.75
867.164993783208	1087.25
869.827838195361	1097.75
872.489826602454	1088.75
875.150959541701	1086.25
877.811237549104	1081.25
880.470661159456	1092.5
883.129230906357	1080.75
885.786947322205	1069.75
888.443810938206	1074.5
891.099822284385	1077.75
893.754981889586	1076
896.409290281452	1086.25
899.062747986485	1087.5
901.715355529999	1080.75
904.367113436154	1088.5
907.01802222793	1096.5
909.668082427172	1080.25
912.317294554574	1090.25
914.965659129659	1094.75
917.613176670835	1093
920.259847695364	1096.25
922.90567271936	1092.75
925.550652257825	1103.75
928.194786824621	1098
930.838076932512	1095
933.480523093109	1107.75
936.122125816953	1111.75
938.762885613447	1099.5
941.402802990899	1101.5
944.041878456523	1108.25
946.680112516428	1100.75
949.31750567563	1115.25
951.954058438081	1114.75
954.589771306633	1122.25
957.224644783048	1132.25
959.858679368044	1124.75
962.491875561238	1107.75
965.12423386121	1113.5
967.75575476545	1123.75
970.386438770423	1112
973.016286371501	1099.25
975.645298063046	1114.75
978.273474338355	1115.5
980.900815689674	1109.5
983.527322608243	1104
986.152995584245	1110
988.777835106834	1110.5
991.401841664148	1116.5
994.025015743307	1117.75
996.647357830407	1126.75
999.268868410534	1130.5
1001.88954796777	1116.5
1004.50939698518	1120.25
1007.12841594484	1113.5
1009.74660532783	1109.75
1012.36396561423	1127.25
1014.98049728314	1124.25
1017.59620081267	1105.5
1020.21107667995	1126.75
1022.82512536112	1125
1025.43834733138	1119
1028.05074306493	1124.75
1030.66231303501	1116.25
1033.27305771392	1140
1035.88297757299	1144
1038.49207308257	1159.75
1041.10034471211	1157.75
1043.70779293008	1145.75
1046.31441820402	1134.25
1048.92022100052	1139.25
1051.52520178525	1143.75
1054.12936102295	1144.75
1056.73269917742	1140.25
1059.33521671154	1137.5
1061.93691408729	1132.25
1064.53779176571	1149.5
1067.13785020694	1150.75
1069.73708987022	1149.25
1072.33551121386	1153.25
1074.93311469528	1156.75
1077.52990077103	1151.75
1080.12586989674	1137.5
1082.72102252714	1158
1085.31535911611	1143.25
1087.90888011663	1137.5
1090.50158598078	1164.75
1093.09347715979	1162.5
1095.68455410403	1165.5
1098.27481726296	1174.5
1100.86426708523	1180.75
1103.45290401857	1172.25
1106.04072850991	1174
1108.6277410053	1175.75
1111.21394194993	1174
1113.79933178816	1184.75
1116.3839109635	1168
1118.96767991862	1161.5
1121.55063909539	1180
1124.13278893477	1182.5
1126.71412987696	1164.75
1129.29466236132	1155
1131.87438682637	1162.75
1134.45330370982	1155.25
1137.03141344858	1167.75
1139.60871647872	1150.75
1142.18521323554	1147.75
1144.7609041535	1159.75
1147.33578966629	1165
1149.90987020676	1169
1152.48314620702	1180.5
1155.05561809835	1177.25
1157.62728631125	1181.75
1160.19815127545	1185.5
1162.76821341988	1202.25
1165.33747317271	1232.25
1167.90593096133	1205.5
1170.47358721235	1214.25
1173.04044235163	1217.25
1175.60649680425	1193.5
1178.17175099454	1207.75
1180.73620534607	1221
1183.29986028165	1214
1185.86271622336	1213.5
1188.42477359249	1199.75
1190.98603280964	1192
1193.54649429462	1199
1196.10615846653	1194.5
1198.66502574372	1211.25
1201.22309654385	1218.5
1203.78037128378	1239.5
1206.33685037971	1212.75
1208.89253424709	1216.5
1211.44742330063	1194.5
1214.00151795438	1184.25
1216.55481862163	1172.25
1219.10732571497	1163.75
1221.65903964631	1181.25
1224.20996082683	1169.5
1226.760089667	1155.5
1229.30942657664	1160.5
1231.85797196483	1179
1234.40572623998	1174
1236.95268980981	1164
1239.49886308136	1167.5
1242.04424646098	1172
1244.58884035435	1182.75
1247.13264516647	1214
1249.67566130166	1205.75
1252.21788916358	1191
1254.75932915524	1225.75
1257.29998167896	1207.75
1259.83984713639	1223
1262.37892592857	1221
1264.91721845586	1209.75
1267.45472511795	1221.25
1269.9914463139	1214
1272.52738244213	1215.5
1275.0625339004	1207.75
1277.59690108587	1207.75
1280.130484395	1212.25
1282.66328422367	1215
1285.19530096712	1227
1287.72653501993	1214
1290.25698677608	1221.5
1292.78665662894	1237.5
1295.31554497125	1245
1297.8436521951	1224
1300.37097869203	1244.25
1302.89752485292	1262.5
1305.42329106805	1252.25
1307.94827772713	1263.5
1310.47248521921	1263.5
1312.99591393279	1269
1315.51856425575	1272.25
1318.04043657536	1283.75
1320.56153127836	1277.5
1323.08184875083	1279
1325.6013893783	1297
1328.12015354572	1291
1330.63814163744	1310.75
1333.15535403727	1327
1335.67179112839	1347.5
1338.18745329347	1317.25
1340.70234091454	1339.5
1343.21645437314	1334.5
1345.72979405019	1347
1348.24236032607	1304
1350.75415358059	1307.75
1353.26517419303	1283.25
1355.7754225421	1271
1358.28489900594	1283.75
1360.79360396218	1297
1363.30153778787	1293.25
1365.80870085955	1281.5
1368.31509355319	1271.5
1370.82071624424	1276
1373.32556930762	1276.5
1375.8296531177	1293.25
1378.33296804832	1325.25
1380.83551447282	1377
1383.33729276399	1423
1385.83830329408	1445
1388.33854643489	1494
1390.83802255762	1501
1393.33673203301	1435.75
1395.83467523128	1349.25
1398.33185252211	1305
1400.82826427471	1267.75
1403.32391085777	1270.5
1405.81879263947	1264
1408.31290998752	1268
1410.80626326908	1256.75
1413.29885285087	1300
1415.79067909909	1294.5
1418.28174237944	1311
1420.77204305717	1334.5
1423.26158149702	1390
1425.75035806323	1435
1428.2383731196	1450.75
1430.72562702942	1441
1433.21212015554	1409.25
1435.69785286028	1403.25
1438.18282550555	1393.75
1440.66703845275	1389.5
1443.15049206284	1342.75
1445.6331866963	1338.75
1448.11512271316	1317
1450.59630047298	1314.25
1453.07672033486	1303
1455.55638265748	1297.5
1458.03528779902	1300.25
1460.51343611725	1291.25
1462.99082796946	1284.25
1465.46746371252	1290.5
1467.94334370285	1281
1470.41846829642	1298
1472.89283784878	1296.25
1475.36645271503	1290.25
1477.83931324983	1293.25
1480.31141980743	1289
1482.78277274164	1287.75
1485.25337240583	1284.75
1487.72321915297	1278.75
1490.19231333557	1276.25
1492.66065530578	1287.25
1495.12824541525	1294.75
1497.5950840153	1291.25
1500.06117145678	1269.75
1502.52650809014	1287
1504.99109426543	1274
1507.45493033227	1291
1509.91801663992	1277.5
1512.38035353717	1289.25
1514.84194137248	1277
1517.30278049386	1298
1519.76287124894	1274.25
1522.22221398497	1284.25
1524.68080904876	1303.75
1527.13865678681	1267
1529.59575754514	1315.5
1532.05211166945	1307.25
1534.50771950503	1291.25
1536.96258139678	1296
1539.41669768924	1297.75
1541.87006872656	1316
1544.32269485252	1304.75
1546.77457641051	1322.75
1549.22571374357	1322.5
1551.67610719434	1323.75
1554.12575710513	1322.25
1556.57466381785	1310
1559.02282767408	1312.75
1561.47024901499	1317.5
1563.91692818144	1330.25
1566.3628655139	1344.5
1568.80806135249	1329
1571.252516037	1347.5
1573.6962299068	1360
1576.13920330099	1360.5
1578.58143655828	1379.25
1581.02293001704	1382
1583.46368401528	1381.75
1585.90369889071	1387.75
1588.34297498065	1401.5
1590.7815126221	1377.75
1593.21931215173	1357.5
1595.65637390588	1388
1598.09269822053	1366.75
1600.52828543135	1389.25
1602.96313587367	1384.75
1605.3972498825	1374.25
1607.83062779252	1378
1610.26326993808	1363.25
1612.69517665322	1377.25
1615.12634827165	1376.75
1617.55678512676	1352.75
1619.98648755163	1365.5
1622.41545587902	1373.25
1624.84369044138	1359.5
1627.27119157085	1389.5
1629.69795959924	1370.25
1632.12399485808	1374.25
1634.54929767859	1379.5
1636.97386839165	1369.5
1639.39770732789	1373
1641.8208148176	1388
1644.24319119078	1400
1646.66483677715	1398.5
1649.0857519061	1391.75
1651.50593690677	1407.5
1653.92539210795	1409.25
1656.3441178382	1411.5
1658.76211442575	1407.75
1661.17938219855	1416.5
1663.59592148428	1434
1666.01173261032	1430.75
1668.42681590377	1452.25
1670.84117169145	1444.25
1673.25480029991	1412.25
1675.66770205541	1415
1678.07987728393	1434.75
1680.49132631119	1439.5
1682.90204946263	1446.25
1685.31204706342	1434
1687.72131943846	1456.25
1690.1298669124	1442.25
1692.53768980957	1472.75
1694.94478845411	1451.25
1697.35116316982	1479.75
1699.75681428031	1478
1702.16174210887	1464.25
1704.56594697858	1475.5
1706.96942921222	1482.25
1709.37218913235	1485
1711.77422706125	1490
1714.17554332098	1475.5
1716.5761382333	1487.25
1718.97601211977	1490.75
1721.37516530169	1482
1723.77359810006	1502.25
1726.17131083572	1501.25
1728.56830382922	1500
1730.96457740087	1498
1733.36013187075	1502.75
1735.75496755868	1484.75
1738.14908478428	1503.5
1740.54248386689	1489.25
1742.93516512565	1484.25
1745.32712887946	1484
1747.71837544697	1497
1750.10890514662	1497.5
1752.49871829661	1479.25
1754.88781521492	1488.5
1757.27619621929	1496.5
1759.66386162726	1496
1762.05081175612	1501
1764.43704692297	1521.25
1766.82256744465	1513.25
1769.20737363782	1514.75
1771.59146581887	1520.75
1773.97484430405	1519.75
1776.35750940932	1516.75
1778.73946145048	1534
1781.12070074309	1534.25
1783.50122760249	1524.75
1785.88104234385	1554.5
1788.26014528209	1557.75
1790.63853673196	1540
1793.01621700796	1538.75
1795.39318642443	1560.75
1797.76944529549	1561.25
1800.14499393503	1557.75
1802.51983265681	1573
1804.8939617743	1574.5
1807.26738160085	1581.5
1809.64009244957	1553.75
1812.01209463339	1568
1814.38338846504	1593
1816.75397425706	1580.25
1819.12385232181	1579
1821.49302297142	1583.25
1823.86148651789	1596.75
1826.22924327299	1596.75
1828.59629354831	1597.25
1830.96263765526	1584
1833.32827590507	1607
1835.69320860877	1603.25
1838.05743607724	1592.5
1840.42095862113	1597.25
1842.78377655097	1610
1845.14589017707	1617
1847.50729980956	1606
1849.86800575843	1608.5
1852.22800833346	1613.75
1854.58730784427	1639.75
1856.94590460032	1626
1859.30379891087	1619.75
1861.66099108503	1633
1864.01748143175	1656.5
1866.37327025978	1657
1868.72835787773	1640
1871.08274459403	1657.75
1873.43643071697	1651.5
1875.78941655464	1676.75
1878.14170241498	1667.25
1880.4932886058	1680.75
1882.84417543469	1668.75
1885.19436320915	1678.5
1887.54385223646	1711.25
1889.89264282378	1695
1892.24073527809	1683.75
1894.58812990625	1692.25
1896.93482701493	1712
1899.28082691067	1703.5
1901.62612989984	1720.25
1903.97073628868	1725.25
1906.31464638326	1747
1908.6578604895	1760
1911.00037891321	1747
1913.34220196	1750.75
1915.68332993537	1766.25
1918.02376314468	1777
1920.36350189311	1757
1922.70254648573	1776
1925.04089722744	1781
1927.37855442303	1790.25
1929.71551837715	1778
1932.05178939426	1751.5
1934.38736777876	1790.75
1936.72225383484	1793.25
1939.0564478666	1807.25
1941.38995017799	1785.5
1943.72276107283	1810.5
1946.05488085479	1781.75
1948.38630982744	1794.75
1950.71704829419	1808
1953.04709655832	1806.5
1955.376454923	1825.75
1957.70512369126	1824.25
1960.03310316599	1826.75
1962.36039364999	1808.75
1964.68699544589	1822.5
1967.01290885622	1842.5
1969.33813418338	1827
1971.66267172965	1835.75
1973.98652179718	1822.25
1976.309684688	1844.75
1978.63216070402	1859.5
1980.95395014705	1860
1983.27505331873	1861
1985.59547052063	1873.5
1987.9152020542	1883
1990.23424822074	1869.25
1992.55260932146	1874.75
1994.87028565746	1902
1997.18727752968	1886.25
1999.503585239	1912
2001.81920908618	1907.5
2004.13414937184	1957.75
2006.44840639651	1942.75
2008.7619804606	1955.5
2011.07487186442	1943
2013.38708090815	1940
2015.6986078919	1963
2018.00945311564	1967.75
2020.31961687923	1981.25
2022.62909948246	1993
2024.93790122498	1989.75
2027.24602240636	2007.25
2029.55346332604	2011.5
2031.86022428337	2001.75
2034.16630557761	2028.25
2036.47170750791	2021.25
2038.77643037331	2037.25
2041.08047447275	2039.75
2043.38384010509	2036.5
2045.68652756907	2053.75
2047.98853716335	2044.5
2050.28986918648	2051.5
2052.59052393692	2061
2054.89050171302	2062.5
2057.18980281306	2093.75
2059.4884275352	2062
2061.78637617753	2070.75
2064.08364903802	2079.75
2066.38024641457	2062.25
2068.67616860497	2089.5
2070.97141590694	2059.75
2073.26598861809	2117.25
2075.55988703595	2082.75
2077.85311145796	2092.5
2080.14566218145	2111
2082.43753950371	2099.25
2084.72874372188	2118
2087.01927513307	2131.5
2089.30913403428	2125.25
2091.59832072241	2138.5
2093.88683549429	2137
2096.17467864666	2138
2098.46185047619	2159.75
2100.74835127944	2169.5
2103.03418135292	2143.75
2105.31934099303	2149.75
2107.6038304961	2184.25
2109.88765015838	2174.25
2112.17080027602	2168.5
2114.45328114513	2210.5
2116.7350930617	2192
2119.01623632165	2211.5
2121.29671122085	2205.75
2123.57651805505	2229.75
2125.85565711996	2232
2128.13412871117	2255
2130.41193312424	2238
2132.68907065462	2260.5
2134.96554159771	2253.5
2137.24134624881	2280.5
2139.51648490317	2292.75
2141.79095785593	2268.75
2144.0647654022	2281.25
2146.33790783698	2318.5
2148.61038545524	2319.25
2150.88219855182	2315.75
2153.15334742154	2332.5
2155.42383235911	2324.5
2157.6936536592	2356.25
2159.9628116164	2350.5
2162.23130652522	2337.25
2164.49913868011	2380.75
2166.76630837544	2379.25
2169.03281590552	2386.25
2171.2986615646	2389.5
2173.56384564685	2393
2175.82836844637	2390
2178.0922302572	2417.5
2180.35543137332	2430.75
2182.61797208862	2417
2184.87985269695	2415
2187.14107349208	2426.25
2189.40163476773	2436.5
2191.66153681753	2445.75
2193.92077993507	2420.75
2196.17936441386	2449
2198.43729054735	2430.75
2200.69455862894	2463.25
2202.95116895194	2476.5
2205.20712180962	2463.75
2207.46241749519	2463.75
2209.71705630179	2486.75
2211.97103852248	2506.5
2214.2243644503	2502
2216.47703437819	2483.5
2218.72904859905	2483.25
2220.98040740571	2537
2223.23111109095	2518
2225.4811599475	2525.25
2227.73055426799	2524.5
2229.97929434504	2511.5
2232.22738047118	2541.25
2234.47481293889	2552.75
2236.72159204058	2556
2238.96771806864	2563.5
2241.21319131536	2565
2243.458012073	2546.75
2245.70218063374	2572.75
2247.94569728973	2614
2250.18856233304	2604.75
2252.4307760557	2582.5
2254.67233874967	2620.25
2256.91325070687	2601.75
2259.15351221915	2606
2261.39312357831	2618
2263.63208507611	2620.75
2265.87039700422	2641.25
2268.1080596543	2654.75
2270.34507331792	2674.5
2272.5814382866	2671.75
2274.81715485183	2654
2277.05222330502	2650.5
2279.28664393755	2678.25
2281.52041704072	2677.25
2283.75354290581	2709
2285.98602182401	2696.5
2288.21785408648	2713
2290.44903998434	2744.75
2292.67957980862	2702
2294.90947385033	2729.5
2297.1387224004	2722.75
2299.36732574975	2746
2301.59528418921	2777.75
2303.82259800958	2750
2306.04926750158	2805.25
2308.27529295593	2788.75
2310.50067466325	2790.25
2312.72541291412	2811.5
2314.9495079991	2819.5
2317.17296020866	2795.5
2319.39576983323	2805.5
2321.61793716322	2825.25
2323.83946248894	2800.75
2326.06034610069	2861.25
2328.28058828871	2850.25
2330.50018934317	2849.75
2332.7191495542	2837
2334.93746921192	2854
2337.15514860633	2861.75
2339.37218802743	2866.75
2341.58858776516	2859.75
2343.80434810941	2875.5
2346.01946935001	2856.5
2348.23395177675	2876.25
2350.44779567939	2894.5
2352.66100134759	2888
2354.87356907101	2928.25
2357.08549913925	2899.5
2359.29679184185	2920.75
2361.50744746829	2917.25
2363.71746630804	2933.25
2365.92684865048	2917
2368.13559478499	2908.75
2370.34370500083	2954.25
2372.55117958727	2939
2374.75801883352	2949
2376.96422302874	2937.75
2379.16979246202	2935
2381.37472742243	2924.5
2383.57902819898	2977.25
2385.78269508063	2946.25
2387.98572835629	2958.75
2390.18812831482	2943.75
2392.38989524505	2976.5
2394.59102943573	2959
2396.79153117559	2966.5
2398.9914007533	2980.5
2401.19063845748	2988
2403.38924457672	3007.5
2405.58721939951	2970.5
2407.78456321435	3021
2409.98127630966	3009.25
2412.17735897382	3035.75
2414.37281149517	3006.5
2416.56763416198	2995.5
2418.76182726249	3044
2420.95539108487	3015
2423.14832591726	3058.25
2425.34063204776	3035.25
2427.53230976439	3045
2429.72335935513	3051.5
2431.91378110795	3042
2434.10357531071	3063
2436.29274225125	3047.75
2438.48128221739	3011
2440.66919549683	3059.5
2442.8564823773	3049.75
2445.04314314641	3086.75
2447.22917809176	3081.75
2449.4145875009	3102.75
2451.59937166131	3079.25
2453.78353086044	3092.75
2455.96706538568	3112.75
2458.14997552436	3091.5
2460.33226156379	3099
2462.51392379119	3088.25
2464.69496249376	3088.25
2466.87537795862	3069
2469.05517047288	3132.75
2471.23434032357	3120.5
2473.41288779767	3156.25
2475.59081318211	3125.5
2477.76811676378	3102
2479.9447988295	3096.5
2482.12085966605	3111.25
2484.29629956016	3125.5
2486.4711187985	3123.5
2488.64531766769	3133.5
2490.8188964543	3146.75
2492.99185544484	3130
2495.16419492579	3111.75
2497.33591518353	3104.75
2499.50701650444	3178.5
2501.67749917482	3181.5
2503.84736348091	3167.25
2506.01660970891	3177.5
2508.18523814496	3181.25
2510.35324907514	3183.25
2512.52064278551	3214.5
2514.68741956201	3191.75
2516.85357969058	3212
2519.01912345709	3222.25
2521.18405114735	3221.25
2523.34836304711	3221.5
2525.51205944208	3205.75
2527.6751406179	3208.75
2529.83760686016	3246.25
2531.99945845439	3238.25
2534.16069568606	3272
2536.3213188406	3243.75
2538.48132820336	3226.5
2540.64072405965	3269.5
2542.79950669471	3272.75
2544.95767639373	3328.75
2547.11523344184	3302
2549.27217812411	3288.75
2551.42851072555	3302
2553.58423153111	3310
2555.73934082569	3317.25
2557.89383889412	3292
2560.04772602118	3278.25
2562.20100249158	3248.75
2564.35366858996	3273.25
2566.50572460093	3292.75
2568.65717080901	3269
2570.80800749867	3326.25
2572.95823495433	3291.5
2575.10785346031	3276.25
2577.25686330093	3268
2579.40526476038	3251.25
2581.55305812282	3270.25
2583.70024367237	3241.5
2585.84682169303	3282.25
2587.99279246879	3278.75
2590.13815628354	3275.5
2592.28291342112	3271.5
2594.42706416531	3324.75
2596.5706087998	3306.75
2598.71354760826	3316
2600.85588087425	3315.75
2602.99760888127	3288.75
2605.13873191278	3272.25
2607.27925025214	3260
2609.41916418269	3322.25
2611.55847398764	3292
2613.69717995017	3313.75
2615.83528235339	3323.75
2617.97278148034	3370.75
2620.10967761398	3312.75
2622.2459710372	3341.25
2624.38166203284	3351.25
2626.51675088365	3351.5
2628.65123787231	3334.5
2630.78512328145	3368.75
2632.9184073936	3358.5
2635.05109049124	3341.25
2637.18317285676	3349
2639.31465477248	3417
2641.44553652067	3352.5
2643.5758183835	3358
2645.70550064309	3394
2647.83458358144	3398.75
2649.96306748053	3388
2652.09095262223	3391.75
2654.21823928836	3398.75
2656.34492776063	3398
2658.47101832071	3415.25
2660.59651125015	3418.75
2662.72140683047	3415.75
2664.84570534309	3404.5
2666.96940706934	3411.5
2669.0925122905	3406
2671.21502128773	3418.75
2673.33693434215	3450.75
2675.45825173479	3423
2677.57897374658	3436.25
2679.69910065839	3474.75
2681.818632751	3443
2683.93757030511	3447.25
2686.05591360133	3462.5
2688.17366292021	3442.75
2690.29081854218	3507
2692.40738074762	3429.75
2694.52334981681	3466
2696.63872602995	3462
2698.75350966713	3472
2700.86770100841	3468
2702.98130033371	3434.5
2705.09430792289	3435.25
2707.20672405571	3509.75
2709.31854901185	3506.5
2711.42978307091	3484.25
2713.54042651238	3468.75
2715.65047961567	3545.25
2717.7599426601	3509.75
2719.86881592491	3502.25
2721.97709968924	3528.25
2724.08479423213	3518.5
2726.19189983255	3539.75
2728.29841676934	3514.25
2730.4043453213	3581.25
2732.5096857671	3594.25
2734.61443838532	3578.25
2736.71860345444	3562.5
2738.82218125286	3548.5
2740.92517205889	3560.25
2743.02757615072	3587.5
2745.12939380646	3572
2747.23062530411	3560.5
2749.33127092159	3604.25
2751.4313309367	3564.25
2753.53080562716	3616.75
2755.62969527058	3608
2757.72800014448	3583.25
2759.82572052625	3627
2761.92285669323	3573
2764.0194089226	3641.25
2766.11537749147	3612.25
2768.21076267686	3640.25
2770.30556475566	3622
2772.39978400465	3615.5
2774.49342070054	3631
2776.58647511991	3637
2778.67894753923	3617.5
2780.77083823487	3659.75
2782.8621474831	3608.25
2784.95287556007	3605
2787.04302274184	3593.25
2789.13258930433	3634.25
2791.22157552338	3617.5
2793.30998167471	3624
2795.39780803392	3630.75
2797.4850548765	3649.75
2799.57172247786	3630.5
2801.65781111324	3618
2803.74332105781	3629.75
2805.82825258661	3665.75
2807.91260597457	3689.75
2809.9963814965	3670.5
2812.07957942711	3649
2814.16220004096	3637.5
2816.24424361252	3687.5
2818.32571041614	3691.25
2820.40660072604	3684
2822.48691481631	3714.25
2824.56665296098	3712.5
2826.64581543388	3709.75
2828.72440250876	3721.25
2830.80241445925	3699
2832.87985155885	3739
2834.95671408093	3720.75
2837.03300229875	3759.5
2839.10871648544	3777.5
2841.18385691399	3844.75
2843.25842385729	3850.5
2845.33241758808	3845.25
2847.40583837898	3926.5
2849.4786865025	3883.25
2851.550962231	3916.25
2853.6226658367	3927.5
2855.69379759173	3848.5
2857.76435776806	3943.75
2859.83434663753	3928
2861.90376447184	3877.75
2863.97261154259	3937.25
2866.0408881212	3926.75
2868.10859447901	3932.75
2870.17573088717	4001.75
2872.24229761673	3966
2874.30829493859	3942.5
2876.37372312352	3948.25
2878.43858244215	4003.75
2880.50287316496	3984
2882.56659556231	3961.25
2884.62974990439	4032
2886.69233646129	4027
2888.75435550293	4016.75
2890.81580729909	4086.25
2892.87669211941	4128
2894.93701023339	4194.5
2896.99676191039	4263.75
2899.05594741961	4384.5
2901.1145670301	4537.25
2903.1726210108	4670
2905.23010963045	4884.5
2907.28703315768	5020.25
2909.34339186096	5110.25
2911.39918600861	5327.5
2913.45441586879	5276.25
2915.50908170952	5248.75
2917.56318379867	5217
2919.61672240395	5090.75
2921.66969779291	5002.25
2923.72211023295	4863.25
2925.77395999134	4853.5
2927.82524733515	4831.75
2929.87597253132	4787.5
2931.92613584663	4766.5
2933.97573754769	4751.75
2936.02477790097	4706
2938.07325717276	4707.5
2940.1211756292	4721.5
2942.16853353626	4639
2944.21533115976	4639.5
2946.26156876536	4544
2948.30724661853	4476
2950.3523649846	4476.75
2952.39692412872	4437.75
2954.44092431587	4358.25
2956.48436581089	4345.75
2958.52724887843	4298.25
2960.56957378296	4301.75
2962.6113407888	4310.25
2964.65255016011	4309.25
2966.69320216083	4343.75
2968.73329705479	4328.75
2970.77283510559	4327.5
2972.81181657671	4306
2974.8502417314	4301.75
2976.88811083279	4333.75
2978.92542414378	4247.75
2980.96218192713	4215.5
2982.99838444541	4176
2985.034031961	4113.75
2987.06912473612	4109.25
2989.1036630328	4061.5
2991.13764711288	4012.5
2993.17107723804	4051
2995.20395366974	3975
2997.23627666931	4038
2999.26804649782	4061.5
3001.29926341624	4019.5
3003.32992768528	4051.5
3005.3600395655	4029.25
3007.38959931726	3996
3009.41860720076	4015
3011.44706347595	4014.5
3013.47496840263	4011
3015.50232224041	4015.75
3017.5291252487	4055.5
3019.5553776867	3977.5
3021.58107981344	4051.25
3023.60623188773	4049.75
3025.63083416822	4031.25
3027.65488691331	4060
3029.67839038125	4067.5
3031.70134483007	4075.75
3033.72375051759	4083
3035.74560770144	4102
3037.76691663907	4089.5
3039.78767758768	4102.5
3041.80789080431	4069
3043.82755654577	4078
3045.84667506867	4070.5
3047.8652466294	4127
3049.88327148418	4098.75
3051.90074988899	4058
3053.91768209961	4118
3055.9340683716	4089.25
3057.94990896033	4082.75
3059.96520412095	4126
3061.97995410838	4131
3063.99415917734	4130.25
3066.00781958234	4111.5
3068.02093557766	4102.75
3070.03350741738	4100.75
3072.04553535535	4110
3074.05701964521	4113
3076.06796054036	4059.75
3078.078358294	4069
3080.08821315912	4112
3082.09752538846	4100
3084.10629523454	4061.25
3086.11452294967	4109.75
3088.12220878592	4051.25
3090.12935299515	4079.75
3092.13595582898	4079.75
3094.1420175388	4072.5
3096.14753837579	4053
3098.15251859088	4128.25
3100.15695843477	4073.25
3102.16085815793	4072.25
3104.16421801061	4122.75
3106.16703824282	4086
3108.16931910432	4115.5
3110.17106084464	4079.25
3112.17226371308	4132.25
3114.17292795872	4082
3116.17305383034	4135
3118.17264157657	4137.75
3120.17169144571	4114
3122.17020368587	4092.5
3124.16817854492	4119.5
3126.16561627044	4123
3128.16251710982	4125
3130.15888131017	4153.5
3132.15470911837	4150.75
3134.15000078104	4167.25
3136.14475654455	4173.75
3138.13897665502	4161.75
3140.13266135835	4189.75
3142.12581090014	4142.25
3144.11842552577	4212.25
3146.11050548036	4173.5
3148.10205100875	4190.25
3150.09306235557	4211.75
3152.08353976515	4190.25
3154.07348348158	4166.5
3156.06289374869	4217
3158.05177081006	4214.25
3160.04011490899	4211
3162.02792628852	4246
3164.01520519145	4195.25
3166.00195186029	4213.25
3167.98816653728	4213.5
3169.97384946442	4236.75
3171.95900088344	4230
3173.94362103577	4276
3175.92771016259	4256
3177.91126850484	4225
3179.89429630312	4197.75
3181.87679379782	4201.25
3183.85876122903	4257.5
3185.84019883657	4259
3187.82110685997	4262.5
3189.80148553851	4250.25
3191.78133511116	4244.25
3193.76065581664	4277
3195.73944789337	4285.5
3197.7177115795	4259.75
3199.6954471129	4262.75
3201.67265473114	4249.5
3203.64933467153	4272
3205.62548717107	4281
3207.60111246648	4295.25
3209.57621079421	4282.5
3211.55078239041	4280.5
3213.52482749093	4257
3215.49834633133	4328.25
3217.4713391469	4324.75
3219.44380617262	4324
3221.41574764317	4326.25
3223.38716379296	4310
3225.35805485607	4329.25
3227.32842106631	4369
3229.29826265718	4386.75
3231.26757986187	4362.75
3233.2363729133	4348.5
3235.20464204405	4375.5
3237.17238748643	4369.25
3239.13960947243	4394
3241.10630823374	4361.25
3243.07248400174	4398.25
3245.03813700748	4450.25
3247.00326748177	4389.5
3248.96787565503	4390
3250.93196175742	4439.75
3252.89552601877	4410.5
3254.8585686686	4439
3256.82108993612	4462
3258.78309005022	4435
3260.74456923948	4399.75
3262.70552773215	4444.25
3264.66596575617	4455.25
3266.62588353916	4411
3268.58528130843	4425
3270.54415929094	4397.75
3272.50251771336	4406
3274.46035680201	4415.5
3276.4176767829	4510
3278.37447788171	4465.25
3280.33076032379	4476
3282.28652433416	4411.5
3284.24177013751	4434.25
3286.1964979582	4429.5
3288.15070802027	4482
3290.10440054741	4468.5
3292.05757576298	4404.75
3294.01023389001	4385
3295.96237515119	4457.75
3297.91399976887	4463.75
3299.86510796506	4467.75
3301.81569996142	4467
3303.76577597932	4474.25
3305.7153362397	4418
3307.66438096324	4489.5
3309.61291037024	4495.5
3311.56092468064	4417.75
3313.50842411404	4437
3315.45540888971	4459
3317.40187922656	4447.75
3319.34783534315	4449.5
3321.29327745768	4478
3323.23820578801	4406.5
3325.18262055164	4468.5
3327.1265219657	4416.75
3329.06991024699	4446.5
3331.01278561194	4429.75
3332.95514827662	4433.25
3334.89699845674	4471.5
3336.83833636766	4432.5
3338.77916222434	4419.75
3340.71947624143	4412.25
3342.65927863317	4461.25
3344.59856961346	4448.25
3346.53734939584	4455.5
3348.47561819344	4436
3350.41337621906	4463.25
3352.35062368513	4457
3354.28736080368	4435
3356.22358778637	4463.5
3358.15930484452	4449.75
3360.09451218904	4472.5
3362.02921003047	4492.5
3363.96339857898	4481.5
3365.89707804436	4488.75
3367.83024863602	4467.5
3369.76291056299	4476
3371.69506403389	4442.25
3373.62670925699	4518.75
3375.55784644016	4475.5
3377.4884757909	4509
3379.41859751629	4507
3381.34821182305	4499.75
3383.27731891749	4513
3385.20591900555	4496
3387.13401229276	4504
3389.06159898426	4541.5
3390.9886792848	4531.25
3392.91525339872	4566.75
3394.84132152998	4550.5
3396.76688388213	4563.75
3398.69194065833	4554
3400.61649206133	4532
3402.54053829348	4576.5
3404.46407955672	4551
3406.3871160526	4546.25
3408.30964798225	4564.5
3410.23167554639	4550.75
3412.15319894535	4563.25
3414.07421837904	4553
3415.99473404695	4580
3417.91474614817	4567.75
3419.83425488136	4596.75
3421.75326044479	4555.75
3423.67176303631	4570.25
3425.58976285332	4586
3427.50726009282	4581.25
3429.42425495143	4562.25
3431.34074762528	4622.75
3433.25673831012	4574.25
3435.17222720127	4554.25
3437.08721449362	4616.5
3439.00170038164	4507.25
3440.91568505936	4563.75
3442.82916872039	4502.25
3444.74215155791	4535.5
3446.65463376468	4555.75
3448.566615533	4569
3450.47809705476	4567
3452.3890785214	4575.25
3454.29956012393	4592.75
3456.20954205293	4584.75
3458.11902449853	4575
3460.02800765041	4588.75
3461.93649169784	4569.75
3463.84447682962	4581.5
3465.75196323412	4588.25
3467.65895109925	4541.5
3469.56544061249	4594.75
3471.47143196086	4548.75
3473.37692533093	4592
3475.28192090884	4523.5
3477.18641888026	4598.75
3479.09041943039	4585
3480.99392274402	4579.5
3482.89692900545	4495.5
3484.79943839853	4579.5
3486.70145110666	4574.25
3488.60296731277	4570
3490.50398719933	4592.5
3492.40451094836	4548
3494.30453874141	4564.25
3496.20407075956	4559
3498.10310718342	4568.5
3500.00164819315	4587.75