201.866871357051	2254.5
204.754250281454	2252.25
207.640596790938	2260.75
210.525911876299	2255.25
213.410196525689	2231
216.293451724508	2252.75
219.175678455485	2255.75
222.056877698662	2259.25
224.937050431388	2227
227.816197628363	2262.5
230.694320261602	2242.5
233.571419300504	2277.75
236.447495711764	2260.5
239.322550459507	2271.75
242.196584505182	2317
245.069598807626	2329
247.941594323078	2322.75
250.812572005154	2347
253.682532804884	2325.5
256.551477670699	2304.75
259.419407548456	2305
262.286323381439	2332
265.152226110364	2310
268.017116673389	2296
270.880996006115	2304.25
273.743865041622	2275.5
276.605724710436	2288.5
279.466575940562	2299
282.326419657496	2321
285.1852567842	2308.25
288.043088241157	2339
290.899914946349	2303.75
293.75573781526	2317.5
296.610557760898	2325
299.464375693817	2335.5
302.317192522078	2308.25
305.169009151297	2336
308.019826484655	2323.5
310.86964542287	2322
313.718466864233	2333.25
316.566291704614	2316
319.413120837457	2349
322.258955153804	2327
325.103795542291	2326
327.947642889128	2350.5
330.79049807819	2340.5
333.632361990927	2367.75
336.473235506444	2342.75
339.31311950145	2352.25
342.152014850322	2357
344.989922425062	2384.5
347.826843095354	2365.75
350.662777728528	2425.25
353.497727189577	2436
356.331692341195	2476
359.164674043732	2499.25
361.996673155267	2490.25
364.827690531536	2488
367.65772702602	2460
370.486783489887	2454.5
373.314860772047	2453
376.14195971912	2464.75
378.968081175466	2488.25
381.793225983212	2419.5
384.617394982201	2438.5
387.44058901005	2453.75
390.262808902131	2443.5
393.08405549161	2506.25
395.904329609395	2497.75
398.723632084213	2531.75
401.541963742569	2545.25
404.359325408779	2500.75
407.175717904938	2466
409.991142050982	2454.25
412.805598664665	2435.75
415.619088561551	2430.75
418.43161255505	2436.25
421.243171456415	2420
424.053766074758	2429.25
426.863397217017	2436.75
429.672065688024	2428.25
432.479772290455	2429.5
435.286517824879	2452.75
438.092303089736	2493.75
440.897128881359	2478.25
443.70099599399	2496.25
446.503905219761	2503.5
449.305857348711	2509.5
452.106853168796	2534.25
454.906893465919	2517.25
457.705979023885	2503.75
460.504110624439	2507.25
463.3012890473	2495.75
466.097515070087	2455
468.892789468424	2447.75
471.687113015869	2433.25
474.48048648395	2439
477.272910642198	2449.75
480.064386258109	2441
482.854914097159	2442
485.644494922839	2446.75
488.433129496636	2439.25
491.220818578047	2455
494.007562924584	2445.5
496.793363291785	2491
499.578220433217	2469.25
502.362135100473	2492.25
505.145108043209	2492.5
507.927140009098	2495.75
510.708231743909	2525.5
513.488383991433	2511.5
516.267597493556	2525.25
519.04587299022	2542.75
521.82321121946	2519.25
524.599612917398	2541.5
527.375078818233	2551.5
530.149609654287	2539
532.923206155967	2487.75
535.695869051804	2524.25
538.467599068448	2491.75
541.238396930665	2501.75
544.008263361364	2481.25
546.777199081578	2501.25
549.545204810493	2468.5
552.312281265436	2444
555.078429161898	2467.25
557.843649213533	2492.5
560.607942132156	2481.5
563.371308627753	2479.75
566.133749408495	2459.25
568.895265180756	2493.5
571.655856649064	2500
574.415524516189	2522.75
577.174269483075	2515.75
579.932092248884	2504
582.688993510994	2522.5
585.444973965023	2497.75
588.200034304795	2527.5
590.95417522237	2535.5
593.70739740807	2536.75
596.459701550433	2518.25
599.21108833628	2547
601.961558450668	2503.75
604.711112576933	2501.75
607.459751396673	2501.75
610.207475589748	2499.25
612.954285834338	2531.75
615.700182806879	2546
618.445167182101	2488.5
621.189239633055	2499.25
623.932400831087	2518.75
626.674651445839	2481.5
629.415992145303	2478
632.156423595745	2465.5
634.895946461813	2463.5
637.634561406449	2477.25
640.37226909096	2500.5
643.109070174978	2481.5
645.844965316508	2494.25
648.579955171888	2497
651.314040395846	2511
654.047221641456	2486.5
656.779499560176	2512.75
659.510874801828	2544
662.241348014642	2509.25
664.97091984524	2538.75
667.699590938606	2552
670.427361938164	2518.5
673.15423348573	2536.25
675.880206221526	2545
678.605280784206	2563
681.329457810829	2539.75
684.05273793692	2534.5
686.775121796389	2515.5
689.49661002163	2522
692.217203243454	2529
694.936902091144	2515.5
697.655707192425	2497.75
700.373619173493	2523.5
703.09063865901	2509.75
705.806766272093	2500.75
708.522002634378	2500.25
711.236348365946	2497.25
713.94980408538	2497.75
716.662370409762	2503
719.374047954676	2489.5
722.08483733419	2502.75
724.794739160909	2498
727.503754045949	2529.25
730.21188259892	2529.25
732.919125427998	2538.25
735.625483139855	2530.25
738.330956339723	2530
741.035545631374	2544
743.739251617106	2535.5
746.44207489779	2557.25
749.144016072852	2568.25
751.845075740272	2560.5
754.545254496603	2546
757.244552936976	2536.5
759.94297165508	2552.75
762.640511243222	2581
765.337172292249	2568.5
768.032955391649	2553.5
770.727861129482	2576
773.421890092413	2554.5
776.11504286572	2589
778.807320033298	2552.5
781.49872217765	2574.5
784.18924987991	2585.25
786.87890371984	2550.5
789.567684275826	2582.5
792.255592124908	2584.5
794.94262784276	2587.5
797.628792003703	2655.75
800.314085180715	2678
802.998507945427	2808.75
805.682060868145	2981.75
808.364744517821	3092
811.046559462105	3063.75
813.727506267311	2937.5
816.407585498422	2791
819.08679771913	2793
821.765143491822	2817
824.442623377563	2882.5
827.119237936127	2970.75
829.794987726003	3135.25
832.469873304377	3281
835.143895227167	3415
837.817054048985	3515
840.489350323205	3494.75
843.160784601892	3371
845.831357435894	3199.5
848.501069374739	3019.5
851.169920966753	2931.5
853.837912758987	2828.25
856.505045297232	2759.75
859.171319126071	2763
861.836734788823	2710.25
864.501292827579	2677.75
867.164993783208	2620.5
869.827838195361	2619
872.489826602454	2608.75
875.150959541701	2607.75
877.811237549104	2582.5
880.470661159456	2603.25
883.129230906357	2560.75
885.786947322205	2515
888.443810938206	2577.25
891.099822284385	2555
893.754981889586	2579.25
896.409290281452	2563.5
899.062747986485	2549.75
901.715355529999	2575.25
904.367113436154	2553
907.01802222793	2567.75
909.668082427172	2529
912.317294554574	2536.5
914.965659129659	2582.25
917.613176670835	2597.5
920.259847695364	2587.75
922.90567271936	2560.5
925.550652257825	2574
928.194786824621	2545.25
930.838076932512	2569.75
933.480523093109	2566.75
936.122125816953	2585
938.762885613447	2583.25
941.402802990899	2589
944.041878456523	2592.75
946.680112516428	2584.25
949.31750567563	2574.5
951.954058438081	2593.5
954.589771306633	2583
957.224644783048	2577
959.858679368044	2560.75
962.491875561238	2584.5
965.12423386121	2621.5
967.75575476545	2681
970.386438770423	2751.25
973.016286371501	2797.25
975.645298063046	2758.75
978.273474338355	2651
980.900815689674	2593.5
983.527322608243	2539.25
986.152995584245	2540
988.777835106834	2554.75
991.401841664148	2537.25
994.025015743307	2548.5
996.647357830407	2526.75
999.268868410534	2515.25
1001.88954796777	2547.5
1004.50939698518	2524.5
1007.12841594484	2558.5
1009.74660532783	2523.5
1012.36396561423	2554
1014.98049728314	2522.25
1017.59620081267	2554.75
1020.21107667995	2514
1022.82512536112	2531.5
1025.43834733138	2539.5
1028.05074306493	2547.75
1030.66231303501	2580.5
1033.27305771392	2581.75
1035.88297757299	2583.75
1038.49207308257	2562.5
1041.10034471211	2578.75
1043.70779293008	2565.5
1046.31441820402	2564.5
1048.92022100052	2542.5
1051.52520178525	2586.5
1054.12936102295	2544.25
1056.73269917742	2540.25
1059.33521671154	2541.25
1061.93691408729	2561.5
1064.53779176571	2534.25
1067.13785020694	2524.75
1069.73708987022	2554.25
1072.33551121386	2525.75
1074.93311469528	2504.75
1077.52990077103	2519.5
1080.12586989674	2508
1082.72102252714	2508.5
1085.31535911611	2521
1087.90888011663	2521.5
1090.50158598078	2490
1093.09347715979	2527.25
1095.68455410403	2486.75
1098.27481726296	2500.5
1100.86426708523	2522.25
1103.45290401857	2529.25
1106.04072850991	2547.5
1108.6277410053	2521.75
1111.21394194993	2525.5
1113.79933178816	2524
1116.3839109635	2534
1118.96767991862	2524.75
1121.55063909539	2547.75
1124.13278893477	2539.75
1126.71412987696	2549.5
1129.29466236132	2539.5
1131.87438682637	2549.5
1134.45330370982	2592.5
1137.03141344858	2568.25
1139.60871647872	2566.5
1142.18521323554	2594.75
1144.7609041535	2600.25
1147.33578966629	2634.75
1149.90987020676	2657.75
1152.48314620702	2684
1155.05561809835	2657.75
1157.62728631125	2667.25
1160.19815127545	2716.75
1162.76821341988	2812
1165.33747317271	2865.5
1167.90593096133	2877.75
1170.47358721235	2800.5
1173.04044235163	2744.25
1175.60649680425	2664.75
1178.17175099454	2598.75
1180.73620534607	2549.5
1183.29986028165	2575.75
1185.86271622336	2534.25
1188.42477359249	2555
1190.98603280964	2546
1193.54649429462	2509.75
1196.10615846653	2518.75
1198.66502574372	2498.75
1201.22309654385	2532.75
1203.78037128378	2527.25
1206.33685037971	2520
1208.89253424709	2497.5
1211.44742330063	2523.25
1214.00151795438	2550
1216.55481862163	2551.5
1219.10732571497	2583.5
1221.65903964631	2575.75
1224.20996082683	2541
1226.760089667	2546.25
1229.30942657664	2544.5
1231.85797196483	2517.5
1234.40572623998	2535.75
1236.95268980981	2581.25
1239.49886308136	2562
1242.04424646098	2589.25
1244.58884035435	2621.5
1247.13264516647	2657.25
1249.67566130166	2685.5
1252.21788916358	2730
1254.75932915524	2773.75
1257.29998167896	2735.25
1259.83984713639	2726.5
1262.37892592857	2669.25
1264.91721845586	2668.75
1267.45472511795	2688.5
1269.9914463139	2664.5
1272.52738244213	2656.75
1275.0625339004	2603
1277.59690108587	2616
1280.130484395	2626.75
1282.66328422367	2602.25
1285.19530096712	2605.25
1287.72653501993	2613.5
1290.25698677608	2621.25
1292.78665662894	2652.75
1295.31554497125	2611.75
1297.8436521951	2651.25
1300.37097869203	2650
1302.89752485292	2678.75
1305.42329106805	2659.25
1307.94827772713	2626.5
1310.47248521921	2597.5
1312.99591393279	2648.5
1315.51856425575	2613.5
1318.04043657536	2607
1320.56153127836	2636.5
1323.08184875083	2669.25
1325.6013893783	2673.75
1328.12015354572	2730.25
1330.63814163744	2740
1333.15535403727	2714
1335.67179112839	2705.25
1338.18745329347	2671
1340.70234091454	2639
1343.21645437314	2633.5
1345.72979405019	2664.5
1348.24236032607	2663.5
1350.75415358059	2665.5
1353.26517419303	2671
1355.7754225421	2713.5
1358.28489900594	2759.25
1360.79360396218	2731
1363.30153778787	2720.5
1365.80870085955	2687
1368.31509355319	2691.5
1370.82071624424	2699.75
1373.32556930762	2660
1375.8296531177	2674.25
1378.33296804832	2680
1380.83551447282	2702
1383.33729276399	2673.5
1385.83830329408	2686.5
1388.33854643489	2720
1390.83802255762	2688.5
1393.33673203301	2742.25
1395.83467523128	2761.25
1398.33185252211	2765.5
1400.82826427471	2740
1403.32391085777	2744.75
1405.81879263947	2705
1408.31290998752	2703.5
1410.80626326908	2637
1413.29885285087	2613
1415.79067909909	2626.75
1418.28174237944	2588.75
1420.77204305717	2587.25
1423.26158149702	2599.5
1425.75035806323	2588
1428.2383731196	2618.25
1430.72562702942	2657.75
1433.21212015554	2660.75
1435.69785286028	2701.75
1438.18282550555	2739
1440.66703845275	2676.5
1443.15049206284	2699.25
1445.6331866963	2686
1448.11512271316	2721.5
1450.59630047298	2781.5
1453.07672033486	2796.75
1455.55638265748	2799.25
1458.03528779902	2860
1460.51343611725	2862.5
1462.99082796946	2810.5
1465.46746371252	2765
1467.94334370285	2737
1470.41846829642	2694
1472.89283784878	2690.25
1475.36645271503	2653.25
1477.83931324983	2656
1480.31141980743	2680
1482.78277274164	2659.5
1485.25337240583	2677.5
1487.72321915297	2643
1490.19231333557	2619.25
1492.66065530578	2637.5
1495.12824541525	2629
1497.5950840153	2653.75
1500.06117145678	2636.75
1502.52650809014	2635.5
1504.99109426543	2657.75
1507.45493033227	2652.5
1509.91801663992	2672.25
1512.38035353717	2647
1514.84194137248	2654.5
1517.30278049386	2662
1519.76287124894	2672.5
1522.22221398497	2656.5
1524.68080904876	2636.75
1527.13865678681	2665.75
1529.59575754514	2620.75
1532.05211166945	2630.25
1534.50771950503	2631.25
1536.96258139678	2643.5
1539.41669768924	2639.25
1541.87006872656	2666
1544.32269485252	2654.75
1546.77457641051	2654.75
1549.22571374357	2682
1551.67610719434	2717.25
1554.12575710513	2694
1556.57466381785	2691
1559.02282767408	2706.25
1561.47024901499	2715.5
1563.91692818144	2729
1566.3628655139	2737
1568.80806135249	2740.25
1571.252516037	2723
1573.6962299068	2746.5
1576.13920330099	2748.75
1578.58143655828	2772.25
1581.02293001704	2783
1583.46368401528	2817.5
1585.90369889071	2868
1588.34297498065	2932
1590.7815126221	3044
1593.21931215173	3188
1595.65637390588	3280.75
1598.09269822053	3257.5
1600.52828543135	3261.25
1602.96313587367	3149
1605.3972498825	2993.5
1607.83062779252	2911.5
1610.26326993808	2842.75
1612.69517665322	2816.5
1615.12634827165	2787.25
1617.55678512676	2767.25
1619.98648755163	2736.25
1622.41545587902	2736.25
1624.84369044138	2726.5
1627.27119157085	2716
1629.69795959924	2757.75
1632.12399485808	2731.75
1634.54929767859	2767.5
1636.97386839165	2731.5
1639.39770732789	2727
1641.8208148176	2708
1644.24319119078	2740
1646.66483677715	2738.25
1649.0857519061	2758.5
1651.50593690677	2721.75
1653.92539210795	2748.5
1656.3441178382	2753.75
1658.76211442575	2765.25
1661.17938219855	2741.25
1663.59592148428	2773.25
1666.01173261032	2782.75
1668.42681590377	2802.75
1670.84117169145	2782.75
1673.25480029991	2803
1675.66770205541	2807.5
1678.07987728393	2804.75
1680.49132631119	2819.5
1682.90204946263	2810.75
1685.31204706342	2808.75
1687.72131943846	2842.25
1690.1298669124	2828.5
1692.53768980957	2843
1694.94478845411	2850.75
1697.35116316982	2820.75
1699.75681428031	2802
1702.16174210887	2814.75
1704.56594697858	2821
1706.96942921222	2817.5
1709.37218913235	2786
1711.77422706125	2785.5
1714.17554332098	2809
1716.5761382333	2821.5
1718.97601211977	2797.5
1721.37516530169	2780.25
1723.77359810006	2788.25
1726.17131083572	2839
1728.56830382922	2838.5
1730.96457740087	2795
1733.36013187075	2811.25
1735.75496755868	2779
1738.14908478428	2799.5
1740.54248386689	2783.25
1742.93516512565	2796.75
1745.32712887946	2791.5
1747.71837544697	2776.75
1750.10890514662	2774.25
1752.49871829661	2772.5
1754.88781521492	2782.75
1757.27619621929	2782.25
1759.66386162726	2793.75
1762.05081175612	2787.25
1764.43704692297	2803.25
1766.82256744465	2823.75
1769.20737363782	2815.5
1771.59146581887	2794
1773.97484430405	2827.25
1776.35750940932	2800.75
1778.73946145048	2799
1781.12070074309	2794.5
1783.50122760249	2841.5
1785.88104234385	2822.75
1788.26014528209	2834
1790.63853673196	2829.75
1793.01621700796	2838.5
1795.39318642443	2852
1797.76944529549	2856
1800.14499393503	2861.5
1802.51983265681	2855.25
1804.8939617743	2876.5
1807.26738160085	2859.5
1809.64009244957	2885
1812.01209463339	2833.75
1814.38338846504	2859.25
1816.75397425706	2868.5
1819.12385232181	2855.75
1821.49302297142	2854.5
1823.86148651789	2863.5
1826.22924327299	2854
1828.59629354831	2855
1830.96263765526	2880.75
1833.32827590507	2818.25
1835.69320860877	2875.25
1838.05743607724	2868.75
1840.42095862113	2862
1842.78377655097	2858.75
1845.14589017707	2830.25
1847.50729980956	2846.75
1849.86800575843	2865.5
1852.22800833346	2825.75
1854.58730784427	2865.5
1856.94590460032	2844.25
1859.30379891087	2884.25
1861.66099108503	2876.5
1864.01748143175	2872.5
1866.37327025978	2898.25
1868.72835787773	2859.75
1871.08274459403	2880.5
1873.43643071697	2864.75
1875.78941655464	2886.75
1878.14170241498	2896.75
1880.4932886058	2902
1882.84417543469	2908.25
1885.19436320915	2898.25
1887.54385223646	2908
1889.89264282378	2920.75
1892.24073527809	2936.25
1894.58812990625	2949
1896.93482701493	2944
1899.28082691067	2947
1901.62612989984	2986.75
1903.97073628868	2969.75
1906.31464638326	2966.5
1908.6578604895	2971.5
1911.00037891321	3005
1913.34220196	2993.75
1915.68332993537	2985
1918.02376314468	3031.75
1920.36350189311	2997.5
1922.70254648573	2975.75
1925.04089722744	3005
1927.37855442303	3018.75
1929.71551837715	3034.75
1932.05178939426	3013.75
1934.38736777876	3007.75
1936.72225383484	2987.75
1939.0564478666	3049.5
1941.38995017799	2987
1943.72276107283	3014.75
1946.05488085479	2992.25
1948.38630982744	3007
1950.71704829419	3011
1953.04709655832	3016.75
1955.376454923	3017.25
1957.70512369126	2983.75
1960.03310316599	2986.75
1962.36039364999	2995.75
1964.68699544589	2971.5
1967.01290885622	3004
1969.33813418338	3020.5
1971.66267172965	2986.5
1973.98652179718	2998.25
1976.309684688	3000.75
1978.63216070402	3010.5
1980.95395014705	3042.25
1983.27505331873	3005.75
1985.59547052063	3028.5
1987.9152020542	3042.25
1990.23424822074	3012.25
1992.55260932146	3051.75
1994.87028565746	3063
1997.18727752968	3041
1999.503585239	3064.75
2001.81920908618	3066.5
2004.13414937184	3105
2006.44840639651	3046.75
2008.7619804606	3110.5
2011.07487186442	3080.5
2013.38708090815	3110.75
2015.6986078919	3132.25
2018.00945311564	3088.75
2020.31961687923	3126.5
2022.62909948246	3167
2024.93790122498	3165
2027.24602240636	3133.25
2029.55346332604	3136.5
2031.86022428337	3160.5
2034.16630557761	3147.5
2036.47170750791	3174.5
2038.77643037331	3171
2041.08047447275	3179
2043.38384010509	3172.25
2045.68652756907	3194.5
2047.98853716335	3195.25
2050.28986918648	3179
2052.59052393692	3206
2054.89050171302	3209.5
2057.18980281306	3199.5
2059.4884275352	3221.5
2061.78637617753	3168
2064.08364903802	3179.25
2066.38024641457	3205
2068.67616860497	3212.5
2070.97141590694	3179
2073.26598861809	3209.75
2075.55988703595	3182.25
2077.85311145796	3203.5
2080.14566218145	3208.75
2082.43753950371	3165.5
2084.72874372188	3198
2087.01927513307	3178
2089.30913403428	3196.25
2091.59832072241	3191.75
2093.88683549429	3176.75
2096.17467864666	3218.5
2098.46185047619	3224.25
2100.74835127944	3201.25
2103.03418135292	3239.5
2105.31934099303	3207.75
2107.6038304961	3230.5
2109.88765015838	3252.75
2112.17080027602	3228.75
2114.45328114513	3243
2116.7350930617	3241.75
2119.01623632165	3274.5
2121.29671122085	3214.75
2123.57651805505	3279
2125.85565711996	3259.75
2128.13412871117	3252.5
2130.41193312424	3256.25
2132.68907065462	3328
2134.96554159771	3295.75
2137.24134624881	3267.25
2139.51648490317	3307.25
2141.79095785593	3328.25
2144.0647654022	3300
2146.33790783698	3316.25
2148.61038545524	3282.5
2150.88219855182	3328
2153.15334742154	3315.5
2155.42383235911	3371
2157.6936536592	3399.25
2159.9628116164	3340.5
2162.23130652522	3337
2164.49913868011	3364.5
2166.76630837544	3358.25
2169.03281590552	3365.25
2171.2986615646	3400.5
2173.56384564685	3375.5
2175.82836844637	3388.25
2178.0922302572	3385.75
2180.35543137332	3370.75
2182.61797208862	3415.25
2184.87985269695	3361
2187.14107349208	3389.25
2189.40163476773	3364.5
2191.66153681753	3394.75
2193.92077993507	3381
2196.17936441386	3358
2198.43729054735	3375.25
2200.69455862894	3388
2202.95116895194	3365.25
2205.20712180962	3387
2207.46241749519	3388.5
2209.71705630179	3404.5
2211.97103852248	3412.25
2214.2243644503	3390.75
2216.47703437819	3352.75
2218.72904859905	3371.75
2220.98040740571	3406.25
2223.23111109095	3401.25
2225.4811599475	3406.75
2227.73055426799	3435
2229.97929434504	3430
2232.22738047118	3386.75
2234.47481293889	3397.25
2236.72159204058	3431.25
2238.96771806864	3446.5
2241.21319131536	3410.25
2243.458012073	3413.5
2245.70218063374	3443
2247.94569728973	3460.5
2250.18856233304	3437
2252.4307760557	3398.25
2254.67233874967	3445
2256.91325070687	3418.5
2259.15351221915	3453
2261.39312357831	3470.25
2263.63208507611	3454
2265.87039700422	3451.75
2268.1080596543	3491
2270.34507331792	3468
2272.5814382866	3450
2274.81715485183	3480.75
2277.05222330502	3479.5
2279.28664393755	3458
2281.52041704072	3486.75
2283.75354290581	3444
2285.98602182401	3461.75
2288.21785408648	3480
2290.44903998434	3463.75
2292.67957980862	3459
2294.90947385033	3465.25
2297.1387224004	3476.25
2299.36732574975	3498
2301.59528418921	3494.75
2303.82259800958	3495.5
2306.04926750158	3479.75
2308.27529295593	3504.75
2310.50067466325	3512
2312.72541291412	3526.25
2314.9495079991	3455.25
2317.17296020866	3509.25
2319.39576983323	3506.5
2321.61793716322	3548.25
2323.83946248894	3477.5
2326.06034610069	3500.25
2328.28058828871	3523
2330.50018934317	3530.75
2332.7191495542	3537
2334.93746921192	3526.75
2337.15514860633	3509
2339.37218802743	3548.75
2341.58858776516	3497.5
2343.80434810941	3513.25
2346.01946935001	3492.25
2348.23395177675	3545.75
2350.44779567939	3543.25
2352.66100134759	3536.75
2354.87356907101	3516.5
2357.08549913925	3537
2359.29679184185	3499.75
2361.50744746829	3557.75
2363.71746630804	3497.5
2365.92684865048	3471.75
2368.13559478499	3517.75
2370.34370500083	3555.5
2372.55117958727	3512.25
2374.75801883352	3480.75
2376.96422302874	3487.5
2379.16979246202	3466
2381.37472742243	3501.75
2383.57902819898	3479
2385.78269508063	3498.25
2387.98572835629	3502.5
2390.18812831482	3476.75
2392.38989524505	3516.5
2394.59102943573	3517.25
2396.79153117559	3488.5
2398.9914007533	3492.75
2401.19063845748	3481
2403.38924457672	3509.25
2405.58721939951	3493.5
2407.78456321435	3486.5
2409.98127630966	3455.75
2412.17735897382	3528.25
2414.37281149517	3472.5
2416.56763416198	3487
2418.76182726249	3500.25
2420.95539108487	3500.5
2423.14832591726	3491.25
2425.34063204776	3492.5
2427.53230976439	3473
2429.72335935513	3492.75
2431.91378110795	3494.75
2434.10357531071	3506.5
2436.29274225125	3502.75
2438.48128221739	3454.25
2440.66919549683	3462.25
2442.8564823773	3475
2445.04314314641	3491
2447.22917809176	3469
2449.4145875009	3480.5
2451.59937166131	3483.25
2453.78353086044	3452.25
2455.96706538568	3453.75
2458.14997552436	3465
2460.33226156379	3435.75
2462.51392379119	3465.5
2464.69496249376	3423.25
2466.87537795862	3422
2469.05517047288	3372.75
2471.23434032357	3412.25
2473.41288779767	3468.5
2475.59081318211	3367.25
2477.76811676378	3431.25
2479.9447988295	3421.25
2482.12085966605	3411
2484.29629956016	3421.75
2486.4711187985	3399.25
2488.64531766769	3403
2490.8188964543	3435.5
2492.99185544484	3405.25
2495.16419492579	3425
2497.33591518353	3415.75
2499.50701650444	3399.5
2501.67749917482	3422.5
2503.84736348091	3449.75
2506.01660970891	3397.5
2508.18523814496	3418.25
2510.35324907514	3441
2512.52064278551	3421.75
2514.68741956201	3390.75
2516.85357969058	3460.25
2519.01912345709	3435.75
2521.18405114735	3427.25
2523.34836304711	3434.25
2525.51205944208	3431.5
2527.6751406179	3439.75
2529.83760686016	3416.25
2531.99945845439	3453
2534.16069568606	3469.5
2536.3213188406	3445.25
2538.48132820336	3394
2540.64072405965	3438.25
2542.79950669471	3446
2544.95767639373	3461
2547.11523344184	3472.75
2549.27217812411	3452.75
2551.42851072555	3479
2553.58423153111	3440.75
2555.73934082569	3415.75
2557.89383889412	3425.25
2560.04772602118	3438.5
2562.20100249158	3415.25
2564.35366858996	3389.75
2566.50572460093	3414.5
2568.65717080901	3395.25
2570.80800749867	3420.5
2572.95823495433	3403.5
2575.10785346031	3393.25
2577.25686330093	3398.25
2579.40526476038	3366.75
2581.55305812282	3376.5
2583.70024367237	3365.25
2585.84682169303	3364
2587.99279246879	3351.25
2590.13815628354	3365.25
2592.28291342112	3352.25
2594.42706416531	3363.25
2596.5706087998	3338
2598.71354760826	3346.5
2600.85588087425	3353.25
2602.99760888127	3358
2605.13873191278	3361.5
2607.27925025214	3296.25
2609.41916418269	3356.75
2611.55847398764	3321.25
2613.69717995017	3375.25
2615.83528235339	3363.5
2617.97278148034	3374.25
2620.10967761398	3338.25
2622.2459710372	3396.75
2624.38166203284	3382.75
2626.51675088365	3376.75
2628.65123787231	3363
2630.78512328145	3352.5
2632.9184073936	3371.25
2635.05109049124	3359
2637.18317285676	3345.5
2639.31465477248	3390
2641.44553652067	3395.5
2643.5758183835	3375.75
2645.70550064309	3416
2647.83458358144	3357.25
2649.96306748053	3402.5
2652.09095262223	3391.25
2654.21823928836	3427.75
2656.34492776063	3406
2658.47101832071	3397.25
2660.59651125015	3396.5
2662.72140683047	3380.5
2664.84570534309	3376.75
2666.96940706934	3367.25
2669.0925122905	3379.5
2671.21502128773	3384
2673.33693434215	3378.5
2675.45825173479	3390.5
2677.57897374658	3387
2679.69910065839	3373.25
2681.818632751	3384.25
2683.93757030511	3365.25
2686.05591360133	3372.75
2688.17366292021	3366.75
2690.29081854218	3359.5
2692.40738074762	3398.5
2694.52334981681	3363.5
2696.63872602995	3353.5
2698.75350966713	3380.25
2700.86770100841	3377.25
2702.98130033371	3358.25
2705.09430792289	3375.75
2707.20672405571	3371.75
2709.31854901185	3438
2711.42978307091	3415.5
2713.54042651238	3421
2715.65047961567	3431.25
2717.7599426601	3435.5
2719.86881592491	3477
2721.97709968924	3463.75
2724.08479423213	3473.25
2726.19189983255	3442.75
2728.29841676934	3437.5
2730.4043453213	3461.75
2732.5096857671	3423
2734.61443838532	3385
2736.71860345444	3410.25
2738.82218125286	3395.25
2740.92517205889	3424.75
2743.02757615072	3400
2745.12939380646	3394.5
2747.23062530411	3376.5
2749.33127092159	3416.75
2751.4313309367	3384.75
2753.53080562716	3377
2755.62969527058	3380.25
2757.72800014448	3391
2759.82572052625	3387.25
2761.92285669323	3363
2764.0194089226	3387.5
2766.11537749147	3395.75
2768.21076267686	3412.25
2770.30556475566	3370.5
2772.39978400465	3369.75
2774.49342070054	3348.75
2776.58647511991	3400.75
2778.67894753923	3382.25
2780.77083823487	3397
2782.8621474831	3366.25
2784.95287556007	3378.25
2787.04302274184	3375.5
2789.13258930433	3365
2791.22157552338	3363.25
2793.30998167471	3377.25
2795.39780803392	3423.5
2797.4850548765	3397.25
2799.57172247786	3378.75
2801.65781111324	3375.25
2803.74332105781	3390.5
2805.82825258661	3387
2807.91260597457	3388.5
2809.9963814965	3347.5
2812.07957942711	3388.25
2814.16220004096	3381
2816.24424361252	3388.5
2818.32571041614	3411.5
2820.40660072604	3427.25
2822.48691481631	3428
2824.56665296098	3490
2826.64581543388	3502
2828.72440250876	3551.75
2830.80241445925	3582
2832.87985155885	3724.5
2834.95671408093	3831.25
2837.03300229875	3969
2839.10871648544	4026.75
2841.18385691399	4021.5
2843.25842385729	3940.25
2845.33241758808	3803.5
2847.40583837898	3734.25
2849.4786865025	3700.25
2851.550962231	3659
2853.6226658367	3711.5
2855.69379759173	3711.5
2857.76435776806	3710.75
2859.83434663753	3841.5
2861.90376447184	4009.5
2863.97261154259	4181.25
2866.0408881212	4345.5
2868.10859447901	4387.25
2870.17573088717	4420
2872.24229761673	4378.5
2874.30829493859	4416.25
2876.37372312352	4462.75
2878.43858244215	4660.25
2880.50287316496	4722.5
2882.56659556231	4681.5
2884.62974990439	4746
2886.69233646129	4656.75
2888.75435550293	4541.5
2890.81580729909	4501.75
2892.87669211941	4351.5
2894.93701023339	4357
2896.99676191039	4284.5
2899.05594741961	4302.25
2901.1145670301	4368.75
2903.1726210108	4356.5
2905.23010963045	4507
2907.28703315768	4471
2909.34339186096	4452.5
2911.39918600861	4359.25
2913.45441586879	4240.5
2915.50908170952	4249.5
2917.56318379867	4262.5
2919.61672240395	4245
2921.66969779291	4208
2923.72211023295	4230.5
2925.77395999134	4207
2927.82524733515	4140.75
2929.87597253132	4042
2931.92613584663	3986
2933.97573754769	3897.5
2936.02477790097	3848
2938.07325717276	3797.25
2940.1211756292	3803
2942.16853353626	3808.75
2944.21533115976	3859.75
2946.26156876536	3920.5
2948.30724661853	4061
2950.3523649846	4172.75
2952.39692412872	4297.5
2954.44092431587	4474.25
2956.48436581089	4653.75
2958.52724887843	4898.5
2960.56957378296	5012.75
2962.6113407888	5045.75
2964.65255016011	4848.75
2966.69320216083	4671.75
2968.73329705479	4426.75
2970.77283510559	4223.25
2972.81181657671	4011.5
2974.8502417314	3880
2976.88811083279	3754.75
2978.92542414378	3725.5
2980.96218192713	3622.25
2982.99838444541	3629
2985.034031961	3582
2987.06912473612	3586
2989.1036630328	3514.75
2991.13764711288	3518
2993.17107723804	3516.75
2995.20395366974	3469
2997.23627666931	3510.5
2999.26804649782	3502.25
3001.29926341624	3557.75
3003.32992768528	3507.75
3005.3600395655	3496.5
3007.38959931726	3506.75
3009.41860720076	3495
3011.44706347595	3498
3013.47496840263	3498
3015.50232224041	3496.25
3017.5291252487	3529.75
3019.5553776867	3490.25
3021.58107981344	3518.5
3023.60623188773	3498
3025.63083416822	3520
3027.65488691331	3530
3029.67839038125	3531.25
3031.70134483007	3512
3033.72375051759	3523.5
3035.74560770144	3557
3037.76691663907	3525.25
3039.78767758768	3553
3041.80789080431	3527.5
3043.82755654577	3532.25
3045.84667506867	3541.25
3047.8652466294	3541.25
3049.88327148418	3529
3051.90074988899	3526.75
3053.91768209961	3492.75
3055.9340683716	3500.5
3057.94990896033	3532.25
3059.96520412095	3537.75
3061.97995410838	3558.75
3063.99415917734	3538.75
3066.00781958234	3473.75
3068.02093557766	3527.75
3070.03350741738	3478
3072.04553535535	3518
3074.05701964521	3533.5
3076.06796054036	3537.75
3078.078358294	3509.75
3080.08821315912	3516.5
3082.09752538846	3574
3084.10629523454	3483.75
3086.11452294967	3497.25
3088.12220878592	3539.75
3090.12935299515	3540
3092.13595582898	3520.75
3094.1420175388	3522.75
3096.14753837579	3497.5
3098.15251859088	3523.75
3100.15695843477	3554
3102.16085815793	3532.25
3104.16421801061	3520.5
3106.16703824282	3530
3108.16931910432	3522.25
3110.17106084464	3454
3112.17226371308	3548
3114.17292795872	3575.75
3116.17305383034	3518
3118.17264157657	3512.5
3120.17169144571	3540
3122.17020368587	3527
3124.16817854492	3541.25
3126.16561627044	3544.75
3128.16251710982	3573
3130.15888131017	3558.75
3132.15470911837	3577.5
3134.15000078104	3575.5
3136.14475654455	3580.5
3138.13897665502	3598.25
3140.13266135835	3594.25
3142.12581090014	3594.25
3144.11842552577	3609.25
3146.11050548036	3586.75
3148.10205100875	3586.25
3150.09306235557	3606.75
3152.08353976515	3570.25
3154.07348348158	3570
3156.06289374869	3577.5
3158.05177081006	3563.5
3160.04011490899	3567.25
3162.02792628852	3580.75
3164.01520519145	3552
3166.00195186029	3554
3167.98816653728	3597
3169.97384946442	3603.5
3171.95900088344	3587.5
3173.94362103577	3591.75
3175.92771016259	3562.75
3177.91126850484	3597
3179.89429630312	3574.5
3181.87679379782	3545.75
3183.85876122903	3612.75
3185.84019883657	3587
3187.82110685997	3635.25
3189.80148553851	3605.25
3191.78133511116	3631.75
3193.76065581664	3639.5
3195.73944789337	3636
3197.7177115795	3596
3199.6954471129	3595.75
3201.67265473114	3647.5
3203.64933467153	3626
3205.62548717107	3609.5
3207.60111246648	3603.75
3209.57621079421	3596.5
3211.55078239041	3622
3213.52482749093	3583.25
3215.49834633133	3605.75
3217.4713391469	3625.25
3219.44380617262	3615.75
3221.41574764317	3604
3223.38716379296	3615.25
3225.35805485607	3625.75
3227.32842106631	3639.5
3229.29826265718	3635.75
3231.26757986187	3614
3233.2363729133	3680
3235.20464204405	3641.5
3237.17238748643	3626
3239.13960947243	3663.5
3241.10630823374	3665
3243.07248400174	3676.5
3245.03813700748	3721.5
3247.00326748177	3698.75
3248.96787565503	3692
3250.93196175742	3721
3252.89552601877	3693.75
3254.8585686686	3726.5
3256.82108993612	3725
3258.78309005022	3721.25
3260.74456923948	3683.25
3262.70552773215	3715.25
3264.66596575617	3711.25
3266.62588353916	3689.25
3268.58528130843	3676.75
3270.54415929094	3677.5
3272.50251771336	3663.25
3274.46035680201	3710.5
3276.4176767829	3726.75
3278.37447788171	3657
3280.33076032379	3688
3282.28652433416	3640
3284.24177013751	3697.25
3286.1964979582	3683.75
3288.15070802027	3705.75
3290.10440054741	3707
3292.05757576298	3620.25
3294.01023389001	3692
3295.96237515119	3713.75
3297.91399976887	3685.25
3299.86510796506	3712.5
3301.81569996142	3710
3303.76577597932	3680
3305.7153362397	3717.75
3307.66438096324	3717.5
3309.61291037024	3680
3311.56092468064	3683.5
3313.50842411404	3668
3315.45540888971	3723
3317.40187922656	3695
3319.34783534315	3670.5
3321.29327745768	3679
3323.23820578801	3642
3325.18262055164	3689.25
3327.1265219657	3641.75
3329.06991024699	3684.75
3331.01278561194	3660.25
3332.95514827662	3669
3334.89699845674	3666.25
3336.83833636766	3646
3338.77916222434	3622
3340.71947624143	3646.75
3342.65927863317	3676.5
3344.59856961346	3621.5
3346.53734939584	3686
3348.47561819344	3653.75
3350.41337621906	3649.5
3352.35062368513	3685.75
3354.28736080368	3649
3356.22358778637	3650.5
3358.15930484452	3648
3360.09451218904	3686
3362.02921003047	3644.75
3363.96339857898	3684.25
3365.89707804436	3667.25
3367.83024863602	3670
3369.76291056299	3645.5
3371.69506403389	3664.75
3373.62670925699	3691.25
3375.55784644016	3687.5
3377.4884757909	3666
3379.41859751629	3708
3381.34821182305	3719.5
3383.27731891749	3694
3385.20591900555	3724.5
3387.13401229276	3698.75
3389.06159898426	3693.75
3390.9886792848	3697.25
3392.91525339872	3726.25
3394.84132152998	3724
3396.76688388213	3710.5
3398.69194065833	3731.75
3400.61649206133	3721
3402.54053829348	3709
3404.46407955672	3702.75
3406.3871160526	3683
3408.30964798225	3725.75
3410.23167554639	3738
3412.15319894535	3750.5
3414.07421837904	3701
3415.99473404695	3731.25
3417.91474614817	3730.75
3419.83425488136	3730
3421.75326044479	3755.5
3423.67176303631	3754.75
3425.58976285332	3715.75
3427.50726009282	3757.25
3429.42425495143	3741
3431.34074762528	3742
3433.25673831012	3733.5
3435.17222720127	3734
3437.08721449362	3771
3439.00170038164	3661.25
3440.91568505936	3756.25
3442.82916872039	3686.75
3444.74215155791	3726.5
3446.65463376468	3708.75
3448.566615533	3716.75
3450.47809705476	3701.75
3452.3890785214	3706.25
3454.29956012393	3716.25
3456.20954205293	3692
3458.11902449853	3673.25
3460.02800765041	3681
3461.93649169784	3696.5
3463.84447682962	3666.75
3465.75196323412	3670.5
3467.65895109925	3658.75
3469.56544061249	3656.75
3471.47143196086	3648.75
3473.37692533093	3664
3475.28192090884	3642.25
3477.18641888026	3690.25
3479.09041943039	3666.5
3480.99392274402	3678
3482.89692900545	3650
3484.79943839853	3652.75
3486.70145110666	3687.25
3488.60296731277	3667.75
3490.50398719933	3625.5
3492.40451094836	3615.25
3494.30453874141	3654.75
3496.20407075956	3672.75
3498.10310718342	3637
3500.00164819315	3684