200.090469251518	1202.80004882812
202.974751419362	1197
205.858021632263	1195.40002441406
208.740280737522	1199.59997558594
211.621529580443	1206
214.501769004371	1213.19995117188
217.380999850626	1209
220.25922295859	1199.40002441406
223.136439165646	1210.40002441406
226.012649307235	1208.80004882812
228.88785421682	1217.80004882812
231.762054725918	1231.19995117188
234.635251664113	1225.19995117188
237.507445859021	1221.59997558594
240.378638136346	1233.59997558594
243.248829319855	1236.80004882812
246.11802023137	1244
248.986211690826	1249.40002441406
251.853404516227	1255.80004882812
254.719599523654	1256.59997558594
257.584797527335	1265.40002441406
260.44899933954	1253.59997558594
263.312205770682	1254
266.174417629303	1255.80004882812
269.035635722015	1249
271.895860853609	1230.40002441406
274.755093826978	1248
277.613335443144	1268.80004882812
280.470586501309	1257.19995117188
283.326847798766	1259.19995117188
286.182120131019	1270
289.036404291684	1273.80004882812
291.889701072574	1264.80004882812
294.742011263643	1263.59997558594
297.593335653048	1268.19995117188
300.443675027094	1256.19995117188
303.293030170295	1269.40002441406
306.141401865367	1282.40002441406
308.988790893174	1268.59997558594
311.835198032837	1272.19995117188
314.680624061635	1290
317.525069755113	1280.80004882812
320.36853588697	1283.80004882812
323.211023229178	1266.40002441406
326.052532551923	1283
328.893064623604	1276.59997558594
331.732620210885	1274.40002441406
334.57120007867	1285.40002441406
337.408804990093	1278.19995117188
340.245435706565	1281.80004882812
343.081092987733	1293.59997558594
345.915777591523	1293.59997558594
348.749490274145	1304.40002441406
351.582231790049	1308.59997558594
354.414002891997	1296.59997558594
357.244804331021	1323.80004882812
360.074636856443	1309.40002441406
362.903501215886	1314.40002441406
365.731398155265	1312.59997558594
368.558328418814	1316.80004882812
371.384292749062	1335.80004882812
374.209291886869	1336.19995117188
377.033326571407	1339.80004882812
379.85639754017	1344
382.678505529009	1352
385.499651272065	1337.59997558594
388.319835501872	1355
391.139058949258	1359
393.957322343453	1380.19995117188
396.774626412011	1391.80004882812
399.590971880847	1413
402.406359474258	1412.59997558594
405.220789914893	1385.40002441406
408.034263923801	1389
410.8467822204	1375.40002441406
413.658345522483	1379.59997558594
416.468954546242	1380.19995117188
419.278610006277	1370
422.087312615557	1372.80004882812
424.895063085503	1371.80004882812
427.701862125901	1373.40002441406
430.507710444981	1391.59997558594
433.312608749366	1385.59997558594
436.116557744146	1389.40002441406
438.919558132791	1392.59997558594
441.721610617238	1388.19995117188
444.522715897856	1395.59997558594
447.322874673457	1400.19995117188
450.122087641299	1387.40002441406
452.920355497092	1418.40002441406
455.717678935009	1412.19995117188
458.514058647681	1403.59997558594
461.309495326219	1406.80004882812
464.103989660191	1402.80004882812
466.89754233765	1406.40002441406
469.690154045114	1406.40002441406
472.481825467625	1414.59997558594
475.272557288674	1399.59997558594
478.062350190281	1396.80004882812
480.851204852952	1417.59997558594
483.639121955683	1394.59997558594
486.426102176007	1414.19995117188
489.212146189955	1425
491.997254672093	1424.59997558594
494.781428295471	1433
497.564667731716	1440.40002441406
500.346973650958	1416.19995117188
503.128346721878	1436.80004882812
505.90878761169	1444.59997558594
508.688296986151	1435.40002441406
511.46687550957	1446.40002441406
514.244523844831	1450
517.021242653354	1462.19995117187
519.797032595132	1459.40002441406
522.571894328732	1456.40002441406
525.345828511279	1461.59997558594
528.11883579849	1474
530.890916844655	1457.40002441406
533.662072302668	1459.19995117187
536.432302823985	1465.19995117187
539.201609058684	1455
541.96999165542	1460.40002441406
544.737451261473	1453
547.503988522723	1438.59997558594
550.26960408366	1482.80004882813
553.034298587394	1466.59997558594
555.798072675669	1471
558.560926988819	1472.80004882813
561.322862165849	1466.80004882813
564.083878844369	1472.40002441406
566.843977660654	1479.80004882813
569.603159249604	1493.80004882813
572.361424244769	1474.40002441406
575.118773278369	1491.80004882813
577.87520698124	1506.40002441406
580.630725982905	1506.19995117187
583.385330911566	1505.40002441406
586.139022394076	1531
588.891801055954	1539.59997558594
591.643667521406	1549.40002441406
594.394622413318	1550.80004882813
597.144666353273	1551.19995117187
599.893799961512	1534
602.64202385701	1545
605.389338657413	1519.40002441406
608.135744979089	1531
610.881243437092	1521.40002441406
613.625834645191	1512.80004882813
616.369519215881	1515
619.112297760374	1521.80004882813
621.854170888604	1515.80004882813
624.595139209225	1514
627.335203329614	1515.40002441406
630.074363855914	1509.19995117187
632.81262139299	1517.19995117187
635.549976544436	1519.80004882813
638.286429912612	1535.19995117187
641.021982098635	1524.59997558594
643.756633702364	1532.80004882813
646.49038532241	1540
649.223237556176	1526
651.955190999808	1525.59997558594
654.686246248224	1534.80004882813
657.416403895135	1544.80004882813
660.145664533011	1561.59997558594
662.874028753133	1563.80004882813
665.601497145537	1554.80004882813
668.328070299071	1576.80004882813
671.05374880138	1583.40002441406
673.778533238885	1602.19995117187
676.502424196839	1649.19995117187
679.225422259297	1658.80004882813
681.947528009099	1636
684.668742027927	1624.59997558594
687.389064896281	1595.80004882813
690.108497193465	1587.19995117187
692.827039497621	1601.80004882813
695.544692385724	1585.80004882813
698.261456433585	1596.59997558594
700.977332215847	1591.40002441406
703.692320305981	1585.19995117187
706.406421276337	1569.19995117187
709.11963569808	1585.40002441406
711.831964141256	1597.80004882813
714.54340717474	1596.19995117187
717.253965366304	1604.40002441406
719.963639282552	1586.59997558594
722.672429488961	1602.40002441406
725.380336549904	1600
728.087361028596	1598.40002441406
730.793503487166	1614.59997558594
733.498764486594	1595.19995117187
736.203144586758	1612.80004882813
738.906644346447	1632.59997558594
741.60926432331	1645.40002441406
744.311005073912	1642
747.011867153727	1667
749.711851117121	1650.19995117187
752.410957517375	1660.80004882813
755.109186906677	1644.19995117187
757.806539836132	1629.19995117187
760.503016855779	1650.80004882813
763.198618514551	1662.59997558594
765.893345360346	1650.80004882813
768.587197939964	1649.80004882813
771.28017679914	1640.80004882813
773.972282482566	1677.59997558594
776.663515533859	1650.19995117187
779.353876495581	1651.19995117187
782.043365909241	1656.80004882813
784.731984315327	1650.80004882813
787.419732253235	1669.59997558594
790.106610261366	1650.19995117187
792.792618877058	1654
795.477758636618	1668.19995117187
798.162030075313	1692.59997558594
800.845433727423	1688.40002441406
803.52797012615	1692.80004882813
806.209639803714	1739.59997558594
808.890443291304	1745.40002441406
811.570381119098	1730
814.249453816265	1715
816.927661910959	1690.59997558594
819.60500593036	1696.59997558594
822.281486400603	1691.80004882813
824.957103846864	1716.19995117187
827.631858793316	1720.40002441406
830.305751763135	1718
832.978783278519	1772.40002441406
835.650953860677	1764.59997558594
838.322264029848	1782.19995117187
840.992714305292	1791.80004882813
843.662305205289	1799.19995117187
846.331037247157	1757.80004882813
848.998910947241	1759.80004882813
851.665926820933	1729.19995117187
854.332085382674	1745
856.997387145915	1711.80004882813
859.661832623191	1722.40002441406
862.325422326066	1719.40002441406
864.988156765172	1699
867.650036450181	1722.40002441406
870.311061889846	1722.80004882813
872.971233591961	1708.19995117187
875.630552063409	1699.80004882813
878.28901781013	1727.40002441406
880.946631337138	1729.59997558594
883.603393148533	1718.40002441406
886.259303747484	1720.80004882813
888.914363636246	1733.40002441406
891.568573316155	1722.80004882813
894.22193328767	1711.59997558594
896.874444050281	1721.59997558594
899.526106102625	1731.19995117187
902.176919942416	1740.80004882813
904.826886066483	1717.59997558594
907.476004970747	1749
910.124277150255	1756.59997558594
912.77170309913	1737.80004882813
915.418283310642	1756.40002441406
918.064018277175	1757.40002441406
920.708908490222	1739
923.352954440405	1765.59997558594
925.996156617486	1755.19995117187
928.638515510334	1750.40002441406
931.280031606966	1749.40002441406
933.920705394521	1780.40002441406
936.560537359303	1760.80004882813
939.199527986737	1770.80004882813
941.837677761392	1775.59997558594
944.474987167006	1757
947.111456686438	1777.40002441406
949.747086801734	1808.19995117187
952.38187799407	1779.80004882813
955.015830743792	1798.40002441406
957.648945530418	1787.59997558594
960.281222832633	1789
962.91266312826	1777.40002441406
965.543266894336	1793.40002441406
968.173034607058	1795.40002441406
970.801966741779	1801.19995117187
973.43006377307	1792.59997558594
976.057326174661	1795.80004882813
978.683754419471	1803.59997558594
981.309348979623	1804.40002441406
983.93411032642	1786.40002441406
986.558038930361	1786
989.181135261144	1793.59997558594
991.803399787692	1812
994.424832978086	1829.40002441406
997.045435299653	1859.19995117187
999.665207218906	1878.40002441406
1002.2841492016	1858.19995117187
1004.90226171266	1841
1007.51954521628	1816
1010.13600017584	1828.80004882813
1012.75162705397	1817.40002441406
1015.3664263125	1818.59997558594
1017.9803984125	1818
1020.5935438143	1835
1023.20586297741	1820
1025.81735636063	1844.19995117187
1028.42802442196	1850.80004882813
1031.03786761869	1881.80004882813
1033.64688640732	1867
1036.2550812436	1867.19995117187
1038.86245258255	1862.19995117187
1041.46900087844	1861
1044.07472658479	1847.80004882813
1046.67963015438	1858.40002441406
1049.28371203927	1830.19995117187
1051.88697269075	1844.59997558594
1054.48941255943	1851.59997558594
1057.09103209513	1847.59997558594
1059.691831747	1846.59997558594
1062.29181196343	1828.19995117187
1064.89097319211	1853.40002441406
1067.48931587999	1859
1070.08684047333	1827
1072.68354741766	1829
1075.27943715779	1827
1077.87451013787	1829.80004882813
1080.46876680127	1845.19995117187
1083.06220759071	1840.40002441406
1085.65483294822	1819.59997558594
1088.24664331509	1848.40002441406
1090.83763913194	1834.40002441406
1093.42782083869	1845.19995117187
1096.01718887459	1842.80004882813
1098.60574367818	1831.59997558594
1101.19348568732	1842.59997558594
1103.78041533919	1837
1106.3665330703	1857.80004882813
1108.95183931646	1876.80004882813
1111.53633451284	1859.19995117187
1114.12001909391	1843.59997558594
1116.70289349349	1885.59997558594
1119.2849581447	1863.80004882813
1121.86621348005	1862.40002441406
1124.44665993134	1870.80004882813
1127.02629792973	1873.59997558594
1129.60512790574	1876.19995117187
1132.18315028919	1891.19995117187
1134.76036550929	1901.59997558594
1137.3367739946	1930.19995117187
1139.912376173	1953.40002441406
1142.48717247176	1981.80004882813
1145.06116331748	1961
1147.63434913616	1943
1150.20673035312	1939.19995117187
1152.77830739307	1969.59997558594
1155.34908068007	1942.80004882813
1157.91905063757	1939.40002441406
1160.48821768838	1930.40002441406
1163.05658225471	1918.19995117187
1165.6241447581	1923
1168.19090561951	1919.80004882813
1170.75686525927	1917
1173.32202409708	1905.59997558594
1175.88638255206	1906.19995117187
1178.44994104269	1893.80004882813
1181.01269998684	1891.80004882813
1183.57465980182	1887
1186.13582090427	1908.59997558594
1188.69618371026	1911.40002441406
1191.25574863529	1892
1193.8145160942	1905
1196.37248650129	1918.40002441406
1198.92966027025	1911.19995117187
1201.48603781416	1893.40002441406
1204.04161954556	1893.80004882813
1206.59640587635	1897.59997558594
1209.15039721788	1896.19995117187
1211.70359398092	1918.59997558594
1214.25599657564	1915.19995117187
1216.80760541166	1900.80004882813
1219.35842089801	1935
1221.90844344314	1909.80004882813
1224.45767345496	1895
1227.00611134077	1882.19995117187
1229.55375750736	1907.40002441406
1232.10061236092	1906.80004882813
1234.64667630707	1890.59997558594
1237.1919497509	1888.59997558594
1239.73643309692	1889.80004882813
1242.28012674912	1886.59997558594
1244.82303111089	1891.59997558594
1247.36514658511	1924.19995117187
1249.9064735741	1897
1252.44701247964	1908.59997558594
1254.98676370294	1931.59997558594
1257.52572764469	1917.40002441406
1260.06390470506	1929.19995117187
1262.60129528365	1933.40002441406
1265.13789977954	1921.59997558594
1267.67371859128	1933.40002441406
1270.20875211688	1949.59997558594
1272.74300075384	1932.40002441406
1275.2764648991	1946.59997558594
1277.80914494911	1966.80004882813
1280.34104129978	1954.40002441406
1282.87215434652	1957.80004882813
1285.40248448419	1961.59997558594
1287.93203210715	1960
1290.46079760927	1971.19995117187
1292.98878138385	1962.80004882813
1295.51598382375	1980.80004882813
1298.04240532127	1976
1300.56804626822	2002.80004882813
1303.09290705593	1984.40002441406
1305.6169880752	1987
1308.14028971632	1979.59997558594
1310.66281236913	1976.59997558594
1313.18455642292	2002.59997558594
1315.70552226653	1995
1318.22571028829	2008.59997558594
1320.74512087603	2032.80004882813
1323.26375441711	2048.60009765625
1325.7816112984	2094.39990234375
1328.29869190629	2122.19995117187
1330.81499662666	2134.39990234375
1333.33052584497	2156
1335.84527994613	2167.19995117187
1338.35925931464	2174.19995117187
1340.87246433446	2169.60009765625
1343.38489538916	2109
1345.89655286177	2109.80004882813
1348.40743713487	2063.80004882813
1350.91754859059	2078.80004882813
1353.42688761059	2075.60009765625
1355.93545457606	2068
1358.44324986772	2093.60009765625
1360.95027386588	2060
1363.45652695032	2061
1365.96200950042	2069
1368.4667218951	2084.39990234375
1370.97066451281	2053.39990234375
1373.47383773156	2050.60009765625
1375.97624192891	2050.19995117187
1378.47787748199	2046.80004882813
1380.97874476746	2048
1383.47884416157	2039
1385.97817604009	2012
1388.4767407784	2032.40002441406
1390.9745387514	2006
1393.47157033358	2005
1395.96783589898	2008.80004882813
1398.46333582124	2010.80004882813
1400.95807047354	2009
1403.45204022864	2022.59997558594
1405.94524545889	2017.59997558594
1408.4376865362	2015.59997558594
1410.92936383205	2013.40002441406
1413.42027771752	2047.59997558594
1415.91042856328	2009.80004882813
1418.39981673955	2031.80004882813
1420.88844261615	2041.19995117187
1423.37630656249	2045.19995117187
1425.86340894757	2040
1428.34975013999	2086
1430.83533050792	2080.19995117187
1433.32015041912	2108.19995117187
1435.80421024098	2087.60009765625
1438.28751034045	2141.39990234375
1440.77005108411	2137.39990234375
1443.25183283812	2174.60009765625
1445.73285596824	2228.80004882813
1448.21312083984	2264.60009765625
1450.69262781791	2243.19995117187
1453.17137726702	2247.60009765625
1455.64936955137	2211.60009765625
1458.12660503477	2204.80004882813
1460.60308408063	2197.60009765625
1463.07880705197	2170.19995117187
1465.55377431145	2162.60009765625
1468.02798622133	2137.39990234375
1470.50144314348	2139.39990234375
1472.97414543941	2114.39990234375
1475.44609347024	2132.80004882813
1477.91728759673	2110.19995117187
1480.38772817924	2135.39990234375
1482.85741557777	2118.80004882813
1485.32635015194	2081.60009765625
1487.79453226103	2099.60009765625
1490.26196226391	2109.19995117187
1492.72864051911	2107.60009765625
1495.1945673848	2097.80004882813
1497.65974321874	2105.60009765625
1500.1241683784	2090.19995117187
1502.58784322083	2105.60009765625
1505.05076810274	2106.39990234375
1507.51294338049	2118.19995117187
1509.97436941009	2158.80004882813
1512.43504654717	2160.60009765625
1514.89497514704	2228
1517.35415556462	2287
1519.81258815451	2388.19995117187
1522.27027327095	2400.80004882813
1524.72721126784	2411.80004882813
1527.18340249874	2357.60009765625
1529.63884731684	2256.60009765625
1532.09354607502	2174.60009765625
1534.5474991258	2188.19995117187
1537.00070682136	2135.80004882813
1539.45316951355	2147.19995117187
1541.90488755388	2126
1544.35586129353	2106.60009765625
1546.80609108336	2139.39990234375
1549.25557727385	2141.60009765625
1551.70432021519	2127.19995117187
1554.15232025725	2136.19995117187
1556.59957774953	2144
1559.04609304125	2170.39990234375
1561.49186648127	2162.80004882813
1563.93689841815	2144
1566.38118920011	2158.60009765625
1568.82473917506	2166.60009765625
1571.2675486906	2149.60009765625
1573.70961809399	2174.80004882813
1576.15094773219	2171.19995117187
1578.59153795184	2184.60009765625
1581.03138909928	2179.60009765625
1583.47050152051	2185.60009765625
1585.90887556123	2205.19995117187
1588.34651156686	2172.39990234375
1590.78340988246	2187.80004882813
1593.21957085283	2198
1595.65499482245	2206.60009765625
1598.08968213547	2202.60009765625
1600.52363313578	2176
1602.95684816694	2197.60009765625
1605.38932757224	2198.39990234375
1607.82107169462	2182.39990234375
1610.25208087677	2166.60009765625
1612.68235546107	2176.80004882813
1615.1118957896	2150.60009765625
1617.54070220415	2154.39990234375
1619.96877504621	2164.80004882813
1622.39611465701	2139.39990234375
1624.82272137746	2165.60009765625
1627.24859554818	2136.19995117187
1629.67373750953	2108.19995117187
1632.09814760155	2133.80004882813
1634.52182616404	2137.39990234375
1636.94477353647	2160.80004882813
1639.36699005806	2132
1641.78847606776	2143.19995117187
1644.20923190418	2109.39990234375
1646.62925790573	2147.19995117187
1649.04855441048	2142.60009765625
1651.46712175628	2156.39990234375
1653.88496028066	2178.39990234375
1656.3020703209	2168
1658.71845221401	2150.19995117187
1661.13410629671	2178.19995117187
1663.54903290547	2177.80004882813
1665.96323237649	2177.60009765625
1668.37670504571	2191.19995117187
1670.78945124877	2188.39990234375
1673.20147132109	2190.80004882813
1675.61276559779	2216.19995117187
1678.02333441377	2206.60009765625
1680.43317810362	2203.39990234375
1682.84229700171	2236
1685.25069144213	2215.80004882813
1687.65836175872	2221.80004882813
1690.06530828507	2236.80004882813
1692.47153135451	2209.19995117187
1694.87703130009	2239
1697.28180845467	2237.80004882813
1699.6858631508	2225.60009765625
1702.08919572081	2246.19995117187
1704.49180649676	2251.60009765625
1706.89369581049	2245.60009765625
1709.29486399355	2261.80004882813
1711.69531137731	2239.80004882813
1714.09503829282	2242.60009765625
1716.49404507095	2241
1718.89233204229	2263.39990234375
1721.28989953721	2258
1723.68674788581	2272.60009765625
1726.08287741798	2251.19995117187
1728.47828846338	2239.19995117187
1730.87298135139	2249.39990234375
1733.26695641119	2246
1735.66021397173	2273.39990234375
1738.05275436169	2248.60009765625
1740.44457790954	2214.80004882813
1742.83568494354	2257.60009765625
1745.22607579168	2237.60009765625
1747.61575078175	2232
1750.00471024128	2248
1752.39295449761	2264.39990234375
1754.78048387783	2245.39990234375
1757.16729870881	2268.39990234375
1759.5533993172	2262.80004882813
1761.93878602942	2269.60009765625
1764.32345917168	2257.19995117187
1766.70741906995	2253
1769.09066604999	2274
1771.47320043735	2277.19995117187
1773.85502255735	2281.39990234375
1776.2361327351	2279.39990234375
1778.61653129548	2288.19995117187
1780.99621856318	2293.80004882813
1783.37519486264	2303.80004882813
1785.75346051813	2298
1788.13101585368	2320.60009765625
1790.5078611931	2304.80004882813
1792.88399686002	2345.80004882813
1795.25942317785	2312.60009765625
1797.63414046977	2332
1800.00814905878	2343.39990234375
1802.38144926766	2335
1804.75404141898	2317
1807.12592583514	2339.80004882813
1809.49710283829	2361.80004882813
1811.86757275039	2347.60009765625
1814.23733589322	2352.39990234375
1816.60639258834	2328.19995117187
1818.97474315712	2344.19995117187
1821.34238792073	2352
1823.70932720012	2320.60009765625
1826.07556131608	2368.80004882813
1828.44109058918	2337.39990234375
1830.8059153398	2361
1833.17003588812	2330.39990234375
1835.53345255413	2331
1837.89616565765	2372.80004882813
1840.25817551827	2347.60009765625
1842.61948245541	2338.19995117187
1844.9800867883	2335.80004882813
1847.33998883598	2359
1849.69918891729	2358.60009765625
1852.05768735091	2376.60009765625
1854.4154844553	2376.39990234375
1856.77258054875	2374
1859.12897594938	2378.60009765625
1861.4846709751	2338.39990234375
1863.83966594366	2337.60009765625
1866.19396117261	2367.39990234375
1868.54755697932	2371
1870.90045368099	2387.80004882813
1873.25265159463	2346.60009765625
1875.60415103708	2375.80004882813
1877.95495232501	2385.80004882813
1880.30505577486	2398.60009765625
1882.65446170299	2417.80004882813
1885.00317042548	2443.39990234375
1887.35118225832	2415.60009765625
1889.69849751726	2427.80004882813
1892.04511651792	2414.80004882813
1894.39103957574	2445.80004882813
1896.73626700596	2443.80004882813
1899.08079912368	2457.60009765625
1901.42463624384	2466.80004882813
1903.76777868116	2468.39990234375
1906.11022675025	2459.19995117187
1908.4519807655	2481.19995117187
1910.79304104117	2472.39990234375
1913.13340789134	2491
1915.47308162992	2453.39990234375
1917.81206257067	2473.39990234375
1920.15035102718	2502.39990234375
1922.48794731286	2470
1924.82485174096	2485.60009765625
1927.16106462461	2486.60009765625
1929.49658627672	2502.19995117187
1931.83141701008	2493.60009765625
1934.1655571373	2471.19995117187
1936.49900697085	2509.19995117187
1938.83176682301	2509
1941.16383700594	2506.80004882813
1943.49521783161	2512.60009765625
1945.82590961186	2493.80004882813
1948.15591265835	2483
1950.48522728262	2521.19995117187
1952.81385379602	2488.19995117187
1955.14179250976	2483.39990234375
1957.46904373489	2490
1959.79560778233	2500
1962.12148496284	2478.60009765625
1964.44667558701	2508.80004882813
1966.77117996529	2492
1969.09499840799	2510.39990234375
1971.41813122527	2538.19995117187
1973.74057872714	2516.60009765625
1976.06234122345	2527.19995117187
1978.38341902391	2523.80004882813
1980.7038124381	2533.60009765625
1983.02352177543	2551.19995117187
1985.34254734518	2541.60009765625
1987.66088945649	2537.19995117187
1989.97854841833	2535.60009765625
1992.29552453956	2565.80004882813
1994.61181812887	2534.80004882813
1996.92742949483	2586.39990234375
1999.24235894586	2557.19995117187
2001.55660679023	2612.19995117187
2003.87017333608	2566.60009765625
2006.18305889143	2591.80004882813
2008.49526376413	2602
2010.80678826189	2625
2013.1176326923	2603.80004882813
2015.42779736282	2609.19995117187
2017.73728258075	2606.60009765625
2020.04608865326	2613.60009765625
2022.3542158874	2627.60009765625
2024.66166459008	2641
2026.96843506807	2643.39990234375
2029.274527628	2657
2031.57994257637	2691.60009765625
2033.88468021957	2649.80004882813
2036.18874086383	2669.80004882813
2038.49212481526	2669.19995117187
2040.79483237983	2666.60009765625
2043.0968638634	2663.19995117187
2045.39821957169	2674.60009765625
2047.69889981028	2686.60009765625
2049.99890488462	2682.19995117187
2052.29823510006	2673.19995117187
2054.59689076181	2684
2056.89487217492	2680.19995117187
2059.19217964437	2682.19995117187
2061.48881347497	2684.19995117187
2063.7847739714	2691.39990234375
2066.08006143826	2693.39990234375
2068.37467618	2685.60009765625
2070.66861850093	2687.19995117187
2072.96188870527	2690.19995117187
2075.25448709707	2699
2077.54641398031	2708.60009765625
2079.83766965881	2707.19995117187
2082.12825443629	2708.60009765625
2084.41816861634	2715
2086.70741250242	2716.19995117187
2088.99598639789	2713.19995117187
2091.28389060597	2701.60009765625
2093.57112542978	2683.39990234375
2095.85769117232	2707
2098.14358813644	2723.80004882813
2100.42881662491	2718.39990234375
2102.71337694037	2732.60009765625
2104.99726938532	2711.60009765625
2107.28049426219	2718.39990234375
2109.56305187325	2746.60009765625
2111.84494252069	2727.80004882813
2114.12616650655	2750.80004882813
2116.40672413278	2737.39990234375
2118.68661570121	2753.60009765625
2120.96584151355	2786
2123.24440187138	2796.60009765625
2125.52229707622	2777.80004882813
2127.79952742943	2775.39990234375
2130.07609323227	2784.39990234375
2132.35199478588	2789
2134.62723239132	2817.39990234375
2136.90180634949	2813.60009765625
2139.17571696123	2816
2141.44896452723	2805.60009765625
2143.72154934809	2807.39990234375
2145.99347172429	2837.60009765625
2148.26473195623	2862.60009765625
2150.53533034415	2844
2152.80526718821	2885.19995117188
2155.07454278848	2869
2157.3431574449	2839.80004882813
2159.61111145728	2854.60009765625
2161.87840512538	2850.39990234375
2164.1450387488	2872.39990234375
2166.41101262707	2888.80004882812
2168.67632705959	2874.39990234375
2170.94098234567	2897.19995117188
2173.20497878451	2895.80004882812
2175.46831667519	2887.60009765625
2177.73099631672	2879.19995117187
2179.99301800797	2884.80004882812
2182.25438204772	2907
2184.51508873466	2904
2186.77513836735	2884.39990234375
2189.03453124427	2898.19995117188
2191.29326766378	2893.19995117188
2193.55134792416	2908.39990234375
2195.80877232355	2938.80004882812
2198.06554116004	2926.80004882812
2200.32165473157	2941.60009765625
2202.577113336	2908.60009765625
2204.83191727111	2902.80004882812
2207.08606683453	2918.80004882812
2209.33956232384	2919.60009765625
2211.59240403648	2923.80004882812
2213.84459226982	2895.80004882812
2216.09612732112	2949
2218.34700948753	2886.39990234375
2220.59723906612	2909.19995117188
2222.84681635385	2940.19995117188
2225.09574164758	2914.39990234375
2227.34401524408	2939.80004882812
2229.59163744002	2958.39990234375
2231.83860853197	2958
2234.08492881639	2933.19995117188
2236.33059858968	2920.19995117188
2238.5756181481	2967
2240.81998778784	2989.39990234375
2243.06370780499	2943.60009765625
2245.30677849555	2950.80004882812
2247.54920015539	2940
2249.79097308033	2972.19995117188
2252.03209756607	2962.60009765625
2254.27257390822	2956.39990234375
2256.51240240228	2953.60009765625
2258.75158334369	2976.19995117188
2260.99011702777	2982.19995117188
2263.22800374976	2984
2265.46524380477	3006.60009765625
2267.70183748786	2996.39990234375
2269.93778509399	3023.60009765625
2272.17308691801	2985.60009765625
2274.40774325467	2984.39990234375
2276.64175439866	2990.80004882812
2278.87512064454	3031.60009765625
2281.10784228682	2989.80004882812
2283.33991961987	2993
2285.571352938	3032.80004882812
2287.80214253541	2983.19995117188
2290.03228870623	2998.80004882812
2292.26179174449	3019.39990234375
2294.4906519441	3043.60009765625
2296.71886959892	3030.19995117188
2298.9464450027	2991.60009765625
2301.1733784491	3022.60009765625
2303.39967023169	3026.80004882812
2305.62532064395	3032.19995117188
2307.85032997926	3001.60009765625
2310.07469853093	3031.60009765625
2312.29842659216	3015.80004882812
2314.52151445608	3029.39990234375
2316.7439624157	3010
2318.96577076397	3053
2321.18693979374	3062.19995117188
2323.40746979777	3046.80004882812
2325.62736106873	3031
2327.8466138992	3042.60009765625
2330.06522858166	3053.80004882812
2332.28320540853	3062.60009765625
2334.50054467212	3053.19995117188
2336.71724666465	3048.60009765625
2338.93331167827	3051
2341.14874000501	3051
2343.36353193685	3031.60009765625
2345.57768776564	3037.39990234375
2347.79120778319	3034
2350.00409228117	3054
2352.21634155121	3083.80004882812
2354.42795588482	3048.80004882812
2356.63893557342	3043.19995117188
2358.84928090838	3060.80004882812
2361.05899218094	3030.19995117188
2363.26806968228	3063.60009765625
2365.47651370347	3081
2367.68432453552	3065
2369.89150246933	3064.80004882812
2372.09804779571	3030
2374.30396080541	3051
2376.50924178907	3051.80004882812
2378.71389103725	3050
2380.91790884042	3058.60009765625
2383.12129548897	3041.80004882812
2385.3240512732	3032.19995117188
2387.52617648332	3022.19995117188
2389.72767140946	3015.80004882812
2391.92853634165	3035
2394.12877156985	3051.39990234375
2396.32837738392	3046
2398.52735407365	3063
2400.72570192873	3024.39990234375
2402.92342123875	3036.80004882812
2405.12051229325	3038.39990234375
2407.31697538167	3025.80004882812
2409.51281079333	3050.80004882812
2411.70801881751	3053.60009765625
2413.90259974339	3027
2416.09655386004	3046.39990234375
2418.28988145648	3020
2420.48258282162	3049.60009765625
2422.6746582443	3025.39990234375
2424.86610801325	3063.80004882812
2427.05693241713	3028.19995117188
2429.24713174452	3014.19995117188
2431.43670628389	3035
2433.62565632365	3048.60009765625
2435.81398215212	3027.60009765625
2438.00168405752	3016.19995117188
2440.18876232799	3021.60009765625
2442.37521725158	3020
2444.56104911628	3039.19995117188
2446.74625820994	3032
2448.93084482038	3004.39990234375
2451.1148092353	3013.60009765625
2453.29815174233	3001.19995117188
2455.480872629	3019.19995117188
2457.66297218275	2990.19995117188
2459.84445069097	2984.39990234375
2462.02530844092	3008.80004882812
2464.2055457198	3000
2466.38516281471	2988.80004882812
2468.56416001267	2987.80004882812
2470.74253760061	2986.19995117188
2472.92029586537	2973
2475.09743509372	2993.60009765625
2477.27395557232	2984.60009765625
2479.44985758777	3029.80004882812
2481.62514142655	2987.39990234375
2483.79980737508	2979.60009765625
2485.97385571969	2987.80004882812
2488.14728674661	2962
2490.32010074198	2958.19995117188
2492.49229799188	2979
2494.66387878228	2982.19995117188
2496.83484339905	2994.60009765625
2499.00519212802	3002.39990234375
2501.17492525488	2988.60009765625
2503.34404306528	2991.60009765625
2505.51254584473	3015.39990234375
2507.6804338787	3006.80004882812
2509.84770745254	3000.60009765625
2512.01436685153	3024
2514.18041236085	2993.39990234375
2516.34584426561	3017.80004882812
2518.51066285081	3010
2520.67486840138	3048.19995117188
2522.83846120214	3026.60009765625
2525.00144153784	3020.80004882812
2527.16380969314	3036.80004882812
2529.32556595261	3019.19995117188
2531.48671060072	3034.80004882812
2533.64724392186	3023.19995117188
2535.80716620033	3032
2537.96647772034	3031
2540.12517876602	3037.19995117188
2542.2832696214	3025
2544.44075057041	3017.60009765625
2546.59762189691	3001.60009765625
2548.75388388466	3019.60009765625
2550.90953681735	3021.60009765625
2553.06458097853	3030.80004882812
2555.21901665172	3003.60009765625
2557.37284412031	3018.60009765625
2559.5260636676	3006.19995117188
2561.67867557684	2997
2563.83068013113	2980.19995117188
2565.98207761351	3010.19995117188
2568.13286830695	3032.19995117188
2570.28305249429	2986.60009765625
2572.43263045829	2991.39990234375
2574.58160248163	2969.80004882812
2576.72996884689	2967
2578.87772983655	2957.39990234375
2581.02488573303	3024.39990234375
2583.1714368186	3011.80004882812
2585.31738337549	2976.19995117188
2587.46272568582	2965
2589.60746403161	2961.60009765625
2591.75159869479	2977.19995117188
2593.89512995722	2997.60009765625
2596.03805810061	2973.39990234375
2598.18038340665	2980.19995117188
2600.32210615686	2980.39990234375
2602.46322663274	2967.60009765625
2604.60374511563	2952.39990234375
2606.74366188683	2943.60009765625
2608.88297722751	2976.19995117188
2611.02169141875	2980.39990234375
2613.15980474156	3001.19995117188
2615.29731747681	3016.39990234375
2617.43422990532	2981.39990234375
2619.57054230779	2976
2621.70625496483	2977
2623.84136815694	2975.39990234375
2625.97588216456	2998.39990234375
2628.10979726799	2979.19995117188
2630.24311374746	2976.60009765625
2632.3758318831	3017.60009765625
2634.50795195493	2978.39990234375
2636.6394742429	3002.80004882812
2638.77039902682	2982
2640.90072658645	2994.80004882812
2643.0304572014	2987
2645.15959115123	3014.39990234375
2647.28812871538	3021.19995117188
2649.41607017319	3010.80004882812
2651.5434158039	3026
2653.67016588665	2999.80004882812
2655.79632070049	3011
2657.92188052436	2993.60009765625
2660.04684563711	3054.60009765625
2662.17121631749	3021.19995117188
2664.29499284413	3030.60009765625
2666.41817549558	3002.39990234375
2668.54076455027	3014.60009765625
2670.66276028656	2993.60009765625
2672.78416298267	2996.60009765625
2674.90497291675	3002.60009765625
2677.02519036682	3006
2679.14481561082	3020.19995117188
2681.26384892658	3004.60009765625
2683.38229059182	2981.60009765625
2685.50014088417	3028.60009765625
2687.61740008114	3015.19995117188
2689.73406846017	3027
2691.85014629854	3000.80004882812
2693.96563387347	3020
2696.08053146206	3005.39990234375
2698.1948393413	2999.60009765625
2700.3085577881	3022.80004882812
2702.42168707924	3015.19995117188
2704.53422749139	2993.19995117188
2706.64617930112	3015
2708.75754278492	3029.39990234375
2710.86831821913	3007.39990234375
2712.97850588002	3057.80004882812
2715.08810604372	2985.80004882812
2717.19711898628	3036
2719.30554498363	3014.19995117188
2721.41338431158	3038.60009765625
2723.52063724586	3039.80004882812
2725.62730406206	3037
2727.73338503569	3052
2729.83888044213	3020
2731.94379055664	3049.60009765625
2734.04811565441	3057.39990234375
2736.15185601048	3034.80004882812
2738.25501189979	3023.60009765625
2740.35758359718	3048.60009765625
2742.45957137738	2997.39990234375
2744.56097551499	3044
2746.6617962845	3018.39990234375
2748.7620339603	3050
2750.86168881666	3028.80004882812
2752.96076112774	3002.60009765625
2755.05925116758	3039.39990234375
2757.15715921012	3025.80004882812
2759.25448552917	3021.39990234375
2761.35123039843	2978.80004882812
2763.44739409148	3009.39990234375
2765.5429768818	2991.80004882812
2767.63797904275	3026.39990234375
2769.73240084756	3034.80004882812
2771.82624256934	3024.19995117188
2773.91950448113	3029.19995117188
2776.01218685579	3029.80004882812
2778.10428996609	3049.39990234375
2780.19581408469	3045.80004882812
2782.28675948414	3027.80004882812
2784.37712643683	3031.19995117188
2786.46691521507	3039.60009765625
2788.55612609104	2996.39990234375
2790.64475933678	3040.60009765625
2792.73281522425	3015.60009765625
2794.82029402525	3023.80004882812
2796.90719601149	3021
2798.99352145453	2998.39990234375
2801.07927062583	3046.60009765625
2803.16444379672	3005.60009765625
2805.24904123841	3034.60009765625
2807.33306322197	3023
2809.41651001838	3026.80004882812
2811.49938189847	3019.19995117188
2813.58167913296	3050.80004882812
2815.66340199243	3052.60009765625
2817.74455074734	3050
2819.82512566805	3047.19995117188
2821.90512702475	3046.39990234375
2823.98455508754	3041.19995117188
2826.06341012637	3077.60009765625
2828.14169241109	3115.19995117188
2830.2194022114	3143
2832.29653979686	3177.19995117188
2834.37310543694	3252.39990234375
2836.44909940096	3320.39990234375
2838.5245219581	3344.39990234375
2840.59937337744	3328.80004882812
2842.67365392791	3334.80004882812
2844.74736387829	3311.60009765625
2846.82050349727	3254.60009765625
2848.8930730534	3295.80004882812
2850.96507281506	3258.80004882812
2853.03650305056	3310.60009765625
2855.10736402802	3288.39990234375
2857.17765601545	3351.19995117188
2859.24737928074	3391.60009765625
2861.31653409164	3460
2863.38512071574	3506.80004882812
2865.45313942054	3597.39990234375
2867.52059047335	3599.39990234375
2869.58747414139	3672
2871.65379069173	3611.39990234375
2873.7195403913	3650
2875.78472350688	3720
2877.84934030515	3715.60009765625
2879.91339105262	3776.60009765625
2881.97687601567	3776.80004882812
2884.03979546053	3774.39990234375
2886.10214965332	3725.39990234375
2888.16393886	3700.19995117188
2890.22516334639	3674.19995117188
2892.28582337816	3643.19995117188
2894.34591922087	3624.60009765625
2896.40545113992	3645.39990234375
2898.46441940054	3647.80004882812
2900.52282426787	3677.19995117188
2902.58066600687	3675
2904.63794488237	3746.19995117188
2906.69466115906	3680.80004882812
2908.75081510147	3642.39990234375
2910.806406974	3633.39990234375
2912.8614370409	3552.19995117188
2914.91590556626	3590.39990234375
2916.96981281404	3570.60009765625
2919.02315904807	3578.39990234375
2921.07594453199	3617.60009765625
2923.12816952932	3629.80004882812
2925.17983430343	3592.80004882812
2927.23093911753	3577.19995117188
2929.28148423469	3541
2931.33146991782	3469.19995117188
2933.3808964297	3436.60009765625
2935.42976403294	3392.60009765625
2937.47807299	3398.19995117188
2939.5258235632	3392.80004882812
2941.57301601469	3374.80004882812
2943.61965060648	3347.39990234375
2945.66572760042	3391.60009765625
2947.71124725823	3442.19995117188
2949.75620984143	3471
2951.80061561143	3461.60009765625
2953.84446482945	3441
2955.88775775656	3459.80004882812
2957.9304946537	3414.80004882812
2959.97267578162	3405.80004882812
2962.01430140095	3390
2964.05537177211	3360.60009765625
2966.09588715541	3298
2968.13584781097	3329.60009765625
2970.17525399875	3287.60009765625
2972.21410597859	3219.39990234375
2974.25240401011	3221.39990234375
2976.29014835283	3204
2978.32733926604	3187.80004882812
2980.36397700892	3180.19995117188
2982.40006184049	3164.60009765625
2984.43559401955	3146.80004882812
2986.4705738048	3142
2988.50500145473	3123.80004882812
2990.53887722771	3182.80004882812
2992.57220138189	3143.80004882812
2994.6049741753	3143.39990234375
2996.63719586576	3153.19995117188
2998.66886671097	3143.19995117188
3000.69998696843	3174
3002.73055689549	3159
3004.7605767493	3165.60009765625
3006.79004678688	3144.80004882812
3008.81896726505	3144.80004882812
3010.84733844048	3130
3012.87516056966	3176.39990234375
3014.9024339089	3160.19995117188
3016.92915871433	3163.80004882812
3018.95533524196	3204.60009765625
3020.98096374756	3180
3023.00604448675	3217.80004882812
3025.030577715	3186.60009765625
3027.05456368757	3224.39990234375
3029.07800265956	3199.80004882812
3031.10089488589	3184.39990234375
3033.12324062131	3248.19995117188
3035.14504012038	3210.60009765625
3037.16629363749	3265
3039.18700142685	3257
3041.20716374249	3199.60009765625
3043.22678083826	3209
3045.24585296782	3244
3047.26438038468	3250.80004882812
3049.28236334212	3243.60009765625
3051.29980209329	3277.80004882812
3053.31669689111	3245
3055.33304798835	3270.39990234375
3057.34885563757	3272.80004882812
3059.36412009117	3267.80004882812
3061.37884160134	3257.19995117188
3063.39302042011	3259.80004882812
3065.40665679931	3236
3067.41975099058	3225.60009765625
3069.43230324538	3218.80004882812
3071.44431381495	3162.19995117188
3073.45578295041	3218.39990234375
3075.46671090261	3197.39990234375
3077.47709792227	3211.60009765625
3079.48694425989	3190.19995117188
3081.49625016578	3196
3083.50501589008	3168.39990234375
3085.5132416827	3191.39990234375
3087.5209277934	3138
3089.52807447169	3182
3091.53468196695	3160.60009765625
3093.54075052832	3157.39990234375
3095.54628040476	3175
3097.55127184503	3181
3099.55572509769	3178.60009765625
3101.55964041111	3182.19995117188
3103.56301803346	3187.80004882812
3105.5658582127	3158.19995117188
3107.56816119661	3200.80004882812
3109.56992723275	3169
3111.57115656849	3167
3113.571849451	3194
3115.57200612724	3185
3117.57162684397	3212.80004882812
3119.57071184775	3225.80004882812
3121.56926138493	3211.19995117188
3123.56727570166	3220.60009765625
3125.56475504389	3219.60009765625
3127.56169965735	3186
3129.55810978757	3201.39990234375
3131.55398567987	3236
3133.54932757937	3224.80004882812
3135.54413573099	3247.19995117188
3137.53841037939	3233
3139.53215176909	3253.19995117188
3141.52536014435	3225.80004882812
3143.51803574924	3237
3145.51017882762	3209.19995117188
3147.50178962311	3241.80004882812
3149.49286837916	3252
3151.48341533897	3232.19995117188
3153.47343074553	3240.80004882812
3155.46291484164	3236.19995117188
3157.45186786985	3222.60009765625
3159.44029007252	3246
3161.42818169179	3224.39990234375
3163.41554296955	3273.39990234375
3165.40237414753	3231.80004882812
3167.38867546718	3279
3169.37444716975	3240
3171.35968949631	3246
3173.34440268764	3216
3175.32858698436	3262.19995117188
3177.31224262682	3226.80004882812
3179.29536985517	3265.80004882812
3181.27796890934	3215.60009765625
3183.26004002902	3233.60009765625
3185.24158345368	3259.39990234375
3187.22259942256	3255.39990234375
3189.2030881747	3223.80004882812
3191.18304994886	3271.19995117188
3193.16248498363	3277
3195.14139351733	3276.39990234375
3197.11977578807	3266.80004882812
3199.09763203371	3259.80004882812
3201.07496249191	3257.39990234375
3203.05176740007	3248.19995117188
3205.02804699537	3227.60009765625
3207.00380151475	3288.80004882812
3208.97903119493	3278.39990234375
3210.95373627238	3294.60009765625
3212.92791698335	3312.80004882812
3214.90157356383	3260.60009765625
3216.8747062496	3281.19995117188
3218.84731527619	3317.60009765625
3220.81940087889	3297.80004882812
3222.79096329275	3290.39990234375
3224.76200275259	3259
3226.73251949298	3320
3228.70251374825	3318.60009765625
3230.67198575251	3291.60009765625
3232.64093573959	3336.60009765625
3234.6093639431	3355.60009765625
3236.57727059641	3334
3238.54465593261	3330.60009765625
3240.51152018461	3348.39990234375
3242.47786358502	3325.19995117188
3244.44368636621	3334.80004882812
3246.40898876031	3316.60009765625
3248.37377099923	3329.60009765625
3250.33803331458	3364.39990234375
3252.30177593775	3379.19995117188
3254.26499909987	3351.19995117188
3256.22770303184	3395.19995117188
3258.18988796427	3395.80004882812
3260.15155412755	3356
3262.1127017518	3333.19995117188
3264.0733310669	3358.39990234375
3266.03344230246	3351.80004882812
3267.99303568784	3377.39990234375
3269.95211145215	3375.80004882812
3271.91066982422	3354.39990234375
3273.86871103267	3362
3275.82623530581	3382.60009765625
3277.7832428717	3385
3279.73973395818	3367.80004882812
3281.69570879278	3388
3283.6511676028	3401.60009765625
3285.60611061527	3407.19995117188
3287.56053805694	3340.39990234375
3289.51445015432	3381.39990234375
3291.46784713364	3411.60009765625
3293.42072922088	3380.80004882812
3295.37309664173	3370.80004882812
3297.32494962163	3382
3299.27628838575	3370.60009765625
3301.227113159	3396.80004882812
3303.17742416601	3392.39990234375
3305.12722163114	3396.39990234375
3307.07650577848	3375.60009765625
3309.02527683185	3389
3310.9735350148	3383.80004882812
3312.9212805506	3403.60009765625
3314.86851366225	3398
3316.81523457249	3382.80004882812
3318.76144350377	3417.19995117188
3320.70714067825	3398.39990234375
3322.65232631783	3382.60009765625
3324.59700064415	3390.19995117188
3326.54116387854	3377.80004882812
3328.48481624207	3397.39990234375
3330.42795795551	3382.60009765625
3332.37058923938	3350.80004882812
3334.31271031389	3381.60009765625
3336.25432139898	3366.60009765625
3338.19542271432	3401.39990234375
3340.13601447927	3398.80004882812
3342.07609691292	3365.60009765625
3344.01567023407	3338.19995117188
3345.95473466124	3372.19995117188
3347.89329041266	3375.60009765625
3349.83133770627	3363.60009765625
3351.76887675973	3409.39990234375
3353.70590779039	3363.60009765625
3355.64243101534	3380.19995117188
3357.57844665135	3352
3359.51395491492	3381
3361.44895602224	3358
3363.38345018922	3397.19995117188
3365.31743763148	3371.60009765625
3367.25091856432	3404.60009765625
3369.18389320278	3370.60009765625
3371.11636176156	3401.19995117188
3373.0483244551	3390.60009765625
3374.97978149754	3388.80004882812
3376.91073310269	3408.60009765625
3378.84117948409	3413.60009765625
3380.77112085498	3417
3382.70055742826	3398.39990234375
3384.62948941659	3386.60009765625
3386.55791703227	3410.60009765625
3388.48584048733	3403.39990234375
3390.41325999348	3431.39990234375
3392.34017576214	3421
3394.2665880044	3436.39990234375
3396.19249693107	3411.80004882812
3398.11790275263	3399.19995117188
3400.04280567926	3405.39990234375
3401.96720592084	3467.39990234375
3403.89110368692	3412.60009765625
3405.81449918675	3463.19995117188
3407.73739262928	3429.19995117188
3409.65978422311	3440.39990234375
3411.58167417658	3454.19995117188
3413.50306269768	3488.39990234375
3415.42394999408	3449.60009765625
3417.34433627316	3461.19995117188
3419.26422174195	3440.80004882812
3421.18360660721	3503.80004882812
3423.10249107532	3439.19995117188
3425.02087535239	3428.39990234375
3426.93875964421	3452.80004882812
3428.8561441562	3459.39990234375
3430.77302909353	3396.60009765625
3432.68941466097	3436.60009765625
3434.60530106301	3463
3436.52068850383	3458.19995117188
3438.43557718726	3431.19995117188
3440.34996731681	3429.39990234375
3442.26385909565	3449.19995117188
3444.17725272664	3425.80004882812
3446.09014841231	3450.19995117188
3448.00254635486	3404.19995117188
3449.91444675614	3399.60009765625
3451.82584981771	3440.80004882812
3453.73675574076	3398
3455.64716472616	3418.60009765625
3457.55707697445	3412.60009765625
3459.46649268584	3396
3461.37541206018	3430.19995117188
3463.28383529703	3435
3465.19176259555	3400.39990234375
3467.09919415464	3413.60009765625
3469.00613017278	3428.80004882812
3470.91257084817	3405
3472.81851637863	3388.19995117188
3474.72396696168	3398
3476.62892279446	3396.19995117188
3478.53338407379	3407.60009765625
3480.43735099614	3378.80004882812
3482.34082375764	3389.60009765625
3484.24380255404	3383.39990234375
3486.1462875808	3403.80004882812
3488.048279033	3438
3489.94977710537	3403
3491.85078199231	3415.60009765625
3493.75129388783	3376.39990234375
3495.65131298566	3415.19995117188
3497.5508394791	3374.19995117188
3499.44987356115	3413.60009765625