201.866871357051	1039
204.754250281454	1050.25
207.640596790938	1034.5
210.525911876299	1050
213.410196525689	1049.75
216.293451724508	1047.75
219.175678455485	1039.25
222.056877698662	1039.75
224.937050431388	1044.75
227.816197628363	1055.5
230.694320261602	1049
233.571419300504	1073
236.447495711764	1077.5
239.322550459507	1084.25
242.196584505182	1059.75
245.069598807626	1071
247.941594323078	1062
250.812572005154	1086.25
253.682532804884	1099.25
256.551477670699	1100.5
259.419407548456	1112.25
262.286323381439	1105.75
265.152226110364	1098
268.017116673389	1073
270.880996006115	1098
273.743865041622	1081.25
276.605724710436	1081.25
279.466575940562	1082.5
282.326419657496	1080
285.1852567842	1091.75
288.043088241157	1100.75
290.899914946349	1086
293.75573781526	1112.75
296.610557760898	1096
299.464375693817	1108.5
302.317192522078	1101.5
305.169009151297	1083.75
308.019826484655	1094.25
310.86964542287	1097.75
313.718466864233	1091.5
316.566291704614	1097.5
319.413120837457	1097
322.258955153804	1093
325.103795542291	1091.5
327.947642889128	1109
330.79049807819	1104.25
333.632361990927	1102
336.473235506444	1110.25
339.31311950145	1097.25
342.152014850322	1097.25
344.989922425062	1115
347.826843095354	1109.75
350.662777728528	1115.25
353.497727189577	1115
356.331692341195	1123.75
359.164674043732	1118
361.996673155267	1115.25
364.827690531536	1130
367.65772702602	1138.25
370.486783489887	1121.25
373.314860772047	1132.75
376.14195971912	1128.25
378.968081175466	1134.5
381.793225983212	1141.25
384.617394982201	1137.25
387.44058901005	1145
390.262808902131	1132.5
393.08405549161	1143.5
395.904329609395	1130
398.723632084213	1136.25
401.541963742569	1132.5
404.359325408779	1138.75
407.175717904938	1135.25
409.991142050982	1123.75
412.805598664665	1141.75
415.619088561551	1139
418.43161255505	1150.75
421.243171456415	1150
424.053766074758	1144.25
426.863397217017	1153.75
429.672065688024	1153.25
432.479772290455	1151
435.286517824879	1152.75
438.092303089736	1162.5
440.897128881359	1161.25
443.70099599399	1168.25
446.503905219761	1172.25
449.305857348711	1163
452.106853168796	1187
454.906893465919	1176.5
457.705979023885	1171
460.504110624439	1168.25
463.3012890473	1162.25
466.097515070087	1171.75
468.892789468424	1157.75
471.687113015869	1168.25
474.48048648395	1156.25
477.272910642198	1169.5
480.064386258109	1164
482.854914097159	1175
485.644494922839	1173.75
488.433129496636	1176.75
491.220818578047	1190.75
494.007562924584	1168.25
496.793363291785	1181.25
499.578220433217	1201.5
502.362135100473	1167.5
505.145108043209	1178
507.927140009098	1185
510.708231743909	1189.75
513.488383991433	1188.25
516.267597493556	1191
519.04587299022	1184.25
521.82321121946	1174
524.599612917398	1193.5
527.375078818233	1192
530.149609654287	1178
532.923206155967	1184.75
535.695869051804	1186.75
538.467599068448	1197.5
541.238396930665	1171.25
544.008263361364	1180.75
546.777199081578	1198.75
549.545204810493	1199.5
552.312281265436	1205.5
555.078429161898	1186.75
557.843649213533	1191.25
560.607942132156	1189.25
563.371308627753	1193.25
566.133749408495	1203.75
568.895265180756	1195.25
571.655856649064	1209.75
574.415524516189	1203.75
577.174269483075	1219.25
579.932092248884	1229.5
582.688993510994	1228.75
585.444973965023	1249.25
588.200034304795	1291.5
590.95417522237	1302.75
593.70739740807	1316
596.459701550433	1299.75
599.21108833628	1252.75
601.961558450668	1228.5
604.711112576933	1225.75
607.459751396673	1230.75
610.207475589748	1229.25
612.954285834338	1220.5
615.700182806879	1199
618.445167182101	1212
621.189239633055	1207.75
623.932400831087	1204.25
626.674651445839	1220
629.415992145303	1192.25
632.156423595745	1213.75
634.895946461813	1204
637.634561406449	1201.5
640.37226909096	1196.25
643.109070174978	1190.5
645.844965316508	1207.5
648.579955171888	1212.75
651.314040395846	1211
654.047221641456	1209.25
656.779499560176	1200.5
659.510874801828	1223.25
662.241348014642	1216
664.97091984524	1221.75
667.699590938606	1207.75
670.427361938164	1232.75
673.15423348573	1269.75
675.880206221526	1326.5
678.605280784206	1422.5
681.329457810829	1438.5
684.05273793692	1357.75
686.775121796389	1308.25
689.49661002163	1266.75
692.217203243454	1243.75
694.936902091144	1223.75
697.655707192425	1229
700.373619173493	1234
703.09063865901	1225.25
705.806766272093	1230.5
708.522002634378	1226
711.236348365946	1233
713.94980408538	1220.5
716.662370409762	1204.25
719.374047954676	1218.5
722.08483733419	1213.5
724.794739160909	1211.25
727.503754045949	1217.5
730.21188259892	1217.5
732.919125427998	1209.5
735.625483139855	1219
738.330956339723	1220.25
741.035545631374	1236
743.739251617106	1258
746.44207489779	1285.75
749.144016072852	1275.5
751.845075740272	1261.5
754.545254496603	1241.25
757.244552936976	1233.75
759.94297165508	1242.5
762.640511243222	1233.5
765.337172292249	1223.5
768.032955391649	1230.5
770.727861129482	1230.25
773.421890092413	1249.5
776.11504286572	1250.75
778.807320033298	1251.75
781.49872217765	1245.25
784.18924987991	1244.75
786.87890371984	1217.75
789.567684275826	1232.5
792.255592124908	1233.25
794.94262784276	1225.25
797.628792003703	1211.5
800.314085180715	1223.75
802.998507945427	1220
805.682060868145	1221.5
808.364744517821	1225.25
811.046559462105	1220.25
813.727506267311	1228.5
816.407585498422	1241
819.08679771913	1242
821.765143491822	1249.75
824.442623377563	1253.5
827.119237936127	1268
829.794987726003	1289.75
832.469873304377	1290
835.143895227167	1281.75
837.817054048985	1283.75
840.489350323205	1287
843.160784601892	1279.75
845.831357435894	1282.75
848.501069374739	1282.5
851.169920966753	1267.75
853.837912758987	1258.25
856.505045297232	1273
859.171319126071	1276
861.836734788823	1252
864.501292827579	1248.75
867.164993783208	1265
869.827838195361	1244
872.489826602454	1250.25
875.150959541701	1254.75
877.811237549104	1253.25
880.470661159456	1247
883.129230906357	1229.5
885.786947322205	1232.25
888.443810938206	1258.5
891.099822284385	1241.25
893.754981889586	1239.5
896.409290281452	1251
899.062747986485	1251.75
901.715355529999	1245.75
904.367113436154	1245
907.01802222793	1257.25
909.668082427172	1242
912.317294554574	1257.75
914.965659129659	1254.25
917.613176670835	1261
920.259847695364	1248.5
922.90567271936	1234.5
925.550652257825	1247.25
928.194786824621	1246.5
930.838076932512	1261.25
933.480523093109	1265.75
936.122125816953	1247
938.762885613447	1250
941.402802990899	1249.25
944.041878456523	1256.5
946.680112516428	1265.75
949.31750567563	1275.75
951.954058438081	1318.25
954.589771306633	1323.75
957.224644783048	1286.5
959.858679368044	1273.5
962.491875561238	1256.5
965.12423386121	1267
967.75575476545	1250.5
970.386438770423	1243
973.016286371501	1254
975.645298063046	1252.5
978.273474338355	1267.25
980.900815689674	1262
983.527322608243	1231
986.152995584245	1247.5
988.777835106834	1258.5
991.401841664148	1256.75
994.025015743307	1256.75
996.647357830407	1262
999.268868410534	1254
1001.88954796777	1242.25
1004.50939698518	1264.75
1007.12841594484	1277.5
1009.74660532783	1251.75
1012.36396561423	1280.25
1014.98049728314	1268.75
1017.59620081267	1256
1020.21107667995	1275
1022.82512536112	1249.5
1025.43834733138	1270.75
1028.05074306493	1265
1030.66231303501	1282.5
1033.27305771392	1290.75
1035.88297757299	1285
1038.49207308257	1296.75
1041.10034471211	1292
1043.70779293008	1304
1046.31441820402	1278.75
1048.92022100052	1285.25
1051.52520178525	1289.25
1054.12936102295	1301
1056.73269917742	1321
1059.33521671154	1338
1061.93691408729	1335
1064.53779176571	1332.75
1067.13785020694	1305.75
1069.73708987022	1296
1072.33551121386	1296
1074.93311469528	1285
1077.52990077103	1293.25
1080.12586989674	1282.25
1082.72102252714	1286.25
1085.31535911611	1283.5
1087.90888011663	1277
1090.50158598078	1292.25
1093.09347715979	1293
1095.68455410403	1270.25
1098.27481726296	1291
1100.86426708523	1293
1103.45290401857	1280.5
1106.04072850991	1298.5
1108.6277410053	1292.5
1111.21394194993	1303.5
1113.79933178816	1305.75
1116.3839109635	1296.25
1118.96767991862	1302.75
1121.55063909539	1322.5
1124.13278893477	1346.25
1126.71412987696	1330.75
1129.29466236132	1363.25
1131.87438682637	1350.5
1134.45330370982	1341.75
1137.03141344858	1350.5
1139.60871647872	1356.75
1142.18521323554	1385.25
1144.7609041535	1353.5
1147.33578966629	1343.5
1149.90987020676	1321.25
1152.48314620702	1302.75
1155.05561809835	1305.25
1157.62728631125	1298
1160.19815127545	1290.25
1162.76821341988	1314
1165.33747317271	1296.5
1167.90593096133	1315.25
1170.47358721235	1292
1173.04044235163	1299.25
1175.60649680425	1298
1178.17175099454	1305.25
1180.73620534607	1295.75
1183.29986028165	1309.75
1185.86271622336	1312.25
1188.42477359249	1293.75
1190.98603280964	1311
1193.54649429462	1336.5
1196.10615846653	1324.25
1198.66502574372	1299.25
1201.22309654385	1299
1203.78037128378	1322.75
1206.33685037971	1318.75
1208.89253424709	1320.5
1211.44742330063	1325.5
1214.00151795438	1326.5
1216.55481862163	1314.5
1219.10732571497	1316
1221.65903964631	1295.25
1224.20996082683	1287.25
1226.760089667	1286
1229.30942657664	1288.75
1231.85797196483	1286.25
1234.40572623998	1287.75
1236.95268980981	1286.25
1239.49886308136	1283
1242.04424646098	1283.25
1244.58884035435	1279.5
1247.13264516647	1306.75
1249.67566130166	1288
1252.21788916358	1281
1254.75932915524	1309.75
1257.29998167896	1292.5
1259.83984713639	1303.25
1262.37892592857	1293.75
1264.91721845586	1317.5
1267.45472511795	1319.75
1269.9914463139	1308.5
1272.52738244213	1321
1275.0625339004	1307
1277.59690108587	1328.25
1280.130484395	1324.5
1282.66328422367	1341.5
1285.19530096712	1337.25
1287.72653501993	1341.5
1290.25698677608	1373.25
1292.78665662894	1414.25
1295.31554497125	1418
1297.8436521951	1425.75
1300.37097869203	1402.75
1302.89752485292	1401
1305.42329106805	1417.75
1307.94827772713	1403.5
1310.47248521921	1376
1312.99591393279	1375.75
1315.51856425575	1365.75
1318.04043657536	1356
1320.56153127836	1357.5
1323.08184875083	1351.5
1325.6013893783	1362.25
1328.12015354572	1383.5
1330.63814163744	1403.75
1333.15535403727	1446.75
1335.67179112839	1543.25
1338.18745329347	1635.75
1340.70234091454	1670.75
1343.21645437314	1625.25
1345.72979405019	1527.75
1348.24236032607	1427
1350.75415358059	1398.5
1353.26517419303	1382.75
1355.7754225421	1384.25
1358.28489900594	1368
1360.79360396218	1382.75
1363.30153778787	1395.25
1365.80870085955	1382.25
1368.31509355319	1388
1370.82071624424	1380.75
1373.32556930762	1378
1375.8296531177	1369
1378.33296804832	1371.5
1380.83551447282	1341.75
1383.33729276399	1363.75
1385.83830329408	1359.75
1388.33854643489	1359.75
1390.83802255762	1367.25
1393.33673203301	1345
1395.83467523128	1371.25
1398.33185252211	1354.75
1400.82826427471	1369.25
1403.32391085777	1377
1405.81879263947	1374.5
1408.31290998752	1374.75
1410.80626326908	1393.75
1413.29885285087	1417.5
1415.79067909909	1412.75
1418.28174237944	1396
1420.77204305717	1398.75
1423.26158149702	1400
1425.75035806323	1416.5
1428.2383731196	1436.5
1430.72562702942	1421.5
1433.21212015554	1467.25
1435.69785286028	1464.5
1438.18282550555	1485.75
1440.66703845275	1499.25
1443.15049206284	1528.5
1445.6331866963	1607
1448.11512271316	1682.75
1450.59630047298	1770
1453.07672033486	1739
1455.55638265748	1602.5
1458.03528779902	1518.25
1460.51343611725	1509.25
1462.99082796946	1491
1465.46746371252	1484.75
1467.94334370285	1509.25
1470.41846829642	1502.25
1472.89283784878	1467.75
1475.36645271503	1474
1477.83931324983	1461.5
1480.31141980743	1496.75
1482.78277274164	1499.25
1485.25337240583	1483.75
1487.72321915297	1459
1490.19231333557	1434.75
1492.66065530578	1423
1495.12824541525	1439.5
1497.5950840153	1433.5
1500.06117145678	1414.25
1502.52650809014	1457
1504.99109426543	1436.25
1507.45493033227	1419.25
1509.91801663992	1439
1512.38035353717	1457.25
1514.84194137248	1472.75
1517.30278049386	1530.75
1519.76287124894	1616.75
1522.22221398497	1723
1524.68080904876	1906
1527.13865678681	2092.75
1529.59575754514	2103.75
1532.05211166945	1901.25
1534.50771950503	1700.75
1536.96258139678	1604.75
1539.41669768924	1540
1541.87006872656	1511.25
1544.32269485252	1508.25
1546.77457641051	1491
1549.22571374357	1501.5
1551.67610719434	1502.25
1554.12575710513	1496
1556.57466381785	1493.25
1559.02282767408	1495.75
1561.47024901499	1488.25
1563.91692818144	1506.5
1566.3628655139	1496
1568.80806135249	1518
1571.252516037	1503.5
1573.6962299068	1531.25
1576.13920330099	1525.75
1578.58143655828	1518.75
1581.02293001704	1528.75
1583.46368401528	1529.75
1585.90369889071	1535.5
1588.34297498065	1558.75
1590.7815126221	1533
1593.21931215173	1549.25
1595.65637390588	1548.25
1598.09269822053	1536.5
1600.52828543135	1539
1602.96313587367	1533.5
1605.3972498825	1562.25
1607.83062779252	1541.5
1610.26326993808	1554.5
1612.69517665322	1531.25
1615.12634827165	1546
1617.55678512676	1522.25
1619.98648755163	1532.75
1622.41545587902	1539.75
1624.84369044138	1541.75
1627.27119157085	1531.75
1629.69795959924	1535.25
1632.12399485808	1537.5
1634.54929767859	1557.5
1636.97386839165	1553.5
1639.39770732789	1551.75
1641.8208148176	1537.25
1644.24319119078	1525.75
1646.66483677715	1545.5
1649.0857519061	1558.25
1651.50593690677	1538.5
1653.92539210795	1566.75
1656.3441178382	1546.25
1658.76211442575	1556.25
1661.17938219855	1567.25
1663.59592148428	1569
1666.01173261032	1553
1668.42681590377	1575.75
1670.84117169145	1600
1673.25480029991	1569.5
1675.66770205541	1590
1678.07987728393	1579.25
1680.49132631119	1586.25
1682.90204946263	1599.25
1685.31204706342	1607.75
1687.72131943846	1599
1690.1298669124	1619.5
1692.53768980957	1623.25
1694.94478845411	1608.5
1697.35116316982	1601.5
1699.75681428031	1617.25
1702.16174210887	1625.75
1704.56594697858	1601.25
1706.96942921222	1611
1709.37218913235	1631.75
1711.77422706125	1625.75
1714.17554332098	1617
1716.5761382333	1638.25
1718.97601211977	1631.75
1721.37516530169	1630.25
1723.77359810006	1650.75
1726.17131083572	1611
1728.56830382922	1621
1730.96457740087	1622.75
1733.36013187075	1614.25
1735.75496755868	1621.25
1738.14908478428	1622
1740.54248386689	1623
1742.93516512565	1634
1745.32712887946	1649
1747.71837544697	1642.5
1750.10890514662	1618.5
1752.49871829661	1631.5
1754.88781521492	1640
1757.27619621929	1657
1759.66386162726	1640.5
1762.05081175612	1645.75
1764.43704692297	1650.75
1766.82256744465	1667.5
1769.20737363782	1657.75
1771.59146581887	1651
1773.97484430405	1664
1776.35750940932	1662.5
1778.73946145048	1677
1781.12070074309	1674.25
1783.50122760249	1681.25
1785.88104234385	1705
1788.26014528209	1700.25
1790.63853673196	1693.25
1793.01621700796	1706.75
1795.39318642443	1713
1797.76944529549	1720
1800.14499393503	1727.25
1802.51983265681	1693.75
1804.8939617743	1727.5
1807.26738160085	1723.75
1809.64009244957	1739.25
1812.01209463339	1722
1814.38338846504	1745.75
1816.75397425706	1715.5
1819.12385232181	1731.75
1821.49302297142	1727.5
1823.86148651789	1724.25
1826.22924327299	1713.75
1828.59629354831	1732
1830.96263765526	1742.5
1833.32827590507	1733
1835.69320860877	1737
1838.05743607724	1736.5
1840.42095862113	1742.5
1842.78377655097	1740
1845.14589017707	1758.75
1847.50729980956	1743.75
1849.86800575843	1767.75
1852.22800833346	1740.25
1854.58730784427	1760
1856.94590460032	1769.75
1859.30379891087	1755.25
1861.66099108503	1758.75
1864.01748143175	1784.25
1866.37327025978	1766
1868.72835787773	1774.5
1871.08274459403	1768.5
1873.43643071697	1781.25
1875.78941655464	1790.25
1878.14170241498	1758.5
1880.4932886058	1806.25
1882.84417543469	1799
1885.19436320915	1809.75
1887.54385223646	1810.25
1889.89264282378	1818
1892.24073527809	1824
1894.58812990625	1841
1896.93482701493	1858.5
1899.28082691067	1840.5
1901.62612989984	1847.5
1903.97073628868	1820
1906.31464638326	1853.25
1908.6578604895	1850.75
1911.00037891321	1845.75
1913.34220196	1867.5
1915.68332993537	1875
1918.02376314468	1882.5
1920.36350189311	1877.25
1922.70254648573	1864.25
1925.04089722744	1860
1927.37855442303	1883.5
1929.71551837715	1860.75
1932.05178939426	1885.5
1934.38736777876	1885.75
1936.72225383484	1871.75
1939.0564478666	1913
1941.38995017799	1860.75
1943.72276107283	1889.25
1946.05488085479	1907.75
1948.38630982744	1868.25
1950.71704829419	1894
1953.04709655832	1873.75
1955.376454923	1882.25
1957.70512369126	1890.5
1960.03310316599	1873.5
1962.36039364999	1911.5
1964.68699544589	1897.5
1967.01290885622	1896.75
1969.33813418338	1888.75
1971.66267172965	1924.25
1973.98652179718	1887.75
1976.309684688	1897.75
1978.63216070402	1898.25
1980.95395014705	1930.5
1983.27505331873	1898.5
1985.59547052063	1910.25
1987.9152020542	1911.75
1990.23424822074	1934.5
1992.55260932146	1941
1994.87028565746	1939.75
1997.18727752968	1933.75
1999.503585239	1951.25
2001.81920908618	1950.75
2004.13414937184	1959.25
2006.44840639651	1964.5
2008.7619804606	1990.5
2011.07487186442	1973.25
2013.38708090815	2002.75
2015.6986078919	2003.75
2018.00945311564	2013.25
2020.31961687923	2009.5
2022.62909948246	2005
2024.93790122498	2022.75
2027.24602240636	2034
2029.55346332604	2043.5
2031.86022428337	2041.5
2034.16630557761	2013.25
2036.47170750791	2041.25
2038.77643037331	2044.75
2041.08047447275	2052.75
2043.38384010509	2041.5
2045.68652756907	2050.75
2047.98853716335	2055.25
2050.28986918648	2062.75
2052.59052393692	2081.25
2054.89050171302	2082.25
2057.18980281306	2064
2059.4884275352	2072.25
2061.78637617753	2075.25
2064.08364903802	2091.5
2066.38024641457	2076
2068.67616860497	2097
2070.97141590694	2080
2073.26598861809	2078.5
2075.55988703595	2104.25
2077.85311145796	2086.75
2080.14566218145	2105.25
2082.43753950371	2082.5
2084.72874372188	2093.75
2087.01927513307	2092.5
2089.30913403428	2116.25
2091.59832072241	2122.75
2093.88683549429	2110
2096.17467864666	2133.25
2098.46185047619	2126.75
2100.74835127944	2130.75
2103.03418135292	2124
2105.31934099303	2110
2107.6038304961	2156.25
2109.88765015838	2152.5
2112.17080027602	2148
2114.45328114513	2161.75
2116.7350930617	2157
2119.01623632165	2169.75
2121.29671122085	2141.5
2123.57651805505	2192.75
2125.85565711996	2155.5
2128.13412871117	2175.75
2130.41193312424	2182
2132.68907065462	2185.25
2134.96554159771	2223.5
2137.24134624881	2214.75
2139.51648490317	2223
2141.79095785593	2207.5
2144.0647654022	2213.5
2146.33790783698	2192.5
2148.61038545524	2177
2150.88219855182	2209
2153.15334742154	2221.25
2155.42383235911	2214.5
2157.6936536592	2221.25
2159.9628116164	2215
2162.23130652522	2216
2164.49913868011	2214.75
2166.76630837544	2228.5
2169.03281590552	2223.5
2171.2986615646	2237.25
2173.56384564685	2231.75
2175.82836844637	2206.75
2178.0922302572	2225.75
2180.35543137332	2213.75
2182.61797208862	2213.25
2184.87985269695	2207.75
2187.14107349208	2220.75
2189.40163476773	2235
2191.66153681753	2215.5
2193.92077993507	2205.25
2196.17936441386	2231
2198.43729054735	2213.25
2200.69455862894	2210.75
2202.95116895194	2209.25
2205.20712180962	2220.25
2207.46241749519	2211.5
2209.71705630179	2208.25
2211.97103852248	2205.75
2214.2243644503	2212.75
2216.47703437819	2199
2218.72904859905	2164.25
2220.98040740571	2181.75
2223.23111109095	2192.75
2225.4811599475	2176.75
2227.73055426799	2177
2229.97929434504	2174.25
2232.22738047118	2143.75
2234.47481293889	2145
2236.72159204058	2168.5
2238.96771806864	2145
2241.21319131536	2156.75
2243.458012073	2112.25
2245.70218063374	2167
2247.94569728973	2177.5
2250.18856233304	2158.5
2252.4307760557	2128
2254.67233874967	2137.75
2256.91325070687	2108.75
2259.15351221915	2143
2261.39312357831	2134
2263.63208507611	2118.25
2265.87039700422	2111.25
2268.1080596543	2115.25
2270.34507331792	2127.25
2272.5814382866	2123.25
2274.81715485183	2121.75
2277.05222330502	2110
2279.28664393755	2119.75
2281.52041704072	2081.5
2283.75354290581	2119.25
2285.98602182401	2087.75
2288.21785408648	2083.75
2290.44903998434	2103.75
2292.67957980862	2078
2294.90947385033	2083
2297.1387224004	2072.5
2299.36732574975	2095.75
2301.59528418921	2085
2303.82259800958	2083.75
2306.04926750158	2076
2308.27529295593	2074.5
2310.50067466325	2063.75
2312.72541291412	2036.75
2314.9495079991	2044.25
2317.17296020866	2056.5
2319.39576983323	2062
2321.61793716322	2051.75
2323.83946248894	2049.5
2326.06034610069	2042.75
2328.28058828871	2033.5
2330.50018934317	2041.5
2332.7191495542	2028.5
2334.93746921192	1999.75
2337.15514860633	2005.25
2339.37218802743	2007.25
2341.58858776516	2003.5
2343.80434810941	2007.25
2346.01946935001	2031.75
2348.23395177675	1998.5
2350.44779567939	2019.5
2352.66100134759	1989.75
2354.87356907101	1983.5
2357.08549913925	1970.5
2359.29679184185	1984.25
2361.50744746829	2000.75
2363.71746630804	1995.5
2365.92684865048	1988
2368.13559478499	1957.25
2370.34370500083	1966.25
2372.55117958727	1962.75
2374.75801883352	1965
2376.96422302874	1955.75
2379.16979246202	1951
2381.37472742243	1942.25
2383.57902819898	1947.5
2385.78269508063	1965
2387.98572835629	1948.25
2390.18812831482	1925.75
2392.38989524505	1943
2394.59102943573	1929.75
2396.79153117559	1931.75
2398.9914007533	1929.75
2401.19063845748	1908.25
2403.38924457672	1907.5
2405.58721939951	1922.25
2407.78456321435	1912
2409.98127630966	1908.5
2412.17735897382	1913.5
2414.37281149517	1874
2416.56763416198	1872.75
2418.76182726249	1901.5
2420.95539108487	1900.25
2423.14832591726	1917.5
2425.34063204776	1896
2427.53230976439	1875.75
2429.72335935513	1880.5
2431.91378110795	1895
2434.10357531071	1872.5
2436.29274225125	1881.25
2438.48128221739	1863.25
2440.66919549683	1848.5
2442.8564823773	1863.25
2445.04314314641	1845.75
2447.22917809176	1847.75
2449.4145875009	1855.5
2451.59937166131	1838.75
2453.78353086044	1848.5
2455.96706538568	1828
2458.14997552436	1845.5
2460.33226156379	1826.25
2462.51392379119	1847.5
2464.69496249376	1820.75
2466.87537795862	1835.5
2469.05517047288	1822
2471.23434032357	1808
2473.41288779767	1802.5
2475.59081318211	1821.5
2477.76811676378	1825.25
2479.9447988295	1798
2482.12085966605	1820
2484.29629956016	1802.25
2486.4711187985	1793.5
2488.64531766769	1801.5
2490.8188964543	1817
2492.99185544484	1811
2495.16419492579	1781
2497.33591518353	1796.75
2499.50701650444	1785
2501.67749917482	1770.5
2503.84736348091	1784.5
2506.01660970891	1778.75
2508.18523814496	1794.25
2510.35324907514	1776.25
2512.52064278551	1784.5
2514.68741956201	1797.5
2516.85357969058	1788.25
2519.01912345709	1766.25
2521.18405114735	1785.75
2523.34836304711	1781.5
2525.51205944208	1780
2527.6751406179	1781.5
2529.83760686016	1782
2531.99945845439	1796.25
2534.16069568606	1785
2536.3213188406	1781.25
2538.48132820336	1746.25
2540.64072405965	1762.75
2542.79950669471	1761.75
2544.95767639373	1788
2547.11523344184	1779.25
2549.27217812411	1758.75
2551.42851072555	1751.5
2553.58423153111	1754.5
2555.73934082569	1741.75
2557.89383889412	1754.25
2560.04772602118	1755
2562.20100249158	1750
2564.35366858996	1749.75
2566.50572460093	1728
2568.65717080901	1740
2570.80800749867	1749.75
2572.95823495433	1725
2575.10785346031	1716.75
2577.25686330093	1725.25
2579.40526476038	1710.5
2581.55305812282	1719.5
2583.70024367237	1692.5
2585.84682169303	1706
2587.99279246879	1693.5
2590.13815628354	1701.25
2592.28291342112	1695.5
2594.42706416531	1698.75
2596.5706087998	1701.25
2598.71354760826	1722.5
2600.85588087425	1698.5
2602.99760888127	1701.5
2605.13873191278	1692.75
2607.27925025214	1678.25
2609.41916418269	1699.75
2611.55847398764	1691.5
2613.69717995017	1663
2615.83528235339	1682.5
2617.97278148034	1691
2620.10967761398	1694.75
2622.2459710372	1696
2624.38166203284	1685
2626.51675088365	1676
2628.65123787231	1682
2630.78512328145	1684.75
2632.9184073936	1677
2635.05109049124	1693.25
2637.18317285676	1684.25
2639.31465477248	1664.25
2641.44553652067	1693.5
2643.5758183835	1679.25
2645.70550064309	1653
2647.83458358144	1664.5
2649.96306748053	1694
2652.09095262223	1674.75
2654.21823928836	1692.5
2656.34492776063	1672.75
2658.47101832071	1688.5
2660.59651125015	1700.75
2662.72140683047	1680.25
2664.84570534309	1676
2666.96940706934	1694.5
2669.0925122905	1698.25
2671.21502128773	1681
2673.33693434215	1701.25
2675.45825173479	1677.75
2677.57897374658	1677
2679.69910065839	1682.75
2681.818632751	1676.25
2683.93757030511	1668.75
2686.05591360133	1668.25
2688.17366292021	1668.75
2690.29081854218	1678.75
2692.40738074762	1649.75
2694.52334981681	1658.75
2696.63872602995	1649.25
2698.75350966713	1669
2700.86770100841	1671.25
2702.98130033371	1638.25
2705.09430792289	1654.5
2707.20672405571	1667.25
2709.31854901185	1661.5
2711.42978307091	1672.75
2713.54042651238	1677.5
2715.65047961567	1694.5
2717.7599426601	1668.5
2719.86881592491	1683.5
2721.97709968924	1672
2724.08479423213	1666.5
2726.19189983255	1672.5
2728.29841676934	1659.75
2730.4043453213	1658.25
2732.5096857671	1652.5
2734.61443838532	1623.75
2736.71860345444	1633.25
2738.82218125286	1656.75
2740.92517205889	1661.25
2743.02757615072	1656
2745.12939380646	1644.75
2747.23062530411	1635
2749.33127092159	1657.5
2751.4313309367	1632.75
2753.53080562716	1639
2755.62969527058	1643.5
2757.72800014448	1624.25
2759.82572052625	1630.5
2761.92285669323	1625.25
2764.0194089226	1640
2766.11537749147	1643
2768.21076267686	1644
2770.30556475566	1622.5
2772.39978400465	1616.75
2774.49342070054	1613.75
2776.58647511991	1628.25
2778.67894753923	1640.75
2780.77083823487	1638.75
2782.8621474831	1617
2784.95287556007	1630.25
2787.04302274184	1625.75
2789.13258930433	1625
2791.22157552338	1631.75
2793.30998167471	1626
2795.39780803392	1639
2797.4850548765	1635
2799.57172247786	1632.5
2801.65781111324	1620
2803.74332105781	1638
2805.82825258661	1621.25
2807.91260597457	1638.75
2809.9963814965	1619.5
2812.07957942711	1646.25
2814.16220004096	1629.75
2816.24424361252	1639.25
2818.32571041614	1630.25
2820.40660072604	1635.5
2822.48691481631	1631.75
2824.56665296098	1653.5
2826.64581543388	1662.75
2828.72440250876	1687.25
2830.80241445925	1689.5
2832.87985155885	1726
2834.95671408093	1783.25
2837.03300229875	1845.5
2839.10871648544	1898
2841.18385691399	2024.5
2843.25842385729	2122
2845.33241758808	2176.25
2847.40583837898	2187.5
2849.4786865025	2209.25
2851.550962231	2170.5
2853.6226658367	2127.25
2855.69379759173	2067.75
2857.76435776806	2030
2859.83434663753	2007
2861.90376447184	1984
2863.97261154259	1971.25
2866.0408881212	1987.75
2868.10859447901	1990.25
2870.17573088717	2038.5
2872.24229761673	2027.25
2874.30829493859	2070.5
2876.37372312352	2128.75
2878.43858244215	2244.5
2880.50287316496	2332.75
2882.56659556231	2280.5
2884.62974990439	2184.5
2886.69233646129	2096.25
2888.75435550293	2037.5
2890.81580729909	2022
2892.87669211941	2009.75
2894.93701023339	1990.75
2896.99676191039	1974
2899.05594741961	1981.5
2901.1145670301	1965.25
2903.1726210108	1922.75
2905.23010963045	1942.25
2907.28703315768	1890.75
2909.34339186096	1877.75
2911.39918600861	1884.75
2913.45441586879	1884.25
2915.50908170952	1869
2917.56318379867	1864.5
2919.61672240395	1854.5
2921.66969779291	1856
2923.72211023295	1857
2925.77395999134	1837.75
2927.82524733515	1847
2929.87597253132	1826.5
2931.92613584663	1851.5
2933.97573754769	1808.5
2936.02477790097	1787.75
2938.07325717276	1771
2940.1211756292	1785.25
2942.16853353626	1723.25
2944.21533115976	1723.25
2946.26156876536	1698.75
2948.30724661853	1686.25
2950.3523649846	1706.25
2952.39692412872	1658.5
2954.44092431587	1675
2956.48436581089	1646.5
2958.52724887843	1641
2960.56957378296	1663.5
2962.6113407888	1651.5
2964.65255016011	1661.75
2966.69320216083	1654.75
2968.73329705479	1664
2970.77283510559	1648.25
2972.81181657671	1652.25
2974.8502417314	1668.25
2976.88811083279	1662.5
2978.92542414378	1658.5
2980.96218192713	1650.25
2982.99838444541	1665
2985.034031961	1662
2987.06912473612	1645
2989.1036630328	1659.5
2991.13764711288	1636.5
2993.17107723804	1639.5
2995.20395366974	1663.5
2997.23627666931	1667.25
2999.26804649782	1674.75
3001.29926341624	1637.25
3003.32992768528	1642.5
3005.3600395655	1654
3007.38959931726	1676.5
3009.41860720076	1657
3011.44706347595	1669
3013.47496840263	1669.75
3015.50232224041	1649.25
3017.5291252487	1686
3019.5553776867	1669.5
3021.58107981344	1668.25
3023.60623188773	1653.25
3025.63083416822	1674.25
3027.65488691331	1689
3029.67839038125	1687.25
3031.70134483007	1677.5
3033.72375051759	1661.25
3035.74560770144	1690
3037.76691663907	1693
3039.78767758768	1698.25
3041.80789080431	1681.75
3043.82755654577	1697.75
3045.84667506867	1698.25
3047.8652466294	1690.75
3049.88327148418	1712
3051.90074988899	1724.25
3053.91768209961	1743.25
3055.9340683716	1745
3057.94990896033	1728
3059.96520412095	1756
3061.97995410838	1736.25
3063.99415917734	1693.25
3066.00781958234	1713
3068.02093557766	1696.5
3070.03350741738	1702.75
3072.04553535535	1697.5
3074.05701964521	1707.75
3076.06796054036	1664
3078.078358294	1701.5
3080.08821315912	1702
3082.09752538846	1687
3084.10629523454	1696
3086.11452294967	1694.25
3088.12220878592	1687.5
3090.12935299515	1671
3092.13595582898	1698.5
3094.1420175388	1684
3096.14753837579	1686.25
3098.15251859088	1699.5
3100.15695843477	1686
3102.16085815793	1707.75
3104.16421801061	1690
3106.16703824282	1697.5
3108.16931910432	1677
3110.17106084464	1696
3112.17226371308	1689.5
3114.17292795872	1693.5
3116.17305383034	1703
3118.17264157657	1701
3120.17169144571	1694.25
3122.17020368587	1705.25
3124.16817854492	1691.75
3126.16561627044	1694.5
3128.16251710982	1709.75
3130.15888131017	1693.5
3132.15470911837	1709.25
3134.15000078104	1704
3136.14475654455	1710.25
3138.13897665502	1713.75
3140.13266135835	1722.5
3142.12581090014	1705.5
3144.11842552577	1724.5
3146.11050548036	1735.75
3148.10205100875	1750.75
3150.09306235557	1735.75
3152.08353976515	1729.5
3154.07348348158	1731
3156.06289374869	1724.75
3158.05177081006	1737
3160.04011490899	1734
3162.02792628852	1759.75
3164.01520519145	1735.25
3166.00195186029	1731.75
3167.98816653728	1747.5
3169.97384946442	1745
3171.95900088344	1732
3173.94362103577	1775
3175.92771016259	1750.25
3177.91126850484	1718.25
3179.89429630312	1749.25
3181.87679379782	1719.25
3183.85876122903	1763.5
3185.84019883657	1719.75
3187.82110685997	1738.5
3189.80148553851	1749.75
3191.78133511116	1752.25
3193.76065581664	1753.5
3195.73944789337	1745.25
3197.7177115795	1753.25
3199.6954471129	1747.5
3201.67265473114	1756.25
3203.64933467153	1750
3205.62548717107	1789.25
3207.60111246648	1769.75
3209.57621079421	1779.5
3211.55078239041	1761
3213.52482749093	1779.75
3215.49834633133	1776
3217.4713391469	1776.5
3219.44380617262	1770.25
3221.41574764317	1802.5
3223.38716379296	1790
3225.35805485607	1784.75
3227.32842106631	1788.5
3229.29826265718	1790.75
3231.26757986187	1809.75
3233.2363729133	1817.25
3235.20464204405	1810
3237.17238748643	1814.5
3239.13960947243	1805.75
3241.10630823374	1847.25
3243.07248400174	1803.5
3245.03813700748	1827.75
3247.00326748177	1819.5
3248.96787565503	1829.5
3250.93196175742	1817
3252.89552601877	1817.75
3254.8585686686	1823.5
3256.82108993612	1826.75
3258.78309005022	1834.5
3260.74456923948	1841.25
3262.70552773215	1829
3264.66596575617	1823
3266.62588353916	1821.5
3268.58528130843	1830
3270.54415929094	1848.5
3272.50251771336	1829.75
3274.46035680201	1819.75
3276.4176767829	1854.25
3278.37447788171	1851.75
3280.33076032379	1855
3282.28652433416	1828.5
3284.24177013751	1851.5
3286.1964979582	1840
3288.15070802027	1843.75
3290.10440054741	1857
3292.05757576298	1837
3294.01023389001	1832.25
3295.96237515119	1848
3297.91399976887	1861.5
3299.86510796506	1846.5
3301.81569996142	1868.25
3303.76577597932	1851.75
3305.7153362397	1849
3307.66438096324	1864.75
3309.61291037024	1862.25
3311.56092468064	1838.25
3313.50842411404	1837.25
3315.45540888971	1885.25
3317.40187922656	1871.5
3319.34783534315	1866.5
3321.29327745768	1842.25
3323.23820578801	1838.75
3325.18262055164	1863.25
3327.1265219657	1876.75
3329.06991024699	1860.75
3331.01278561194	1859.75
3332.95514827662	1869
3334.89699845674	1860.5
3336.83833636766	1870.25
3338.77916222434	1836.5
3340.71947624143	1857.75
3342.65927863317	1861
3344.59856961346	1847
3346.53734939584	1869.25
3348.47561819344	1844
3350.41337621906	1843.75
3352.35062368513	1857.25
3354.28736080368	1845.5
3356.22358778637	1843.75
3358.15930484452	1856
3360.09451218904	1889
3362.02921003047	1887.25
3363.96339857898	1867.75
3365.89707804436	1861.5
3367.83024863602	1870.25
3369.76291056299	1853.5
3371.69506403389	1869.25
3373.62670925699	1889.25
3375.55784644016	1877.5
3377.4884757909	1854
3379.41859751629	1870
3381.34821182305	1892.75
3383.27731891749	1894.75
3385.20591900555	1894
3387.13401229276	1905.25
3389.06159898426	1891.5
3390.9886792848	1895.25
3392.91525339872	1897.75
3394.84132152998	1919.25
3396.76688388213	1901
3398.69194065833	1894.5
3400.61649206133	1910.25
3402.54053829348	1925
3404.46407955672	1889.5
3406.3871160526	1919.75
3408.30964798225	1902.75
3410.23167554639	1926.5
3412.15319894535	1914
3414.07421837904	1917.25
3415.99473404695	1912
3417.91474614817	1917.75
3419.83425488136	1943
3421.75326044479	1900.75
3423.67176303631	1919.75
3425.58976285332	1905.5
3427.50726009282	1938.75
3429.42425495143	1910.25
3431.34074762528	1924.25
3433.25673831012	1903.25
3435.17222720127	1914.5
3437.08721449362	1936.75
3439.00170038164	1919
3440.91568505936	1943
3442.82916872039	1941.75
3444.74215155791	1922
3446.65463376468	1908.25
3448.566615533	1926.5
3450.47809705476	1904.5
3452.3890785214	1898
3454.29956012393	1924
3456.20954205293	1927
3458.11902449853	1927
3460.02800765041	1908
3461.93649169784	1926.25
3463.84447682962	1915.5
3465.75196323412	1923.5
3467.65895109925	1914
3469.56544061249	1953.5
3471.47143196086	1903.5
3473.37692533093	1908
3475.28192090884	1912.25
3477.18641888026	1941.25
3479.09041943039	1927
3480.99392274402	1919.5
3482.89692900545	1909
3484.79943839853	1903.25
3486.70145110666	1929
3488.60296731277	1929.75
3490.50398719933	1943.75
3492.40451094836	1928.5
3494.30453874141	1921
3496.20407075956	1938.75
3498.10310718342	1926.75
3500.00164819315	1915