201.866871357053	1186.75
204.754250281456	1197
207.640596790939	1190
210.525911876301	1184.5
213.41019652569	1197.5
216.293451724511	1191.25
219.175678455486	1190.75
222.056877698663	1205
224.937050431391	1189.5
227.816197628365	1207.25
230.694320261604	1204.5
233.571419300504	1205.5
236.447495711765	1218.5
239.322550459507	1203.75
242.196584505184	1231.25
245.069598807628	1215.75
247.94159432308	1227.25
250.812572005157	1247.5
253.682532804885	1232
256.551477670701	1241.5
259.419407548458	1238.5
262.286323381442	1240
265.152226110364	1256
268.017116673389	1241.75
270.880996006118	1249
273.743865041624	1256
276.605724710438	1253
279.466575940565	1242.75
282.326419657499	1258.5
285.185256784201	1266.5
288.04308824116	1249.75
290.899914946356	1270.25
293.75573781526	1267.75
296.610557760899	1253.25
299.464375693819	1251.75
302.317192522079	1267
305.169009151297	1271.25
308.019826484655	1279.25
310.869645422872	1258.5
313.718466864235	1276
316.566291704615	1253.75
319.41312083746	1274
322.258955153805	1267.5
325.103795542294	1248.75
327.947642889129	1273
330.79049807819	1255
333.63236199093	1267.25
336.473235506447	1251
339.313119501453	1262.75
342.152014850323	1265.25
344.989922425064	1269
347.826843095356	1263.5
350.662777728529	1275
353.497727189577	1282.25
356.331692341196	1283.25
359.164674043732	1277.25
361.996673155267	1298
364.827690531538	1293.25
367.657727026021	1302.25
370.486783489887	1296
373.314860772046	1309.25
376.14195971912	1291.75
378.968081175469	1284
381.793225983214	1286
384.617394982201	1296
387.44058901005	1301.5
390.262808902134	1292.75
393.084055491614	1291.25
395.904329609395	1305.75
398.723632084216	1296
401.541963742572	1293.75
404.359325408781	1311.75
407.17571790494	1308.75
409.991142050985	1323.5
412.805598664665	1308.25
415.619088561551	1302.25
418.431612555051	1325.5
421.243171456419	1303.75
424.05376607476	1322.75
426.86339721702	1314.25
429.672065688025	1331.5
432.479772290455	1344.75
435.28651782488	1326.5
438.092303089737	1337.5
440.897128881362	1333.25
443.700995993992	1329
446.503905219761	1336
449.305857348711	1353.75
452.106853168798	1333
454.906893465921	1323.5
457.705979023886	1321.75
460.504110624441	1319
463.301289047302	1317.25
466.09751507009	1346.25
468.892789468424	1338
471.687113015869	1336.25
474.480486483952	1331.75
477.272910642201	1325.5
480.064386258111	1337.25
482.854914097161	1351.25
485.644494922841	1345.5
488.433129496637	1357.25
491.22081857805	1335
494.007562924587	1362.25
496.793363291787	1356.75
499.578220433219	1356
502.362135100475	1367.75
505.145108043209	1363.75
507.927140009101	1371.75
510.70823174391	1356
513.488383991435	1371.25
516.267597493556	1380.25
519.045872990221	1371.5
521.823211219462	1359.75
524.5996129174	1379.5
527.375078818234	1386.25
530.149609654287	1381
532.923206155968	1367.5
535.695869051803	1377.25
538.46759906845	1374.5
541.238396930667	1387.25
544.008263361365	1374.5
546.777199081581	1378.25
549.545204810496	1378.25
552.312281265439	1356.75
555.078429161901	1350.5
557.843649213536	1375.75
560.607942132158	1356
563.371308627753	1379.5
566.133749408497	1398.5
568.895265180758	1370.75
571.655856649067	1397
574.415524516192	1386.5
577.174269483075	1385.75
579.932092248886	1402
582.688993510996	1417.5
585.444973965024	1421.5
588.200034304796	1417.75
590.954175222372	1417.5
593.707397408072	1435.75
596.459701550436	1424.25
599.211088336284	1409.75
601.961558450671	1400
604.711112576934	1382
607.459751396673	1385
610.207475589751	1378
612.954285834339	1404
615.70018280688	1372
618.445167182103	1385
621.189239633057	1361.25
623.932400831087	1383.75
626.674651445839	1378.75
629.415992145303	1384.25
632.156423595745	1365
634.895946461815	1366.75
637.634561406448	1370
640.372269090962	1377
643.109070174981	1387.5
645.84496531651	1384.5
648.579955171891	1385.75
651.314040395848	1365.75
654.047221641459	1372.25
656.779499560178	1379.75
659.510874801831	1382.5
662.241348014646	1382.25
664.970919845243	1391
667.699590938608	1390
670.427361938164	1411.25
673.154233485732	1388.25
675.880206221526	1408
678.605280784208	1442.5
681.329457810832	1451.25
684.052737936921	1438
686.77512179639	1438
689.496610021632	1397.75
692.217203243456	1394
694.936902091147	1418.25
697.655707192428	1413.25
700.373619173495	1370.25
703.090638659013	1389.5
705.806766272093	1375.25
708.522002634379	1376.75
711.236348365948	1367.75
713.949804085381	1388.25
716.662370409764	1393.5
719.374047954676	1354.5
722.084837334191	1391.75
724.79473916091	1375.5
727.50375404595	1387.75
730.21188259892	1378.5
732.919125427998	1383.75
735.625483139858	1400.25
738.330956339726	1392.75
741.035545631373	1397.25
743.739251617109	1401.5
746.44207489779	1419.5
749.144016072856	1400
751.845075740273	1415
754.545254496604	1399.5
757.244552936979	1387
759.942971655083	1402
762.640511243225	1402.5
765.337172292252	1390
768.032955391651	1400
770.727861129485	1394.75
773.421890092416	1393.5
776.11504286572	1398.75
778.807320033299	1423.75
781.49872217765	1402
784.189249879911	1393.75
786.87890371984	1392.75
789.567684275826	1399.5
792.255592124909	1391.5
794.942627842762	1395.75
797.628792003709	1386.75
800.314085180718	1389.75
802.998507945429	1399.5
805.682060868145	1403.5
808.364744517821	1396.25
811.046559462106	1409.25
813.727506267312	1396.25
816.407585498422	1397
819.086797719131	1414.5
821.765143491823	1422
824.442623377565	1405.75
827.119237936129	1438.75
829.794987726006	1411.5
832.469873304377	1423
835.143895227169	1438.5
837.817054048985	1443.25
840.489350323206	1440.25
843.160784601894	1438.75
845.831357435894	1452
848.501069374742	1455.5
851.169920966756	1437.25
853.837912758989	1458.75
856.505045297233	1439
859.171319126073	1445.75
861.836734788825	1438.25
864.501292827581	1457
867.164993783208	1444.5
869.827838195363	1442
872.489826602455	1439.25
875.150959541702	1436
877.811237549104	1450.75
880.470661159458	1449
883.129230906359	1447
885.786947322208	1453.5
888.443810938208	1456.75
891.099822284387	1454.25
893.754981889586	1450.5
896.409290281453	1463.75
899.062747986487	1469.75
901.715355530001	1472.5
904.367113436154	1452
907.018022227933	1475
909.668082427173	1449.25
912.317294554575	1474.5
914.965659129661	1461
917.613176670838	1475.25
920.259847695365	1464
922.90567271936	1474
925.550652257826	1492.5
928.194786824624	1500.25
930.838076932514	1500
933.480523093111	1491.5
936.122125816956	1482
938.762885613448	1520.25
941.402802990899	1480.75
944.041878456524	1496.25
946.680112516429	1496.75
949.317505675633	1528.75
951.954058438084	1538
954.589771306634	1528.5
957.224644783051	1529.25
959.858679368047	1500.25
962.491875561238	1522.5
965.124233861212	1512.25
967.755754765453	1488
970.386438770423	1515.25
973.016286371502	1515.25
975.645298063046	1520.75
978.273474338357	1516.5
980.900815689675	1516
983.527322608245	1523.75
986.152995584248	1521
988.777835106835	1550.5
991.401841664151	1523.25
994.025015743307	1541.25
996.64735783041	1533.5
999.268868410535	1522.5
1001.88954796777	1539.75
1004.50939698518	1564.25
1007.12841594484	1597.5
1009.74660532783	1569.75
1012.36396561423	1562.25
1014.98049728314	1579
1017.59620081267	1577.25
1020.21107667995	1588.75
1022.82512536112	1586.5
1025.43834733138	1604.5
1028.05074306492	1588
1030.66231303501	1615.25
1033.27305771392	1624.75
1035.88297757299	1607.25
1038.49207308257	1620.75
1041.10034471211	1602.75
1043.70779293008	1636.25
1046.31441820402	1631
1048.92022100052	1649.75
1051.52520178525	1650
1054.12936102295	1646.25
1056.73269917742	1690.5
1059.33521671154	1707.75
1061.93691408729	1712.75
1064.53779176572	1694.5
1067.13785020694	1684.75
1069.73708987022	1682
1072.33551121386	1689.5
1074.93311469528	1660.75
1077.52990077103	1683
1080.12586989674	1667.5
1082.72102252715	1681
1085.31535911612	1669.25
1087.90888011663	1689
1090.50158598078	1703
1093.09347715979	1684.25
1095.68455410403	1701.25
1098.27481726296	1696
1100.86426708523	1717.25
1103.45290401857	1714.75
1106.04072850991	1729.5
1108.6277410053	1720.25
1111.21394194993	1721.25
1113.79933178816	1755
1116.3839109635	1756
1118.96767991862	1783
1121.55063909539	1764.25
1124.13278893477	1800.5
1126.71412987696	1800
1129.29466236132	1857.75
1131.87438682637	1822.75
1134.45330370982	1837.75
1137.03141344858	1837.75
1139.60871647873	1854.25
1142.18521323554	1893
1144.7609041535	1878.25
1147.33578966629	1868.25
1149.90987020677	1847.5
1152.48314620702	1831
1155.05561809835	1846.5
1157.62728631126	1890.75
1160.19815127545	1858.75
1162.76821341988	1869
1165.33747317271	1882
1167.90593096133	1890.5
1170.47358721235	1881.25
1173.04044235163	1877.75
1175.60649680425	1901.75
1178.17175099454	1893.75
1180.73620534607	1908.5
1183.29986028165	1916.75
1185.86271622336	1901
1188.42477359249	1923
1190.98603280964	1937.5
1193.54649429462	1940.75
1196.10615846653	1946
1198.66502574373	1968.5
1201.22309654385	1969.5
1203.78037128379	1981
1206.33685037971	1976.5
1208.89253424709	1997.5
1211.44742330063	1980.5
1214.00151795439	1991
1216.55481862163	1989.5
1219.10732571498	2011.5
1221.65903964631	2019.75
1224.20996082683	2031.75
1226.760089667	2048.25
1229.30942657664	2040.75
1231.85797196483	2075.5
1234.40572623998	2072.5
1236.95268980981	2112.25
1239.49886308136	2103.5
1242.04424646099	2136
1244.58884035435	2134.75
1247.13264516647	2168.75
1249.67566130166	2173
1252.21788916359	2185.75
1254.75932915524	2217.25
1257.29998167896	2226.5
1259.8398471364	2224.75
1262.37892592858	2263.5
1264.91721845586	2278
1267.45472511795	2300
1269.9914463139	2316
1272.52738244213	2336.75
1275.06253390041	2303.75
1277.59690108587	2357
1280.130484395	2391.75
1282.66328422368	2417.25
1285.19530096712	2385.75
1287.72653501993	2428
1290.25698677609	2482.5
1292.78665662895	2565.75
1295.31554497125	2574.5
1297.84365219511	2589.5
1300.37097869203	2542.5
1302.89752485292	2570.5
1305.42329106806	2564
1307.94827772713	2608.5
1310.47248521921	2598
1312.99591393279	2640
1315.51856425575	2653
1318.04043657537	2657
1320.56153127836	2693.25
1323.08184875083	2740
1325.6013893783	2732.25
1328.12015354572	2766.75
1330.63814163744	2824
1333.15535403727	2850.25
1335.67179112839	2944.75
1338.18745329347	2965.75
1340.70234091455	3060
1343.21645437314	3091.25
1345.72979405019	3097.5
1348.24236032607	3051.5
1350.75415358059	3093.75
1353.26517419303	3096.5
1355.7754225421	3084.25
1358.28489900594	3160.25
1360.79360396218	3203.75
1363.30153778788	3211.5
1365.80870085955	3204.25
1368.31509355319	3260.5
1370.82071624425	3287.75
1373.32556930762	3289.75
1375.8296531177	3307.75
1378.33296804833	3343.5
1380.83551447282	3371
1383.33729276399	3429.75
1385.83830329408	3452.75
1388.33854643489	3465.5
1390.83802255762	3500.75
1393.33673203302	3552
1395.83467523128	3571.75
1398.33185252212	3595
1400.82826427472	3628.25
1403.32391085777	3694.75
1405.81879263948	3714
1408.31290998752	3772
1410.80626326908	3793
1413.29885285087	3876.75
1415.79067909909	3910.5
1418.28174237944	3979.75
1420.77204305717	4013
1423.26158149702	4054.75
1425.75035806323	4139
1428.2383731196	4204.5
1430.72562702943	4276.75
1433.21212015554	4366.25
1435.69785286029	4430
1438.18282550555	4530.5
1440.66703845276	4564.75
1443.15049206284	4587.75
1445.6331866963	4733.5
1448.11512271316	4771.5
1450.59630047298	4893.5
1453.07672033486	4967
1455.55638265748	5023.25
1458.03528779902	5003.75
1460.51343611725	5101.75
1462.99082796946	5163.5
1465.46746371252	5191.75
1467.94334370285	5278
1470.41846829642	5287.5
1472.89283784878	5400.5
1475.36645271503	5472.75
1477.83931324984	5491.25
1480.31141980743	5572
1482.78277274164	5671.25
1485.25337240583	5673.5
1487.72321915297	5755.75
1490.19231333557	5802
1492.66065530577	5912.75
1495.12824541525	5962.25
1497.5950840153	6011
1500.06117145678	6093.5
1502.52650809014	6163.25
1504.99109426543	6222.5
1507.45493033228	6306.25
1509.91801663992	6405.5
1512.38035353717	6500
1514.84194137248	6570.5
1517.30278049386	6723.75
1519.76287124895	6804
1522.22221398497	6961.25
1524.68080904877	7133.25
1527.13865678681	7307
1529.59575754514	7414
1532.05211166946	7432.25
1534.50771950503	7398.25
1536.96258139678	7442.75
1539.41669768925	7524
1541.87006872656	7590.75
1544.32269485252	7716.25
1546.77457641051	7751.75
1549.22571374357	7914.75
1551.67610719434	7961.75
1554.12575710513	8093.75
1556.57466381786	8163.5
1559.02282767408	8276.75
1561.470249015	8341.5
1563.91692818144	8436.75
1566.3628655139	8600
1568.80806135249	8663.75
1571.252516037	8683.75
1573.6962299068	8829.75
1576.139203301	8914.75
1578.58143655828	9065.75
1581.02293001704	9157.25
1583.46368401528	9170.25
1585.90369889071	9322.25
1588.34297498065	9406.75
1590.7815126221	9547
1593.21931215174	9578.5
1595.65637390588	9616.75
1598.09269822053	9689.25
1600.52828543135	9723.25
1602.96313587367	9868.25
1605.3972498825	9872.25
1607.83062779252	9865
1610.26326993808	10017.75
1612.69517665322	10051
1615.12634827165	10100
1617.55678512676	10184
1619.98648755164	10139
1622.41545587903	10260.5
1624.84369044138	10275.75
1627.27119157085	10439.5
1629.69795959924	10401
1632.12399485809	10485.75
1634.54929767859	10479.75
1636.97386839165	10653.5
1639.39770732789	10723
1641.8208148176	10748
1644.24319119078	10735.5
1646.66483677715	10834.5
1649.08575190611	10908.25
1651.50593690677	10992.25
1653.92539210795	11104.5
1656.3441178382	11105
1658.76211442575	11229.5
1661.17938219855	11282.5
1663.59592148428	11427.5
1666.01173261033	11473
1668.42681590377	11601.5
1670.84117169145	11657.5
1673.25480029991	11566.5
1675.66770205541	11751.75
1678.07987728393	11914.5
1680.49132631119	11996.25
1682.90204946263	11975
1685.31204706342	12010.75
1687.72131943847	12142.5
1690.1298669124	12237.25
1692.53768980957	12313.25
1694.94478845411	12294
1697.35116316982	12397.25
1699.75681428031	12465.5
1702.16174210887	12482.25
1704.56594697858	12532
1706.96942921222	12598.25
1709.37218913235	12691
1711.77422706126	12607
1714.17554332098	12668.25
1716.57613823331	12924.75
1718.97601211977	12815
1721.37516530169	12787.25
1723.77359810006	12924.25
1726.17131083573	12903.75
1728.56830382922	12986.5
1730.96457740087	13010.5
1733.36013187075	12999.25
1735.75496755868	13038
1738.14908478428	13128.5
1740.54248386689	13206.75
1742.93516512566	13232.5
1745.32712887946	13232
1747.71837544697	13329.5
1750.10890514662	13439.75
1752.49871829661	13432.5
1754.88781521492	13534.75
1757.27619621929	13695
1759.66386162726	13690.75
1762.05081175613	13695.75
1764.43704692297	13866
1766.82256744465	13876.5
1769.20737363782	14019.25
1771.59146581888	13989.25
1773.97484430405	14227.75
1776.35750940932	14239.5
1778.73946145048	14301.75
1781.12070074309	14382.25
1783.50122760249	14606.25
1785.88104234385	14680
1788.26014528209	14764
1790.63853673197	14764.25
1793.01621700796	14914.25
1795.39318642444	15023.5
1797.76944529549	15152.25
1800.14499393504	15168.25
1802.51983265681	15197.25
1804.8939617743	15318.5
1807.26738160085	15511
1809.64009244957	15506.75
1812.01209463339	15459
1814.38338846504	15686
1816.75397425706	15635.75
1819.12385232181	15762.5
1821.49302297142	15847.25
1823.86148651789	15850.75
1826.22924327299	15860.25
1828.59629354831	16130.5
1830.96263765526	16068.25
1833.32827590507	16182.5
1835.69320860877	16142.25
1838.05743607724	16245.5
1840.42095862113	16223
1842.78377655097	16416
1845.14589017707	16446.25
1847.50729980956	16483.25
1849.86800575843	16538.5
1852.22800833346	16609.5
1854.58730784427	16681.25
1856.94590460032	16824.5
1859.30379891087	16803.25
1861.66099108503	16911.25
1864.01748143175	17088.75
1866.37327025978	17085
1868.72835787773	17115.5
1871.08274459404	17143.75
1873.43643071697	17267.5
1875.78941655464	17502
1878.14170241499	17413
1880.4932886058	17551.75
1882.84417543469	17729.25
1885.19436320915	17697.25
1887.54385223646	17755.5
1889.89264282378	17966.5
1892.24073527809	17953.75
1894.58812990625	18052
1896.93482701494	18355.75
1899.28082691067	18348
1901.62612989985	18358.25
1903.97073628868	18488.5
1906.31464638326	18569.25
1908.6578604895	18640.75
1911.00037891321	18768.5
1913.34220196001	18890.5
1915.68332993538	18930.75
1918.02376314468	18887.5
1920.36350189311	18992.5
1922.70254648573	19043
1925.04089722744	19060.5
1927.37855442304	19047
1929.71551837715	19248.25
1932.05178939427	19142.25
1934.38736777876	19211.25
1936.72225383484	19202.75
1939.0564478666	19498.75
1941.38995017799	19233.25
1943.72276107283	19511.5
1946.05488085479	19321.75
1948.38630982744	19216.5
1950.71704829419	19455.75
1953.04709655832	19297.25
1955.376454923	19397
1957.70512369126	19416.5
1960.03310316599	19471
1962.36039364999	19441
1964.68699544589	19367
1967.01290885622	19560
1969.33813418338	19632.25
1971.66267172965	19713.5
1973.98652179718	19738.25
1976.309684688	19921
1978.63216070402	19968
1980.95395014705	20256
1983.27505331873	20043.5
1985.59547052064	20121.25
1987.9152020542	20220
1990.23424822074	20208
1992.55260932146	20381.75
1994.87028565746	20379
1997.18727752968	20464
1999.50358523901	20596.25
2001.81920908618	20702.5
2004.13414937184	20828.5
2006.44840639651	21085.25
2008.7619804606	21105.5
2011.07487186442	21369
2013.38708090815	21428.25
2015.6986078919	21366.25
2018.00945311564	21524.25
2020.31961687924	21639
2022.62909948247	21856
2024.93790122499	21910
2027.24602240636	22051.5
2029.55346332604	22147.75
2031.86022428337	22245.75
2034.16630557761	22422.25
2036.47170750791	22267.25
2038.77643037331	22539.75
2041.08047447275	22746.5
2043.38384010509	22685
2045.68652756907	22749.5
2047.98853716335	22826.5
2050.28986918648	22927.25
2052.59052393692	23105
2054.89050171302	23196.5
2057.18980281307	23351
2059.4884275352	23425
2061.78637617753	23247.5
2064.08364903802	23348
2066.38024641457	23449.25
2068.67616860497	23577.75
2070.97141590694	23536.5
2073.26598861809	23697.75
2075.55988703595	23614.25
2077.85311145796	23823.25
2080.14566218145	23851
2082.43753950371	24031.5
2084.72874372188	24052.5
2087.01927513307	24063.5
2089.30913403428	24134
2091.59832072241	24187.75
2093.88683549429	24213
2096.17467864666	24388.5
2098.46185047619	24685.5
2100.74835127944	24630.75
2103.03418135292	24736.5
2105.31934099303	24685
2107.6038304961	24845.5
2109.88765015838	25033.25
2112.17080027602	25012
2114.45328114513	25268.25
2116.7350930617	25215.5
2119.01623632165	25256.25
2121.29671122085	25089.75
2123.57651805505	25371.25
2125.85565711996	25427.75
2128.13412871117	25560.25
2130.41193312424	25669.5
2132.68907065462	25650.25
2134.96554159771	25745
2137.24134624881	25835.25
2139.51648490317	25780
2141.79095785594	25848.5
2144.0647654022	26067.5
2146.33790783698	25863.25
2148.61038545524	25833.5
2150.88219855182	26167.25
2153.15334742154	26105.75
2155.42383235911	26297.5
2157.69365365921	26249.25
2159.9628116164	26149
2162.23130652522	26039.25
2164.49913868011	26158.75
2166.76630837544	26201.5
2169.03281590553	26153
2171.29866156461	26158.5
2173.56384564685	26243.75
2175.82836844637	26047.25
2178.0922302572	26117
2180.35543137332	25872.25
2182.61797208862	25942.25
2184.87985269695	25763
2187.14107349208	25710
2189.40163476773	25878
2191.66153681753	25732
2193.92077993507	25521.5
2196.17936441386	25471.75
2198.43729054735	25492.5
2200.69455862894	25390.75
2202.95116895194	25370
2205.20712180963	25259.75
2207.4624174952	25069
2209.71705630179	25142.25
2211.97103852248	24990
2214.22436445031	24895.75
2216.47703437819	24804.75
2218.72904859905	24611
2220.98040740571	24756
2223.23111109096	24552.75
2225.4811599475	24421.25
2227.730554268	24349.5
2229.97929434505	24180.5
2232.22738047118	24000.5
2234.47481293889	24112
2236.72159204058	24175.75
2238.96771806864	24007.75
2241.21319131537	23744.5
2243.458012073	23507.75
2245.70218063374	23608.5
2247.94569728973	23572.25
2250.18856233304	23260.75
2252.4307760557	23113.25
2254.67233874967	23177.25
2256.91325070687	23037.25
2259.15351221915	22823.75
2261.39312357831	22722.75
2263.63208507611	22512.75
2265.87039700422	22536.5
2268.1080596543	22428.25
2270.34507331792	22288.5
2272.5814382866	22188.5
2274.81715485183	22263.75
2277.05222330502	22072
2279.28664393755	21948.5
2281.52041704073	21676.5
2283.75354290581	21806.75
2285.98602182401	21483.5
2288.21785408649	21397
2290.44903998434	21318.25
2292.67957980862	21236.75
2294.90947385033	21037.75
2297.1387224004	21008
2299.36732574976	21055
2301.59528418921	20874.25
2303.82259800958	20685.25
2306.04926750158	20660.5
2308.27529295593	20469.5
2310.50067466325	20455.25
2312.72541291412	20261.5
2314.9495079991	20289.5
2317.17296020866	20039.25
2319.39576983324	20051.25
2321.61793716322	19872.25
2323.83946248895	19803.5
2326.0603461007	19561.25
2328.28058828871	19520.5
2330.50018934317	19432
2332.7191495542	19376.75
2334.93746921192	19169.25
2337.15514860633	19114.75
2339.37218802743	19073.25
2341.58858776516	18862
2343.80434810941	18837.25
2346.01946935001	18753
2348.23395177676	18644.75
2350.44779567939	18592.75
2352.66100134759	18388.5
2354.87356907102	18381.5
2357.08549913925	18232.25
2359.29679184185	18092.5
2361.50744746829	18242.5
2363.71746630804	18066.25
2365.92684865049	17791.25
2368.13559478499	17721
2370.34370500083	17726.5
2372.55117958727	17567
2374.75801883353	17530.75
2376.96422302874	17398.5
2379.16979246202	17256.25
2381.37472742244	17228.75
2383.57902819898	17200
2385.78269508063	17050.25
2387.98572835629	16953.5
2390.18812831482	16876
2392.38989524505	16853.5
2394.59102943573	16762.5
2396.79153117559	16724.75
2398.9914007533	16593
2401.19063845748	16596.75
2403.38924457672	16409
2405.58721939951	16375
2407.78456321435	16292.5
2409.98127630966	16171.5
2412.17735897383	16224.75
2414.37281149518	16096.75
2416.56763416198	16005.25
2418.76182726249	16101.5
2420.95539108487	15852
2423.14832591726	15876.5
2425.34063204776	15667.25
2427.53230976439	15639.75
2429.72335935513	15607
2431.91378110795	15439.75
2434.10357531071	15394.75
2436.29274225126	15531.75
2438.48128221739	15377.25
2440.66919549684	15244.75
2442.8564823773	15237.5
2445.04314314641	15153.5
2447.22917809176	15066
2449.4145875009	15005.5
2451.59937166131	15009.5
2453.78353086044	14906.25
2455.96706538567	14861.25
2458.14997552437	14695.25
2460.33226156379	14602.25
2462.51392379119	14612.75
2464.69496249376	14507.25
2466.87537795862	14413
2469.05517047288	14399.5
2471.23434032358	14306.5
2473.41288779767	14350.5
2475.59081318212	14150
2477.76811676378	14166.5
2479.9447988295	14085.75
2482.12085966605	13897
2484.29629956016	14026
2486.4711187985	13880.5
2488.64531766769	13920.25
2490.8188964543	13802
2492.99185544484	13681.75
2495.16419492579	13692.5
2497.33591518353	13665
2499.50701650444	13639
2501.67749917482	13651.25
2503.84736348091	13472
2506.01660970891	13479.25
2508.18523814496	13390.5
2510.35324907515	13406.75
2512.52064278551	13406
2514.68741956201	13421.5
2516.85357969058	13471.25
2519.01912345709	13421.5
2521.18405114735	13264.75
2523.34836304711	13222.25
2525.51205944209	13185.25
2527.6751406179	13170.25
2529.83760686016	13173.5
2531.99945845439	13060.25
2534.16069568607	13103.25
2536.3213188406	13023
2538.48132820336	12864.25
2540.64072405965	12904.75
2542.79950669471	12793.75
2544.95767639373	12984.25
2547.11523344184	12788.5
2549.27217812411	12778.75
2551.42851072555	12720.75
2553.58423153111	12614
2555.7393408257	12617.75
2557.89383889413	12579.5
2560.04772602119	12527.5
2562.20100249158	12414
2564.35366858996	12325.75
2566.50572460093	12315.25
2568.65717080901	12289
2570.80800749867	12259.75
2572.95823495433	12170.25
2575.10785346031	12042.75
2577.25686330093	11921.25
2579.40526476038	11899
2581.55305812282	11892.5
2583.70024367237	11852.75
2585.84682169303	11787.75
2587.99279246879	11717.75
2590.13815628354	11714.5
2592.28291342112	11633.75
2594.42706416531	11598.25
2596.57060879981	11658.25
2598.71354760826	11747.25
2600.85588087425	11540
2602.99760888127	11505.75
2605.13873191278	11516.75
2607.27925025215	11407.25
2609.41916418269	11463.25
2611.55847398764	11424
2613.69717995017	11362.25
2615.8352823534	11434.5
2617.97278148034	11357
2620.10967761398	11293.25
2622.2459710372	11367
2624.38166203284	11315.75
2626.51675088365	11276.25
2628.65123787232	11237
2630.78512328145	11176.75
2632.9184073936	11123.5
2635.05109049124	11180
2637.18317285676	11153
2639.31465477249	11185.75
2641.44553652067	11158.25
2643.5758183835	11113.75
2645.70550064309	11099.5
2647.83458358144	11082.5
2649.96306748053	11092
2652.09095262224	11105
2654.21823928836	11125.75
2656.34492776063	11010.25
2658.47101832071	11004.5
2660.59651125015	11016.25
2662.72140683047	10913.75
2664.84570534309	11050.75
2666.96940706935	10895.5
2669.0925122905	10860
2671.21502128773	10878.75
2673.33693434216	10937.75
2675.45825173479	10956.5
2677.57897374658	10886
2679.6991006584	11015.75
2681.81863275101	10833.75
2683.93757030512	10855.5
2686.05591360133	10838.5
2688.17366292021	10838.75
2690.29081854218	10847.25
2692.40738074762	10761.25
2694.52334981681	10741.5
2696.63872602995	10719.25
2698.75350966714	10771.25
2700.86770100842	10812.75
2702.98130033372	10699
2705.09430792289	10654.5
2707.20672405572	10717
2709.31854901185	10812.25
2711.42978307091	10715.25
2713.54042651238	10755.5
2715.65047961567	10779
2717.7599426601	10757.75
2719.86881592492	10746.25
2721.97709968924	10750
2724.08479423213	10667.75
2726.19189983255	10709.25
2728.29841676935	10683.5
2730.40434532131	10740.25
2732.5096857671	10739
2734.61443838532	10740.75
2736.71860345444	10666.25
2738.82218125287	10748
2740.92517205889	10726.25
2743.02757615073	10787.25
2745.12939380646	10686.5
2747.23062530411	10736.5
2749.33127092159	10818
2751.4313309367	10648.25
2753.53080562717	10709.75
2755.62969527058	10753.5
2757.72800014448	10662.25
2759.82572052625	10702.5
2761.92285669323	10697.5
2764.0194089226	10812
2766.11537749147	10754.5
2768.21076267686	10769
2770.30556475566	10718.5
2772.39978400465	10698.75
2774.49342070054	10750.25
2776.58647511991	10789.25
2778.67894753923	10822.25
2780.77083823487	10809
2782.8621474831	10724
2784.95287556007	10738.75
2787.04302274184	10754.25
2789.13258930433	10767
2791.22157552338	10737.5
2793.30998167471	10680
2795.39780803392	10862.25
2797.48505487651	10784.5
2799.57172247786	10750
2801.65781111324	10783.5
2803.74332105781	10742.25
2805.82825258661	10771.25
2807.91260597457	10818
2809.9963814965	10825
2812.07957942711	10809.25
2814.16220004096	10766.25
2816.24424361252	10844.25
2818.32571041614	10860
2820.40660072604	10839.25
2822.48691481632	10918.25
2824.56665296098	10920.25
2826.64581543388	10962.25
2828.72440250876	10994.75
2830.80241445925	11067.5
2832.87985155885	11058.25
2834.95671408094	11164.25
2837.03300229875	11313.5
2839.10871648544	11382
2841.18385691399	11617.25
2843.25842385729	11757.5
2845.33241758808	11808
2847.40583837899	12010.75
2849.4786865025	12071.75
2851.550962231	12031.25
2853.6226658367	11969.5
2855.69379759174	11936.25
2857.76435776806	11879.5
2859.83434663753	11820.5
2861.90376447184	11876.25
2863.97261154259	11800.5
2866.04088812121	11876.25
2868.10859447901	11886.75
2870.17573088717	12002
2872.24229761673	11991.25
2874.30829493859	12044.75
2876.37372312353	12192.25
2878.43858244215	12394
2880.50287316496	12509.5
2882.56659556231	12439.25
2884.6297499044	12400.25
2886.69233646129	12313.25
2888.75435550293	12181
2890.81580729909	12389.25
2892.87669211941	12250
2894.9370102334	12319
2896.99676191039	12347.5
2899.05594741961	12346.25
2901.11456703011	12348.75
2903.1726210108	12296.25
2905.23010963045	12334.25
2907.28703315768	12284.25
2909.34339186096	12385
2911.39918600861	12430.25
2913.45441586879	12365.25
2915.50908170953	12371.75
2917.56318379867	12399.5
2919.61672240395	12400.75
2921.66969779291	12472.75
2923.72211023296	12530.25
2925.77395999134	12486.25
2927.82524733515	12646
2929.87597253133	12534.25
2931.92613584663	12480.75
2933.9757375477	12534.5
2936.02477790097	12505.75
2938.07325717276	12516.25
2940.1211756292	12556.5
2942.16853353626	12471.75
2944.21533115977	12557.25
2946.26156876536	12435.5
2948.30724661853	12471.5
2950.3523649846	12485.5
2952.39692412872	12527.25
2954.44092431587	12509.5
2956.4843658109	12483.5
2958.52724887843	12541.25
2960.56957378296	12606.25
2962.6113407888	12579.25
2964.65255016011	12688
2966.69320216083	12761.75
2968.73329705479	12686.5
2970.77283510559	12752.25
2972.81181657671	12777
2974.85024173141	12843
2976.88811083279	12855.25
2978.92542414379	12925.75
2980.96218192714	12898.25
2982.99838444541	12973.75
2985.034031961	13013.75
2987.06912473612	13041.75
2989.1036630328	13047.5
2991.13764711289	13050.75
2993.17107723804	13157.5
2995.20395366975	13195.25
2997.23627666931	13207.75
2999.26804649782	13322
3001.29926341624	13421.25
3003.32992768528	13392.25
3005.3600395655	13442.25
3007.38959931727	13442.5
3009.41860720076	13553
3011.44706347595	13740.25
3013.47496840263	13626.5
3015.50232224042	13709
3017.5291252487	13755.5
3019.5553776867	13725.5
3021.58107981344	13888.5
3023.60623188773	13893.5
3025.63083416822	13927.25
3027.65488691331	14044
3029.67839038125	13989
3031.70134483007	13972.25
3033.72375051759	14054
3035.74560770145	14089.25
3037.76691663907	14206.25
3039.78767758768	14246.75
3041.80789080431	14206.25
3043.82755654577	14241
3045.84667506867	14329.5
3047.8652466294	14331
3049.88327148418	14324
3051.90074988899	14346
3053.91768209961	14360.5
3055.93406837161	14320.5
3057.94990896033	14385.5
3059.96520412095	14483.75
3061.97995410838	14429.75
3063.99415917734	14433
3066.00781958234	14386.5
3068.02093557766	14533.5
3070.03350741738	14437.75
3072.04553535535	14537
3074.05701964521	14486.75
3076.06796054036	14485
3078.07835829401	14516
3080.08821315912	14593.5
3082.09752538846	14680
3084.10629523454	14471
3086.11452294967	14707.25
3088.12220878592	14635.25
3090.12935299515	14701.75
3092.13595582898	14613.5
3094.1420175388	14696
3096.1475383758	14707.5
3098.15251859088	14688.25
3100.15695843477	14763.75
3102.16085815793	14778.5
3104.16421801062	14730.25
3106.16703824282	14804.75
3108.16931910432	14849.75
3110.17106084464	14804.5
3112.17226371308	14933.75
3114.17292795872	15048.75
3116.17305383034	15075
3118.17264157657	14941
3120.17169144571	15027.5
3122.17020368587	14942.75
3124.16817854492	15027.25
3126.16561627044	15064.75
3128.16251710982	15308.25
3130.15888131017	15255.5
3132.15470911837	15358.75
3134.15000078104	15401.5
3136.14475654455	15431.25
3138.13897665502	15439
3140.13266135835	15359.25
3142.12581090015	15423.5
3144.11842552578	15585.25
3146.11050548036	15636.25
3148.10205100875	15682.75
3150.09306235557	15750.5
3152.08353976515	15567.75
3154.07348348158	15520.25
3156.06289374869	15757.25
3158.05177081006	15665
3160.04011490899	15674.25
3162.02792628852	15789.5
3164.01520519145	15755
3166.00195186029	15758.25
3167.98816653728	15921
3169.97384946442	15873
3171.95900088344	15919
3173.94362103577	15927.75
3175.9277101626	16049.5
3177.91126850484	16113.5
3179.89429630312	16020.75
3181.87679379782	16014.75
3183.85876122904	16164.5
3185.84019883657	16176.5
3187.82110685997	16158.5
3189.80148553851	16115.25
3191.78133511116	16260.5
3193.76065581664	16311.75
3195.73944789337	16280.25
3197.7177115795	16359.5
3199.6954471129	16454.25
3201.67265473114	16488.25
3203.64933467153	16404.25
3205.62548717107	16477
3207.60111246649	16590.5
3209.57621079422	16609.25
3211.55078239041	16585
3213.52482749093	16540
3215.49834633133	16715.25
3217.4713391469	16913
3219.44380617262	16811.25
3221.41574764318	17017.25
3223.38716379296	16851
3225.35805485607	17003
3227.32842106631	17055
3229.29826265718	17181.5
3231.26757986187	17231.5
3233.2363729133	17165
3235.20464204405	17330.75
3237.17238748644	17275.5
3239.13960947243	17343.25
3241.10630823374	17363.5
3243.07248400174	17477.5
3245.03813700748	17611.75
3247.00326748177	17512.5
3248.96787565503	17464.75
3250.93196175742	17561.25
3252.89552601877	17559
3254.8585686686	17580.25
3256.82108993612	17710.5
3258.78309005022	17673.75
3260.74456923948	17730
3262.70552773215	17804.75
3264.66596575617	17790.25
3266.62588353916	17843
3268.58528130843	17826.75
3270.54415929094	17657.75
3272.50251771336	17775.25
3274.46035680202	17993.75
3276.4176767829	18004.5
3278.37447788171	17860.5
3280.33076032379	18012.25
3282.28652433416	17983.75
3284.24177013751	17976.25
3286.1964979582	17944.25
3288.15070802027	18069.25
3290.10440054741	18133
3292.05757576298	17962
3294.01023389001	18092.5
3295.96237515119	18126.5
3297.91399976887	17963
3299.86510796506	18172.5
3301.81569996143	18140.5
3303.76577597932	18076.75
3305.71533623971	18283.5
3307.66438096325	18187.75
3309.61291037024	18144.75
3311.56092468063	18191
3313.50842411404	18126.75
3315.45540888971	18318.5
3317.40187922656	18203.5
3319.34783534315	18160.5
3321.29327745768	18171.75
3323.23820578801	17952.75
3325.18262055164	18202.5
3327.1265219657	18173
3329.06991024699	18217.5
3331.01278561194	18292.25
3332.95514827663	18164.75
3334.89699845675	18254.25
3336.83833636766	18204.25
3338.77916222434	17996.25
3340.71947624143	18151.5
3342.65927863317	18256
3344.59856961347	18218
3346.53734939584	18325.5
3348.47561819344	18188.75
3350.41337621907	18158.75
3352.35062368513	18316.75
3354.28736080368	18204.25
3356.22358778637	18295.5
3358.15930484452	18240
3360.09451218904	18310.5
3362.02921003047	18319
3363.96339857899	18395.5
3365.89707804437	18308.75
3367.83024863603	18335.5
3369.76291056299	18154.25
3371.69506403389	18311.25
3373.62670925699	18344.25
3375.55784644016	18394.25
3377.4884757909	18296
3379.41859751629	18470.75
3381.34821182305	18464.75
3383.27731891749	18479.25
3385.20591900555	18472
3387.13401229276	18534.25
3389.06159898426	18611.5
3390.9886792848	18661.75
3392.91525339872	18789
3394.84132152998	18726.5
3396.76688388213	18667.25
3398.69194065834	18610
3400.61649206133	18739.75
3402.54053829348	18774.25
3404.46407955672	18719
3406.3871160526	18717.75
3408.30964798225	18810
3410.23167554639	18782
3412.15319894535	18890
3414.07421837904	18747
3415.99473404695	18829
3417.91474614817	18936
3419.83425488136	18949
3421.7532604448	18914.5
3423.67176303631	18826.75
3425.58976285332	18876.75
3427.50726009283	18886.25
3429.42425495143	18912.5
3431.34074762528	18906.5
3433.25673831012	18858.75
3435.17222720127	18874.75
3437.08721449362	18923
3439.00170038164	18753
3440.91568505936	18877.5
3442.8291687204	18818
3444.74215155792	18825.75
3446.65463376469	18921.75
3448.566615533	18915.5
3450.47809705476	18887
3452.3890785214	18836.5
3454.29956012393	18926
3456.20954205293	18996
3458.11902449853	18837.25
3460.02800765042	18864
3461.93649169784	18852.75
3463.84447682962	18851
3465.75196323412	18823.25
3467.65895109925	18834.75
3469.56544061249	18889.5
3471.47143196086	18798.25
3473.37692533094	18897.75
3475.28192090884	18719
3477.18641888026	18936.25
3479.09041943039	18921.75
3480.99392274402	18887.25
3482.89692900545	18788.5
3484.79943839853	18916.5
3486.70145110666	18810.75
3488.60296731277	18779.75
3490.50398719933	18763.75
3492.40451094836	18664.5
3494.30453874141	18740.75
3496.20407075956	18938.75
3498.10310718342	18924.75