200.090469251518	1668
202.974751419362	1599
205.858021632263	1649
208.740280737522	1659
211.621529580443	1690
214.501769004371	1650
217.380999850626	1654
220.25922295859	1676
223.136439165646	1700
226.012649307235	1683
228.88785421682	1722
231.762054725918	1667
234.635251664113	1661
237.507445859021	1716
240.378638136346	1693
243.248829319855	1653
246.11802023137	1703
248.986211690826	1711
251.853404516227	1691
254.719599523654	1643
257.584797527335	1705
260.44899933954	1740
263.312205770682	1687
266.174417629303	1752
269.035635722015	1704
271.895860853609	1739
274.755093826978	1716
277.613335443144	1721
280.470586501309	1734
283.326847798766	1726
286.182120131019	1741
289.036404291684	1751
291.889701072574	1782
294.742011263643	1746
297.593335653048	1728
300.443675027094	1754
303.293030170295	1746
306.141401865367	1762
308.988790893174	1788
311.835198032837	1755
314.680624061635	1755
317.525069755113	1792
320.36853588697	1791
323.211023229178	1759
326.052532551923	1795
328.893064623604	1739
331.732620210885	1774
334.57120007867	1778
337.408804990093	1801
340.245435706565	1813
343.081092987733	1833
345.915777591523	1813
348.749490274145	1828
351.582231790049	1866
354.414002891997	1854
357.244804331021	1833
360.074636856443	1892
362.903501215886	1870
365.731398155265	1881
368.558328418814	1865
371.384292749062	1830
374.209291886869	1835
377.033326571407	1892
379.85639754017	1919
382.678505529009	1911
385.499651272065	1844
388.319835501872	1891
391.139058949258	1891
393.957322343453	1887
396.774626412011	1854
399.590971880847	1896
402.406359474258	1926
405.220789914893	1908
408.034263923801	1888
410.8467822204	1982
413.658345522483	1975
416.468954546242	1934
419.278610006277	2003
422.087312615557	1911
424.895063085503	1951
427.701862125901	1974
430.507710444981	1953
433.312608749366	1955
436.116557744146	2001
438.919558132791	2006
441.721610617238	1988
444.522715897856	2054
447.322874673457	2020
450.122087641299	1954
452.920355497092	2028
455.717678935009	1969
458.514058647681	2016
461.309495326219	1996
464.103989660191	2057
466.89754233765	2027
469.690154045114	1959
472.481825467625	2028
475.272557288674	2033
478.062350190281	2073
480.851204852952	2053
483.639121955683	2017
486.426102176007	2032
489.212146189955	1988
491.997254672093	2081
494.781428295471	2048
497.564667731716	2071
500.346973650958	2077
503.128346721878	2070
505.90878761169	2093
508.688296986151	2105
511.46687550957	2082
514.244523844831	2141
517.021242653354	2125
519.797032595132	2143
522.571894328732	2092
525.345828511279	2049
528.11883579849	2130
530.890916844655	2126
533.662072302668	2090
536.432302823985	2095
539.201609058684	2149
541.96999165542	2186
544.737451261473	2132
547.503988522723	2126
550.26960408366	2137
553.034298587394	2198
555.798072675669	2137
558.560926988819	2147
561.322862165849	2169
564.083878844369	2128
566.843977660654	2191
569.603159249604	2169
572.361424244769	2161
575.118773278369	2202
577.87520698124	2216
580.630725982905	2237
583.385330911566	2172
586.139022394076	2189
588.891801055954	2116
591.643667521406	2225
594.394622413318	2178
597.144666353273	2214
599.893799961512	2240
602.64202385701	2250
605.389338657413	2254
608.135744979089	2230
610.881243437092	2252
613.625834645191	2261
616.369519215881	2251
619.112297760374	2228
621.854170888604	2268
624.595139209225	2269
627.335203329614	2292
630.074363855914	2260
632.81262139299	2229
635.549976544436	2209
638.286429912612	2231
641.021982098635	2243
643.756633702364	2239
646.49038532241	2267
649.223237556176	2270
651.955190999808	2236
654.686246248224	2318
657.416403895135	2354
660.145664533011	2289
662.874028753133	2317
665.601497145537	2379
668.328070299071	2337
671.05374880138	2409
673.778533238885	2325
676.502424196839	2322
679.225422259297	2343
681.947528009099	2360
684.668742027927	2395
687.389064896281	2367
690.108497193465	2403
692.827039497621	2360
695.544692385724	2363
698.261456433585	2396
700.977332215847	2350
703.692320305981	2429
706.406421276337	2338
709.11963569808	2371
711.831964141256	2388
714.54340717474	2386
717.253965366304	2427
719.963639282552	2420
722.672429488961	2430
725.380336549904	2480
728.087361028596	2449
730.793503487166	2399
733.498764486594	2449
736.203144586758	2426
738.906644346447	2504
741.60926432331	2458
744.311005073912	2498
747.011867153727	2530
749.711851117121	2458
752.410957517375	2525
755.109186906677	2555
757.806539836132	2525
760.503016855779	2533
763.198618514551	2506
765.893345360346	2567
768.587197939964	2469
771.28017679914	2542
773.972282482566	2541
776.663515533859	2547
779.353876495581	2519
782.043365909241	2562
784.731984315327	2544
787.419732253235	2585
790.106610261366	2553
792.792618877058	2580
795.477758636618	2542
798.162030075313	2573
800.845433727423	2614
803.52797012615	2524
806.209639803714	2571
808.890443291304	2584
811.570381119098	2566
814.249453816265	2619
816.927661910959	2591
819.60500593036	2600
822.281486400603	2672
824.957103846864	2680
827.631858793316	2643
830.305751763135	2649
832.978783278519	2645
835.650953860677	2643
838.322264029848	2669
840.992714305292	2693
843.662305205289	2690
846.331037247157	2712
848.998910947241	2794
851.665926820933	2686
854.332085382674	2749
856.997387145915	2722
859.661832623191	2727
862.325422326066	2735
864.988156765172	2745
867.650036450181	2779
870.311061889846	2775
872.971233591961	2756
875.630552063409	2728
878.28901781013	2782
880.946631337138	2812
883.603393148533	2697
886.259303747484	2783
888.914363636246	2759
891.568573316155	2840
894.22193328767	2834
896.874444050281	2802
899.526106102625	2760
902.176919942416	2841
904.826886066483	2845
907.476004970747	2875
910.124277150255	2856
912.77170309913	2819
915.418283310642	2855
918.064018277175	2895
920.708908490222	2894
923.352954440405	2916
925.996156617486	2883
928.638515510334	2911
931.280031606966	2870
933.920705394521	2904
936.560537359303	3007
939.199527986737	2963
941.837677761392	2972
944.474987167006	2987
947.111456686438	2995
949.747086801734	2966
952.38187799407	3003
955.015830743792	2955
957.648945530418	3022
960.281222832633	3018
962.91266312826	3045
965.543266894336	3097
968.173034607058	2978
970.801966741779	2993
973.43006377307	3014
976.057326174661	3026
978.683754419471	3070
981.309348979623	3003
983.93411032642	2985
986.558038930361	3043
989.181135261144	3100
991.803399787692	3076
994.424832978086	3101
997.045435299653	3112
999.665207218906	3069
1002.2841492016	3104
1004.90226171266	3108
1007.51954521628	3162
1010.13600017584	3125
1012.75162705397	3123
1015.3664263125	3167
1017.9803984125	3201
1020.5935438143	3224
1023.20586297741	3244
1025.81735636063	3273
1028.42802442196	3203
1031.03786761869	3268
1033.64688640732	3254
1036.2550812436	3297
1038.86245258255	3287
1041.46900087844	3351
1044.07472658479	3400
1046.67963015438	3311
1049.28371203927	3336
1051.88697269075	3416
1054.48941255943	3468
1057.09103209513	3646
1059.691831747	3700
1062.29181196343	3753
1064.89097319211	3684
1067.48931587999	3586
1070.08684047333	3515
1072.68354741766	3512
1075.27943715779	3456
1077.87451013787	3449
1080.46876680127	3533
1083.06220759071	3457
1085.65483294822	3515
1088.24664331509	3575
1090.83763913194	3500
1093.42782083869	3480
1096.01718887459	3566
1098.60574367818	3548
1101.19348568732	3539
1103.78041533919	3625
1106.3665330703	3639
1108.95183931646	3627
1111.53633451284	3682
1114.12001909391	3601
1116.70289349349	3697
1119.2849581447	3752
1121.86621348005	3860
1124.44665993134	3982
1127.02629792973	4107
1129.60512790574	4132
1132.18315028919	3913
1134.76036550929	3884
1137.3367739946	3851
1139.912376173	3795
1142.48717247176	3803
1145.06116331748	3753
1147.63434913616	3780
1150.20673035312	3840
1152.77830739307	3853
1155.34908068007	3847
1157.91905063757	3939
1160.48821768838	3959
1163.05658225471	4075
1165.6241447581	3993
1168.19090561951	3991
1170.75686525927	3988
1173.32202409708	3891
1175.88638255206	3954
1178.44994104269	3893
1181.01269998684	3959
1183.57465980182	3930
1186.13582090427	3971
1188.69618371026	3965
1191.25574863529	3904
1193.8145160942	3967
1196.37248650129	4035
1198.92966027025	4022
1201.48603781416	4013
1204.04161954556	4023
1206.59640587635	3976
1209.15039721788	4076
1211.70359398092	4040
1214.25599657564	4071
1216.80760541166	4044
1219.35842089801	4110
1221.90844344314	4182
1224.45767345496	4224
1227.00611134077	4172
1229.55375750736	4217
1232.10061236092	4214
1234.64667630707	4249
1237.1919497509	4239
1239.73643309692	4286
1242.28012674912	4316
1244.82303111089	4372
1247.36514658511	4422
1249.9064735741	4413
1252.44701247964	4346
1254.98676370294	4426
1257.52572764469	4467
1260.06390470506	4538
1262.60129528365	4440
1265.13789977954	4519
1267.67371859128	4632
1270.20875211688	4602
1272.74300075384	4569
1275.2764648991	4564
1277.80914494911	4611
1280.34104129978	4686
1282.87215434652	4731
1285.40248448419	4823
1287.93203210715	4903
1290.46079760927	5102
1292.98878138385	5357
1295.51598382375	5387
1298.04240532127	5137
1300.56804626822	4965
1303.09290705593	4865
1305.6169880752	4882
1308.14028971632	4842
1310.66281236913	4797
1313.18455642292	4996
1315.70552226653	4922
1318.22571028829	4908
1320.74512087603	4907
1323.26375441711	4995
1325.7816112984	5034
1328.29869190629	5040
1330.81499662666	5011
1333.33052584497	5109
1335.84527994613	5136
1338.35925931464	5137
1340.87246433446	5211
1343.38489538916	5254
1345.89655286177	5296
1348.40743713487	5309
1350.91754859059	5287
1353.42688761059	5401
1355.93545457606	5416
1358.44324986772	5604
1360.95027386588	5592
1363.45652695032	5590
1365.96200950042	5583
1368.4667218951	5594
1370.97066451281	5605
1373.47383773156	5405
1375.97624192891	5492
1378.47787748199	5494
1380.97874476746	5625
1383.47884416157	5536
1385.97817604009	5467
1388.4767407784	5581
1390.9745387514	5554
1393.47157033358	5514
1395.96783589898	5673
1398.46333582124	5645
1400.95807047354	5634
1403.45204022864	5609
1405.94524545889	5682
1408.4376865362	5672
1410.92936383205	5786
1413.42027771752	5938
1415.91042856328	6078
1418.39981673955	6041
1420.88844261615	6012
1423.37630656249	5980
1425.86340894757	5996
1428.34975013999	6125
1430.83533050792	6226
1433.32015041912	6378
1435.80421024098	6523
1438.28751034045	6666
1440.77005108411	6717
1443.25183283812	6684
1445.73285596824	6692
1448.21312083984	6576
1450.69262781791	6648
1453.17137726702	6707
1455.64936955137	6798
1458.12660503477	6836
1460.60308408063	6791
1463.07880705197	6868
1465.55377431145	6878
1468.02798622133	6910
1470.50144314348	6847
1472.97414543941	6797
1475.44609347024	6865
1477.91728759673	6790
1480.38772817924	6813
1482.85741557777	6888
1485.32635015194	6872
1487.79453226103	6916
1490.26196226391	6963
1492.72864051911	7018
1495.1945673848	7097
1497.65974321874	7027
1500.1241683784	7127
1502.58784322083	7128
1505.05076810274	7124
1507.51294338049	7181
1509.97436941009	7268
1512.43504654717	7336
1514.89497514704	7310
1517.35415556462	7409
1519.81258815451	7348
1522.27027327095	7427
1524.72721126784	7423
1527.18340249874	7480
1529.63884731684	7626
1532.09354607502	7540
1534.5474991258	7761
1537.00070682136	7791
1539.45316951355	7807
1541.90488755388	7818
1544.35586129353	7809
1546.80609108336	7975
1549.25557727385	8010
1551.70432021519	8077
1554.15232025725	8115
1556.59957774953	8054
1559.04609304125	8226
1561.49186648127	8261
1563.93689841815	8299
1566.38118920011	8417
1568.82473917506	8467
1571.2675486906	8537
1573.70961809399	8492
1576.15094773219	8611
1578.59153795184	8581
1581.03138909928	8695
1583.47050152051	8731
1585.90887556123	8764
1588.34651156686	8857
1590.78340988246	8881
1593.21957085283	8814
1595.65499482245	8985
1598.08968213547	9134
1600.52363313578	9011
1602.95684816694	9042
1605.38932757224	9162
1607.82107169462	9159
1610.25208087677	9158
1612.68235546107	9189
1615.1118957896	9009
1617.54070220415	9014
1619.96877504621	8995
1622.39611465701	9251
1624.82272137746	9155
1627.24859554818	8944
1629.67373750953	9163
1632.09814760155	9053
1634.52182616404	9101
1636.94477353647	9298
1639.36699005806	9238
1641.78847606776	9267
1644.20923190418	9356
1646.62925790573	9319
1649.04855441048	9346
1651.46712175628	9506
1653.88496028066	9474
1656.3020703209	9587
1658.71845221401	9476
1661.13410629671	9608
1663.54903290547	9689
1665.96323237649	9533
1668.37670504571	9782
1670.78945124877	9789
1673.20147132109	9819
1675.61276559779	9895
1678.02333441377	9921
1680.43317810362	9981
1682.84229700171	10046
1685.25069144213	10030
1687.65836175872	10115
1690.06530828507	10069
1692.47153135451	10055
1694.87703130009	10190
1697.28180845467	10075
1699.6858631508	10253
1702.08919572081	10109
1704.49180649676	10165
1706.89369581049	10257
1709.29486399355	10196
1711.69531137731	10289
1714.09503829282	10275
1716.49404507095	10372
1718.89233204229	10358
1721.28989953721	10333
1723.68674788581	10285
1726.08287741798	10411
1728.47828846338	10445
1730.87298135139	10388
1733.26695641119	10395
1735.66021397173	10477
1738.05275436169	10397
1740.44457790954	10425
1742.83568494354	10474
1745.22607579168	10395
1747.61575078175	10424
1750.00471024128	10567
1752.39295449761	10533
1754.78048387783	10456
1757.16729870881	10495
1759.5533993172	10571
1761.93878602942	10549
1764.32345917168	10644
1766.70741906995	10699
1769.09066604999	10700
1771.47320043735	10730
1773.85502255735	10808
1776.2361327351	10738
1778.61653129548	10807
1780.99621856318	11048
1783.37519486264	10951
1785.75346051813	11025
1788.13101585368	11114
1790.5078611931	11117
1792.88399686002	10992
1795.25942317785	11155
1797.63414046977	11089
1800.00814905878	11097
1802.38144926766	11176
1804.75404141898	11321
1807.12592583514	11112
1809.49710283829	11443
1811.86757275039	11145
1814.23733589322	11419
1816.60639258834	11278
1818.97474315712	11274
1821.34238792073	11431
1823.70932720012	11172
1826.07556131608	11358
1828.44109058918	11361
1830.8059153398	11406
1833.17003588812	11323
1835.53345255413	11380
1837.89616565765	11417
1840.25817551827	11473
1842.61948245541	11454
1844.9800867883	11584
1847.33998883598	11596
1849.69918891729	11546
1852.05768735091	11558
1854.4154844553	11551
1856.77258054875	11631
1859.12897594938	11573
1861.4846709751	11594
1863.83966594366	11739
1866.19396117261	11600
1868.54755697932	11659
1870.90045368099	11701
1873.25265159463	11799
1875.60415103708	11852
1877.95495232501	11821
1880.30505577486	11948
1882.65446170299	11895
1885.00317042548	12085
1887.35118225832	11968
1889.69849751726	12047
1892.04511651792	12184
1894.39103957574	12123
1896.73626700596	12220
1899.08079912368	12306
1901.42463624384	12235
1903.76777868116	12306
1906.11022675025	12354
1908.4519807655	12374
1910.79304104117	12348
1913.13340789134	12560
1915.47308162992	12343
1917.81206257067	12256
1920.15035102718	12366
1922.48794731286	12462
1924.82485174096	12497
1927.16106462461	12591
1929.49658627672	12620
1931.83141701008	12481
1934.1655571373	12418
1936.49900697085	12470
1938.83176682301	12418
1941.16383700594	12553
1943.49521783161	12571
1945.82590961186	12442
1948.15591265835	12346
1950.48522728262	12456
1952.81385379602	12384
1955.14179250976	12562
1957.46904373489	12412
1959.79560778233	12407
1962.12148496284	12458
1964.44667558701	12378
1966.77117996529	12410
1969.09499840799	12406
1971.41813122527	12430
1973.74057872714	12518
1976.06234122345	12623
1978.38341902391	12496
1980.7038124381	12627
1983.02352177543	12617
1985.34254734518	12512
1987.66088945649	12660
1989.97854841833	12823
1992.29552453956	12557
1994.61181812887	12586
1996.92742949483	12713
1999.24235894586	12743
2001.55660679023	12646
2003.87017333608	12790
2006.18305889143	12765
2008.49526376413	13000
2010.80678826189	12978
2013.1176326923	12881
2015.42779736282	12904
2017.73728258075	12950
2020.04608865326	12982
2022.3542158874	12895
2024.66166459008	13151
2026.96843506807	13216
2029.274527628	13194
2031.57994257637	13322
2033.88468021957	13229
2036.18874086383	13286
2038.49212481526	13233
2040.79483237983	13103
2043.0968638634	13236
2045.39821957169	13253
2047.69889981028	13333
2049.99890488462	13367
2052.29823510006	13509
2054.59689076181	13450
2056.89487217492	13416
2059.19217964437	13496
2061.48881347497	13368
2063.7847739714	13509
2066.08006143826	13612
2068.37467618	13461
2070.66861850093	13434
2072.96188870527	13445
2075.25448709707	13395
2077.54641398031	13484
2079.83766965881	13537
2082.12825443629	13529
2084.41816861634	13744
2086.70741250242	13539
2088.99598639789	13615
2091.28389060597	13574
2093.57112542978	13591
2095.85769117232	13641
2098.14358813644	13623
2100.42881662491	13519
2102.71337694037	13698
2104.99726938532	13687
2107.28049426219	13482
2109.56305187325	13719
2111.84494252069	13836
2114.12616650655	13826
2116.40672413278	13641
2118.68661570121	13721
2120.96584151355	13962
2123.24440187138	13990
2125.52229707622	14037
2127.79952742943	13921
2130.07609323227	13934
2132.35199478588	13885
2134.62723239132	14128
2136.90180634949	14177
2139.17571696123	14167
2141.44896452723	14256
2143.72154934809	14386
2145.99347172429	14220
2148.26473195623	14387
2150.53533034415	14391
2152.80526718821	14425
2155.07454278848	14347
2157.3431574449	14337
2159.61111145728	14512
2161.87840512538	14314
2164.1450387488	14465
2166.41101262707	14585
2168.67632705959	14538
2170.94098234567	14383
2173.20497878451	14432
2175.46831667519	14418
2177.73099631672	14519
2179.99301800797	14389
2182.25438204772	14508
2184.51508873466	14386
2186.77513836735	14434
2189.03453124427	14515
2191.29326766378	14541
2193.55134792416	14471
2195.80877232355	14628
2198.06554116004	14432
2200.32165473157	14470
2202.577113336	14451
2204.83191727111	14480
2207.08606683453	14489
2209.33956232384	14501
2211.59240403648	14542
2213.84459226982	14466
2216.09612732112	14484
2218.34700948753	14307
2220.59723906612	14355
2222.84681635385	14360
2225.09574164758	14347
2227.34401524408	14467
2229.59163744002	14283
2231.83860853197	14433
2234.08492881639	14358
2236.33059858968	14217
2238.5756181481	14552
2240.81998778784	14464
2243.06370780499	14101
2245.30677849555	14364
2247.54920015539	14362
2249.79097308033	14189
2252.03209756607	14283
2254.27257390822	14280
2256.51240240228	14323
2258.75158334369	14216
2260.99011702777	14240
2263.22800374976	14083
2265.46524380477	14222
2267.70183748786	14256
2269.93778509399	14156
2272.17308691801	14112
2274.40774325467	14115
2276.64175439866	14140
2278.87512064454	14025
2281.10784228682	13994
2283.33991961987	14186
2285.571352938	14079
2287.80214253541	14026
2290.03228870623	14101
2292.26179174449	13909
2294.4906519441	13907
2296.71886959892	13930
2298.9464450027	13965
2301.1733784491	14085
2303.39967023169	13821
2305.62532064395	13827
2307.85032997926	13955
2310.07469853093	13953
2312.29842659216	13946
2314.52151445608	13879
2316.7439624157	13806
2318.96577076397	13838
2321.18693979374	13753
2323.40746979777	13775
2325.62736106873	13765
2327.8466138992	13987
2330.06522858166	13696
2332.28320540853	13830
2334.50054467212	13762
2336.71724666465	13502
2338.93331167827	13668
2341.14874000501	13650
2343.36353193685	13405
2345.57768776564	13367
2347.79120778319	13527
2350.00409228117	13519
2352.21634155121	13486
2354.42795588482	13387
2356.63893557342	13247
2358.84928090838	13298
2361.05899218094	13315
2363.26806968228	13250
2365.47651370347	13311
2367.68432453552	13380
2369.89150246933	13274
2372.09804779571	13097
2374.30396080541	13318
2376.50924178907	13189
2378.71389103725	13027
2380.91790884042	13106
2383.12129548897	12953
2385.3240512732	13004
2387.52617648332	12848
2389.72767140946	12862
2391.92853634165	12821
2394.12877156985	12926
2396.32837738392	12911
2398.52735407365	12860
2400.72570192873	12793
2402.92342123875	12735
2405.12051229325	12909
2407.31697538167	12673
2409.51281079333	12705
2411.70801881751	12729
2413.90259974339	12583
2416.09655386004	12682
2418.28988145648	12653
2420.48258282162	12695
2422.6746582443	12431
2424.86610801325	12591
2427.05693241713	12747
2429.24713174452	12470
2431.43670628389	12484
2433.62565632365	12485
2435.81398215212	12267
2438.00168405752	12487
2440.18876232799	12398
2442.37521725158	12381
2444.56104911628	12382
2446.74625820994	12330
2448.93084482038	12150
2451.1148092353	12237
2453.29815174233	12319
2455.480872629	12063
2457.66297218275	12180
2459.84445069097	11934
2462.02530844092	12035
2464.2055457198	12028
2466.38516281471	12002
2468.56416001267	11937
2470.74253760061	11831
2472.92029586537	11993
2475.09743509372	11910
2477.27395557232	11761
2479.44985758777	11808
2481.62514142655	11946
2483.79980737508	11934
2485.97385571969	11703
2488.14728674661	11770
2490.32010074198	11762
2492.49229799188	11815
2494.66387878228	11671
2496.83484339905	11802
2499.00519212802	11749
2501.17492525488	11751
2503.34404306528	11805
2505.51254584473	11707
2507.6804338787	11697
2509.84770745254	11573
2512.01436685153	11577
2514.18041236085	11721
2516.34584426561	11571
2518.51066285081	11622
2520.67486840138	11704
2522.83846120214	11728
2525.00144153784	11606
2527.16380969314	11578
2529.32556595261	11672
2531.48671060072	11734
2533.64724392186	11732
2535.80716620033	11586
2537.96647772034	11626
2540.12517876602	11591
2542.2832696214	11519
2544.44075057041	11547
2546.59762189691	11468
2548.75388388466	11390
2550.90953681735	11227
2553.06458097853	11371
2555.21901665172	11496
2557.37284412031	11549
2559.5260636676	11266
2561.67867557684	11376
2563.83068013113	11244
2565.98207761351	11315
2568.13286830695	11271
2570.28305249429	11340
2572.43263045829	11138
2574.58160248163	11181
2576.72996884689	11052
2578.87772983655	11089
2581.02488573303	11174
2583.1714368186	11160
2585.31738337549	11115
2587.46272568582	11128
2589.60746403161	11135
2591.75159869479	10983
2593.89512995722	11075
2596.03805810061	11107
2598.18038340665	10983
2600.32210615686	10867
2602.46322663274	10916
2604.60374511563	10953
2606.74366188683	10856
2608.88297722751	10881
2611.02169141875	10911
2613.15980474156	10966
2615.29731747681	10853
2617.43422990532	10878
2619.57054230779	10851
2621.70625496483	10842
2623.84136815694	10890
2625.97588216456	11005
2628.10979726799	10711
2630.24311374746	10845
2632.3758318831	10939
2634.50795195493	10841
2636.6394742429	10753
2638.77039902682	10850
2640.90072658645	10848
2643.0304572014	10837
2645.15959115123	10849
2647.28812871538	10943
2649.41607017319	10849
2651.5434158039	10843
2653.67016588665	10922
2655.79632070049	10855
2657.92188052436	10753
2660.04684563711	10794
2662.17121631749	10883
2664.29499284413	10795
2666.41817549558	10707
2668.54076455027	10826
2670.66276028656	10838
2672.78416298267	10880
2674.90497291675	10828
2677.02519036682	10739
2679.14481561082	10962
2681.26384892658	10751
2683.38229059182	10875
2685.50014088417	10764
2687.61740008114	10853
2689.73406846017	10833
2691.85014629854	10826
2693.96563387347	10724
2696.08053146206	10782
2698.1948393413	10814
2700.3085577881	10883
2702.42168707924	10664
2704.53422749139	10644
2706.64617930112	10978
2708.75754278492	10928
2710.86831821913	10826
2712.97850588002	10951
2715.08810604372	10931
2717.19711898628	10954
2719.30554498363	10950
2721.41338431158	11032
2723.52063724586	10966
2725.62730406206	10934
2727.73338503569	10923
2729.83888044213	10862
2731.94379055664	10874
2734.04811565441	10873
2736.15185601048	10856
2738.25501189979	10851
2740.35758359718	10736
2742.45957137738	10653
2744.56097551499	10719
2746.6617962845	10830
2748.7620339603	10713
2750.86168881666	10701
2752.96076112774	10590
2755.05925116758	10649
2757.15715921012	10710
2759.25448552917	10668
2761.35123039843	10676
2763.44739409148	10742
2765.5429768818	10638
2767.63797904275	10732
2769.73240084756	10817
2771.82624256934	10721
2773.91950448113	10710
2776.01218685579	10728
2778.10428996609	10875
2780.19581408469	10758
2782.28675948414	10664
2784.37712643683	10726
2786.46691521507	10722
2788.55612609104	10695
2790.64475933678	10852
2792.73281522425	10717
2794.82029402525	10812
2796.90719601149	10787
2798.99352145453	10660
2801.07927062583	10763
2803.16444379672	10664
2805.24904123841	10896
2807.33306322197	10783
2809.41651001838	10930
2811.49938189847	10887
2813.58167913296	10899
2815.66340199243	11008
2817.74455074734	10972
2819.82512566805	11095
2821.90512702475	11137
2823.98455508754	11125
2826.06341012637	11207
2828.14169241109	11542
2830.2194022114	11919
2832.29653979686	12051
2834.37310543694	12729
2836.44909940096	13352
2838.5245219581	14108
2840.59937337744	14986
2842.67365392791	16052
2844.74736387829	16921
2846.82050349727	17036
2848.8930730534	16964
2850.96507281506	16427
2853.03650305056	16107
2855.10736402802	15497
2857.17765601545	15017
2859.24737928074	14760
2861.31653409164	14628
2863.38512071574	14446
2865.45313942054	14370
2867.52059047335	14335
2869.58747414139	14437
2871.65379069173	14733
2873.7195403913	15198
2875.78472350688	16325
2877.84934030515	17457
2879.91339105262	18388
2881.97687601567	17874
2884.03979546053	16213
2886.10214965332	15107
2888.16393886	14653
2890.22516334639	14358
2892.28582337816	14397
2894.34591922087	14258
2896.40545113992	14349
2898.46441940054	14207
2900.52282426787	13993
2902.58066600687	13884
2904.63794488237	13863
2906.69466115906	13466
2908.75081510147	13525
2910.806406974	13547
2912.8614370409	13395
2914.91590556626	13312
2916.96981281404	13191
2919.02315904807	13027
2921.07594453199	13176
2923.12816952932	13195
2925.17983430343	13164
2927.23093911753	13105
2929.28148423469	13068
2931.33146991782	13037
2933.3808964297	12917
2935.42976403294	12757
2937.47807299	12683
2939.5258235632	12346
2941.57301601469	12342
2943.61965060648	12021
2945.66572760042	11993
2947.71124725823	11890
2949.75620984143	11895
2951.80061561143	11822
2953.84446482945	11880
2955.88775775656	11769
2957.9304946537	11666
2959.97267578162	11763
2962.01430140095	11742
2964.05537177211	11785
2966.09588715541	11760
2968.13584781097	11863
2970.17525399875	11929
2972.21410597859	11707
2974.25240401011	11847
2976.29014835283	11835
2978.32733926604	11947
2980.36397700892	11874
2982.40006184049	11872
2984.43559401955	11880
2986.4705738048	11907
2988.50500145473	11942
2990.53887722771	11924
2992.57220138189	11949
2994.6049741753	11844
2996.63719586576	12026
2998.66886671097	12054
3000.69998696843	12119
3002.73055689549	12107
3004.7605767493	12164
3006.79004678688	12114
3008.81896726505	12197
3010.84733844048	12132
3012.87516056966	12084
3014.9024339089	12182
3016.92915871433	12349
3018.95533524196	12403
3020.98096374756	12298
3023.00604448675	12340
3025.030577715	12315
3027.05456368757	12387
3029.07800265956	12387
3031.10089488589	12382
3033.12324062131	12416
3035.14504012038	12420
3037.16629363749	12561
3039.18700142685	12518
3041.20716374249	12321
3043.22678083826	12363
3045.24585296782	12564
3047.26438038468	12392
3049.28236334212	12501
3051.29980209329	12533
3053.31669689111	12429
3055.33304798835	12392
3057.34885563757	12435
3059.36412009117	12559
3061.37884160134	12353
3063.39302042011	12583
3065.40665679931	12521
3067.41975099058	12513
3069.43230324538	12466
3071.44431381495	12384
3073.45578295041	12547
3075.46671090261	12461
3077.47709792227	12502
3079.48694425989	12495
3081.49625016578	12435
3083.50501589008	12567
3085.5132416827	12505
3087.5209277934	12541
3089.52807447169	12595
3091.53468196695	12563
3093.54075052832	12459
3095.54628040476	12436
3097.55127184503	12573
3099.55572509769	12519
3101.55964041111	12495
3103.56301803346	12504
3105.5658582127	12570
3107.56816119661	12653
3109.56992723275	12303
3111.57115656849	12577
3113.571849451	12462
3115.57200612724	12561
3117.57162684397	12651
3119.57071184775	12655
3121.56926138493	12594
3123.56727570166	12738
3125.56475504389	12592
3127.56169965735	12763
3129.55810978757	12700
3131.55398567987	12805
3133.54932757937	12622
3135.54413573099	12739
3137.53841037939	12776
3139.53215176909	12634
3141.52536014435	12789
3143.51803574924	12737
3145.51017882762	12803
3147.50178962311	12828
3149.49286837916	12817
3151.48341533897	12674
3153.47343074553	12853
3155.46291484164	12736
3157.45186786985	12781
3159.44029007252	12841
3161.42818169179	12768
3163.41554296955	12951
3165.40237414753	12942
3167.38867546718	12864
3169.37444716975	12733
3171.35968949631	12925
3173.34440268764	12828
3175.32858698436	12861
3177.31224262682	12635
3179.29536985517	12800
3181.27796890934	12733
3183.26004002902	12730
3185.24158345368	12789
3187.22259942256	12762
3189.2030881747	12714
3191.18304994886	12896
3193.16248498363	12855
3195.14139351733	12827
3197.11977578807	12844
3199.09763203371	12911
3201.07496249191	12861
3203.05176740007	12818
3205.02804699537	12838
3207.00380151475	13056
3208.97903119493	12946
3210.95373627238	13046
3212.92791698335	12984
3214.90157356383	12839
3216.8747062496	12953
3218.84731527619	13030
3220.81940087889	13043
3222.79096329275	13167
3224.76200275259	12978
3226.73251949298	13250
3228.70251374825	13275
3230.67198575251	12968
3232.64093573959	13233
3234.6093639431	13326
3236.57727059641	13261
3238.54465593261	13376
3240.51152018461	13297
3242.47786358502	13191
3244.44368636621	13254
3246.40898876031	13220
3248.37377099923	13207
3250.33803331458	13156
3252.30177593775	13348
3254.26499909987	13376
3256.22770303184	13412
3258.18988796427	13395
3260.15155412755	13399
3262.1127017518	13326
3264.0733310669	13380
3266.03344230246	13165
3267.99303568784	13567
3269.95211145215	13309
3271.91066982422	13554
3273.86871103267	13339
3275.82623530581	13425
3277.7832428717	13400
3279.73973395818	13377
3281.69570879278	13590
3283.6511676028	13564
3285.60611061527	13402
3287.56053805694	13546
3289.51445015432	13438
3291.46784713364	13412
3293.42072922088	13475
3295.37309664173	13448
3297.32494962163	13409
3299.27628838575	13574
3301.227113159	13441
3303.17742416601	13471
3305.12722163114	13503
3307.07650577848	13349
3309.02527683185	13513
3310.9735350148	13419
3312.9212805506	13421
3314.86851366225	13440
3316.81523457249	13491
3318.76144350377	13511
3320.70714067825	13562
3322.65232631783	13422
3324.59700064415	13271
3326.54116387854	13367
3328.48481624207	13351
3330.42795795551	13239
3332.37058923938	13295
3334.31271031389	13387
3336.25432139898	13316
3338.19542271432	13185
3340.13601447927	13379
3342.07609691292	13334
3344.01567023407	13303
3345.95473466124	13169
3347.89329041266	13385
3349.83133770627	13400
3351.76887675973	13306
3353.70590779039	13264
3355.64243101534	13258
3357.57844665135	13399
3359.51395491492	13262
3361.44895602224	13215
3363.38345018922	13267
3365.31743763148	13263
3367.25091856432	13257
3369.18389320278	13157
3371.11636176156	13251
3373.0483244551	13256
3374.97978149754	13286
3376.91073310269	13324
3378.84117948409	13192
3380.77112085498	13304
3382.70055742826	13391
3384.62948941659	13323
3386.55791703227	13330
3388.48584048733	13292
3390.41325999348	13304
3392.34017576214	13413
3394.2665880044	13273
3396.19249693107	13373
3398.11790275263	13102
3400.04280567926	13388
3401.96720592084	13456
3403.89110368692	13342
3405.81449918675	13578
3407.73739262928	13411
3409.65978422311	13413
3411.58167417658	13299
3413.50306269768	13527
3415.42394999408	13369
3417.34433627316	13491
3419.26422174195	13455
3421.18360660721	13343
3423.10249107532	13288
3425.02087535239	13129
3426.93875964421	13352
3428.8561441562	13296
3430.77302909353	13319
3432.68941466097	13128
3434.60530106301	13358
3436.52068850383	13168
3438.43557718726	13327
3440.34996731681	13129
3442.26385909565	13254
3444.17725272664	13160
3446.09014841231	13250
3448.00254635486	13079
3449.91444675614	13133
3451.82584981771	13045
3453.73675574076	13207
3455.64716472616	13053
3457.55707697445	13007
3459.46649268584	12962
3461.37541206018	13104
3463.28383529703	13029
3465.19176259555	13034
3467.09919415464	13070
3469.00613017278	12929
3470.91257084817	13010
3472.81851637863	12782
3474.72396696168	12967
3476.62892279446	13043
3478.53338407379	12974
3480.43735099614	13018
3482.34082375764	12932
3484.24380255404	12894
3486.1462875808	12796
3488.048279033	12896
3489.94977710537	12817
3491.85078199231	12945
3493.75129388783	12714
3495.65131298566	12735
3497.5508394791	12731
3499.44987356115	12748
