200.090469251518	1458
202.974751419362	1418
205.858021632263	1431
208.740280737522	1451
211.621529580443	1448
214.501769004371	1432
217.380999850626	1446
220.25922295859	1396
223.136439165646	1416
226.012649307235	1418
228.88785421682	1389
231.762054725918	1410
234.635251664113	1457
237.507445859021	1418
240.378638136346	1396
243.248829319855	1375
246.11802023137	1422
248.986211690826	1412
251.853404516227	1402
254.719599523654	1478
257.584797527335	1499
260.44899933954	1466
263.312205770682	1501
266.174417629303	1492
269.035635722015	1495
271.895860853609	1535
274.755093826978	1580
277.613335443144	1537
280.470586501309	1544
283.326847798766	1539
286.182120131019	1469
289.036404291684	1474
291.889701072574	1478
294.742011263643	1469
297.593335653048	1481
300.443675027094	1445
303.293030170295	1449
306.141401865367	1437
308.988790893174	1388
311.835198032837	1409
314.680624061635	1402
317.525069755113	1406
320.36853588697	1389
323.211023229178	1410
326.052532551923	1399
328.893064623604	1390
331.732620210885	1382
334.57120007867	1415
337.408804990093	1368
340.245435706565	1362
343.081092987733	1355
345.915777591523	1386
348.749490274145	1409
351.582231790049	1389
354.414002891997	1374
357.244804331021	1362
360.074636856443	1412
362.903501215886	1398
365.731398155265	1387
368.558328418814	1408
371.384292749062	1400
374.209291886869	1389
377.033326571407	1371
379.85639754017	1409
382.678505529009	1395
385.499651272065	1412
388.319835501872	1394
391.139058949258	1413
393.957322343453	1373
396.774626412011	1409
399.590971880847	1381
402.406359474258	1392
405.220789914893	1418
408.034263923801	1426
410.8467822204	1399
413.658345522483	1412
416.468954546242	1422
419.278610006277	1436
422.087312615557	1407
424.895063085503	1391
427.701862125901	1378
430.507710444981	1451
433.312608749366	1409
436.116557744146	1416
438.919558132791	1428
441.721610617238	1469
444.522715897856	1430
447.322874673457	1424
450.122087641299	1430
452.920355497092	1381
455.717678935009	1383
458.514058647681	1400
461.309495326219	1417
464.103989660191	1410
466.89754233765	1442
469.690154045114	1403
472.481825467625	1409
475.272557288674	1391
478.062350190281	1402
480.851204852952	1434
483.639121955683	1438
486.426102176007	1411
489.212146189955	1423
491.997254672093	1409
494.781428295471	1438
497.564667731716	1401
500.346973650958	1415
503.128346721878	1409
505.90878761169	1417
508.688296986151	1459
511.46687550957	1440
514.244523844831	1416
517.021242653354	1464
519.797032595132	1443
522.571894328732	1412
525.345828511279	1437
528.11883579849	1411
530.890916844655	1437
533.662072302668	1446
536.432302823985	1417
539.201609058684	1435
541.96999165542	1381
544.737451261473	1432
547.503988522723	1436
550.26960408366	1428
553.034298587394	1394
555.798072675669	1422
558.560926988819	1454
561.322862165849	1495
564.083878844369	1460
566.843977660654	1484
569.603159249604	1494
572.361424244769	1482
575.118773278369	1475
577.87520698124	1483
580.630725982905	1451
583.385330911566	1460
586.139022394076	1500
588.891801055954	1432
591.643667521406	1446
594.394622413318	1463
597.144666353273	1456
599.893799961512	1469
602.64202385701	1475
605.389338657413	1415
608.135744979089	1474
610.881243437092	1456
613.625834645191	1444
616.369519215881	1465
619.112297760374	1505
621.854170888604	1607
624.595139209225	1800
627.335203329614	2177
630.074363855914	2360
632.81262139299	2240
635.549976544436	1858
638.286429912612	1593
641.021982098635	1490
643.756633702364	1481
646.49038532241	1466
649.223237556176	1462
651.955190999808	1432
654.686246248224	1449
657.416403895135	1465
660.145664533011	1464
662.874028753133	1481
665.601497145537	1497
668.328070299071	1448
671.05374880138	1488
673.778533238885	1462
676.502424196839	1493
679.225422259297	1501
681.947528009099	1500
684.668742027927	1477
687.389064896281	1441
690.108497193465	1484
692.827039497621	1505
695.544692385724	1567
698.261456433585	1696
700.977332215847	1754
703.692320305981	1711
706.406421276337	1608
709.11963569808	1552
711.831964141256	1532
714.54340717474	1493
717.253965366304	1462
719.963639282552	1488
722.672429488961	1456
725.380336549904	1500
728.087361028596	1455
730.793503487166	1468
733.498764486594	1469
736.203144586758	1487
738.906644346447	1487
741.60926432331	1500
744.311005073912	1485
747.011867153727	1503
749.711851117121	1442
752.410957517375	1503
755.109186906677	1504
757.806539836132	1511
760.503016855779	1488
763.198618514551	1457
765.893345360346	1497
768.587197939964	1518
771.28017679914	1492
773.972282482566	1504
776.663515533859	1532
779.353876495581	1537
782.043365909241	1536
784.731984315327	1562
787.419732253235	1585
790.106610261366	1611
792.792618877058	1643
795.477758636618	1641
798.162030075313	1608
800.845433727423	1577
803.52797012615	1581
806.209639803714	1616
808.890443291304	1603
811.570381119098	1631
814.249453816265	1653
816.927661910959	1633
819.60500593036	1650
822.281486400603	1664
824.957103846864	1694
827.631858793316	1653
830.305751763135	1732
832.978783278519	1651
835.650953860677	1741
838.322264029848	1718
840.992714305292	1847
843.662305205289	1889
846.331037247157	2010
848.998910947241	2290
851.665926820933	2624
854.332085382674	2969
856.997387145915	3183
859.661832623191	3013
862.325422326066	2579
864.988156765172	2195
867.650036450181	1959
870.311061889846	1844
872.971233591961	1748
875.630552063409	1714
878.28901781013	1696
880.946631337138	1690
883.603393148533	1732
886.259303747484	1688
888.914363636246	1641
891.568573316155	1690
894.22193328767	1587
896.874444050281	1604
899.526106102625	1614
902.176919942416	1579
904.826886066483	1585
907.476004970747	1583
910.124277150255	1613
912.77170309913	1542
915.418283310642	1582
918.064018277175	1564
920.708908490222	1616
923.352954440405	1578
925.996156617486	1554
928.638515510334	1563
931.280031606966	1583
933.920705394521	1596
936.560537359303	1589
939.199527986737	1571
941.837677761392	1581
944.474987167006	1578
947.111456686438	1584
949.747086801734	1604
952.38187799407	1597
955.015830743792	1595
957.648945530418	1615
960.281222832633	1593
962.91266312826	1616
965.543266894336	1558
968.173034607058	1618
970.801966741779	1590
973.43006377307	1649
976.057326174661	1653
978.683754419471	1673
981.309348979623	1649
983.93411032642	1700
986.558038930361	1646
989.181135261144	1761
991.803399787692	1840
994.424832978086	1888
997.045435299653	1819
999.665207218906	1826
1002.2841492016	1745
1004.90226171266	1719
1007.51954521628	1730
1010.13600017584	1692
1012.75162705397	1683
1015.3664263125	1692
1017.9803984125	1673
1020.5935438143	1684
1023.20586297741	1704
1025.81735636063	1662
1028.42802442196	1691
1031.03786761869	1648
1033.64688640732	1690
1036.2550812436	1709
1038.86245258255	1665
1041.46900087844	1673
1044.07472658479	1720
1046.67963015438	1680
1049.28371203927	1689
1051.88697269075	1697
1054.48941255943	1674
1057.09103209513	1720
1059.691831747	1710
1062.29181196343	1709
1064.89097319211	1723
1067.48931587999	1752
1070.08684047333	1746
1072.68354741766	1810
1075.27943715779	1809
1077.87451013787	1802
1080.46876680127	1930
1083.06220759071	1952
1085.65483294822	2132
1088.24664331509	2320
1090.83763913194	2466
1093.42782083869	2498
1096.01718887459	2460
1098.60574367818	2283
1101.19348568732	2171
1103.78041533919	2093
1106.3665330703	2150
1108.95183931646	2160
1111.53633451284	2197
1114.12001909391	2228
1116.70289349349	2222
1119.2849581447	2200
1121.86621348005	2065
1124.44665993134	1970
1127.02629792973	1933
1129.60512790574	1949
1132.18315028919	1886
1134.76036550929	1815
1137.3367739946	1826
1139.912376173	1817
1142.48717247176	1810
1145.06116331748	1792
1147.63434913616	1802
1150.20673035312	1764
1152.77830739307	1806
1155.34908068007	1746
1157.91905063757	1779
1160.48821768838	1803
1163.05658225471	1793
1165.6241447581	1828
1168.19090561951	1841
1170.75686525927	1892
1173.32202409708	1914
1175.88638255206	2009
1178.44994104269	2029
1181.01269998684	2063
1183.57465980182	2094
1186.13582090427	2148
1188.69618371026	2047
1191.25574863529	2014
1193.8145160942	1957
1196.37248650129	1912
1198.92966027025	1807
1201.48603781416	1787
1204.04161954556	1750
1206.59640587635	1804
1209.15039721788	1758
1211.70359398092	1755
1214.25599657564	1728
1216.80760541166	1715
1219.35842089801	1764
1221.90844344314	1794
1224.45767345496	1730
1227.00611134077	1782
1229.55375750736	1735
1232.10061236092	1785
1234.64667630707	1832
1237.1919497509	1784
1239.73643309692	1823
1242.28012674912	1879
1244.82303111089	1826
1247.36514658511	1869
1249.9064735741	1847
1252.44701247964	1950
1254.98676370294	1948
1257.52572764469	2032
1260.06390470506	2045
1262.60129528365	2098
1265.13789977954	2155
1267.67371859128	2315
1270.20875211688	2342
1272.74300075384	2558
1275.2764648991	2757
1277.80914494911	2943
1280.34104129978	3085
1282.87215434652	3160
1285.40248448419	3144
1287.93203210715	3278
1290.46079760927	3234
1292.98878138385	3112
1295.51598382375	2801
1298.04240532127	2592
1300.56804626822	2445
1303.09290705593	2343
1305.6169880752	2257
1308.14028971632	2211
1310.66281236913	2119
1313.18455642292	2138
1315.70552226653	2130
1318.22571028829	2051
1320.74512087603	2026
1323.26375441711	1999
1325.7816112984	1955
1328.29869190629	1951
1330.81499662666	1976
1333.33052584497	2010
1335.84527994613	1935
1338.35925931464	1911
1340.87246433446	1945
1343.38489538916	1954
1345.89655286177	1962
1348.40743713487	1938
1350.91754859059	1991
1353.42688761059	1953
1355.93545457606	1942
1358.44324986772	2040
1360.95027386588	2005
1363.45652695032	1962
1365.96200950042	1997
1368.4667218951	1945
1370.97066451281	1986
1373.47383773156	1970
1375.97624192891	1989
1378.47787748199	1990
1380.97874476746	1996
1383.47884416157	1987
1385.97817604009	2002
1388.4767407784	1903
1390.9745387514	1947
1393.47157033358	1985
1395.96783589898	1979
1398.46333582124	1974
1400.95807047354	1990
1403.45204022864	2012
1405.94524545889	2043
1408.4376865362	2104
1410.92936383205	2168
1413.42027771752	2162
1415.91042856328	2204
1418.39981673955	2147
1420.88844261615	2066
1423.37630656249	2028
1425.86340894757	1967
1428.34975013999	1982
1430.83533050792	2048
1433.32015041912	1990
1435.80421024098	2029
1438.28751034045	2041
1440.77005108411	2003
1443.25183283812	2109
1445.73285596824	2088
1448.21312083984	2084
1450.69262781791	2087
1453.17137726702	2144
1455.64936955137	2152
1458.12660503477	2148
1460.60308408063	2208
1463.07880705197	2179
1465.55377431145	2144
1468.02798622133	2087
1470.50144314348	2069
1472.97414543941	2035
1475.44609347024	2021
1477.91728759673	2016
1480.38772817924	2050
1482.85741557777	2029
1485.32635015194	1984
1487.79453226103	1999
1490.26196226391	1972
1492.72864051911	1975
1495.1945673848	2000
1497.65974321874	2048
1500.1241683784	2016
1502.58784322083	2026
1505.05076810274	2001
1507.51294338049	1999
1509.97436941009	1983
1512.43504654717	2020
1514.89497514704	2007
1517.35415556462	2017
1519.81258815451	2027
1522.27027327095	1981
1524.72721126784	2015
1527.18340249874	2013
1529.63884731684	2043
1532.09354607502	2049
1534.5474991258	2074
1537.00070682136	2087
1539.45316951355	2030
1541.90488755388	2049
1544.35586129353	2072
1546.80609108336	2089
1549.25557727385	2057
1551.70432021519	2088
1554.15232025725	2085
1556.59957774953	2069
1559.04609304125	2127
1561.49186648127	2131
1563.93689841815	2096
1566.38118920011	2147
1568.82473917506	2143
1571.2675486906	2182
1573.70961809399	2186
1576.15094773219	2220
1578.59153795184	2231
1581.03138909928	2222
1583.47050152051	2221
1585.90887556123	2244
1588.34651156686	2311
1590.78340988246	2403
1593.21957085283	2366
1595.65499482245	2580
1598.08968213547	2761
1600.52363313578	3029
1602.95684816694	3607
1605.38932757224	4394
1607.82107169462	5440
1610.25208087677	6786
1612.68235546107	7541
1615.1118957896	6976
1617.54070220415	5413
1619.96877504621	3886
1622.39611465701	3121
1624.82272137746	2656
1627.24859554818	2430
1629.67373750953	2260
1632.09814760155	2262
1634.52182616404	2221
1636.94477353647	2179
1639.36699005806	2157
1641.78847606776	2145
1644.20923190418	2150
1646.62925790573	2119
1649.04855441048	2101
1651.46712175628	2106
1653.88496028066	2055
1656.3020703209	2136
1658.71845221401	2124
1661.13410629671	2088
1663.54903290547	2102
1665.96323237649	2095
1668.37670504571	2136
1670.78945124877	2151
1673.20147132109	2148
1675.61276559779	2163
1678.02333441377	2224
1680.43317810362	2194
1682.84229700171	2267
1685.25069144213	2188
1687.65836175872	2193
1690.06530828507	2215
1692.47153135451	2261
1694.87703130009	2197
1697.28180845467	2249
1699.6858631508	2243
1702.08919572081	2298
1704.49180649676	2353
1706.89369581049	2469
1709.29486399355	2597
1711.69531137731	2838
1714.09503829282	3062
1716.49404507095	3547
1718.89233204229	4164
1721.28989953721	4815
1723.68674788581	5695
1726.08287741798	5914
1728.47828846338	5382
1730.87298135139	4664
1733.26695641119	4099
1735.66021397173	3722
1738.05275436169	3283
1740.44457790954	3019
1742.83568494354	2843
1745.22607579168	2629
1747.61575078175	2513
1750.00471024128	2472
1752.39295449761	2383
1754.78048387783	2339
1757.16729870881	2285
1759.5533993172	2222
1761.93878602942	2214
1764.32345917168	2224
1766.70741906995	2180
1769.09066604999	2160
1771.47320043735	2208
1773.85502255735	2236
1776.2361327351	2211
1778.61653129548	2203
1780.99621856318	2216
1783.37519486264	2188
1785.75346051813	2216
1788.13101585368	2212
1790.5078611931	2192
1792.88399686002	2178
1795.25942317785	2200
1797.63414046977	2217
1800.00814905878	2195
1802.38144926766	2171
1804.75404141898	2167
1807.12592583514	2192
1809.49710283829	2193
1811.86757275039	2208
1814.23733589322	2203
1816.60639258834	2238
1818.97474315712	2175
1821.34238792073	2244
1823.70932720012	2187
1826.07556131608	2208
1828.44109058918	2172
1830.8059153398	2185
1833.17003588812	2210
1835.53345255413	2200
1837.89616565765	2169
1840.25817551827	2185
1842.61948245541	2202
1844.9800867883	2130
1847.33998883598	2184
1849.69918891729	2174
1852.05768735091	2174
1854.4154844553	2182
1856.77258054875	2248
1859.12897594938	2209
1861.4846709751	2135
1863.83966594366	2177
1866.19396117261	2161
1868.54755697932	2192
1870.90045368099	2179
1873.25265159463	2195
1875.60415103708	2248
1877.95495232501	2197
1880.30505577486	2213
1882.65446170299	2195
1885.00317042548	2207
1887.35118225832	2267
1889.69849751726	2257
1892.04511651792	2291
1894.39103957574	2264
1896.73626700596	2248
1899.08079912368	2224
1901.42463624384	2230
1903.76777868116	2267
1906.11022675025	2264
1908.4519807655	2238
1910.79304104117	2288
1913.13340789134	2268
1915.47308162992	2300
1917.81206257067	2267
1920.15035102718	2284
1922.48794731286	2273
1924.82485174096	2284
1927.16106462461	2317
1929.49658627672	2294
1931.83141701008	2317
1934.1655571373	2307
1936.49900697085	2345
1938.83176682301	2265
1941.16383700594	2313
1943.49521783161	2318
1945.82590961186	2318
1948.15591265835	2280
1950.48522728262	2255
1952.81385379602	2262
1955.14179250976	2316
1957.46904373489	2240
1959.79560778233	2296
1962.12148496284	2293
1964.44667558701	2282
1966.77117996529	2250
1969.09499840799	2317
1971.41813122527	2324
1973.74057872714	2317
1976.06234122345	2306
1978.38341902391	2281
1980.7038124381	2347
1983.02352177543	2368
1985.34254734518	2299
1987.66088945649	2391
1989.97854841833	2319
1992.29552453956	2354
1994.61181812887	2331
1996.92742949483	2323
1999.24235894586	2306
2001.55660679023	2380
2003.87017333608	2362
2006.18305889143	2403
2008.49526376413	2419
2010.80678826189	2363
2013.1176326923	2378
2015.42779736282	2362
2017.73728258075	2436
2020.04608865326	2435
2022.3542158874	2424
2024.66166459008	2378
2026.96843506807	2435
2029.274527628	2360
2031.57994257637	2416
2033.88468021957	2438
2036.18874086383	2400
2038.49212481526	2425
2040.79483237983	2445
2043.0968638634	2444
2045.39821957169	2441
2047.69889981028	2439
2049.99890488462	2451
2052.29823510006	2412
2054.59689076181	2496
2056.89487217492	2474
2059.19217964437	2413
2061.48881347497	2421
2063.7847739714	2449
2066.08006143826	2408
2068.37467618	2446
2070.66861850093	2522
2072.96188870527	2417
2075.25448709707	2496
2077.54641398031	2505
2079.83766965881	2451
2082.12825443629	2450
2084.41816861634	2475
2086.70741250242	2416
2088.99598639789	2448
2091.28389060597	2454
2093.57112542978	2446
2095.85769117232	2460
2098.14358813644	2485
2100.42881662491	2452
2102.71337694037	2426
2104.99726938532	2433
2107.28049426219	2426
2109.56305187325	2494
2111.84494252069	2484
2114.12616650655	2502
2116.40672413278	2463
2118.68661570121	2483
2120.96584151355	2480
2123.24440187138	2485
2125.52229707622	2522
2127.79952742943	2500
2130.07609323227	2522
2132.35199478588	2546
2134.62723239132	2503
2136.90180634949	2536
2139.17571696123	2557
2141.44896452723	2538
2143.72154934809	2559
2145.99347172429	2589
2148.26473195623	2629
2150.53533034415	2624
2152.80526718821	2556
2155.07454278848	2566
2157.3431574449	2629
2159.61111145728	2670
2161.87840512538	2590
2164.1450387488	2544
2166.41101262707	2624
2168.67632705959	2609
2170.94098234567	2539
2173.20497878451	2572
2175.46831667519	2634
2177.73099631672	2640
2179.99301800797	2629
2182.25438204772	2611
2184.51508873466	2590
2186.77513836735	2576
2189.03453124427	2637
2191.29326766378	2603
2193.55134792416	2618
2195.80877232355	2615
2198.06554116004	2570
2200.32165473157	2615
2202.577113336	2551
2204.83191727111	2616
2207.08606683453	2632
2209.33956232384	2647
2211.59240403648	2606
2213.84459226982	2661
2216.09612732112	2667
2218.34700948753	2657
2220.59723906612	2653
2222.84681635385	2707
2225.09574164758	2656
2227.34401524408	2666
2229.59163744002	2674
2231.83860853197	2653
2234.08492881639	2659
2236.33059858968	2606
2238.5756181481	2666
2240.81998778784	2670
2243.06370780499	2638
2245.30677849555	2671
2247.54920015539	2649
2249.79097308033	2651
2252.03209756607	2652
2254.27257390822	2695
2256.51240240228	2640
2258.75158334369	2620
2260.99011702777	2677
2263.22800374976	2687
2265.46524380477	2656
2267.70183748786	2656
2269.93778509399	2681
2272.17308691801	2697
2274.40774325467	2677
2276.64175439866	2655
2278.87512064454	2653
2281.10784228682	2692
2283.33991961987	2666
2285.571352938	2685
2287.80214253541	2638
2290.03228870623	2673
2292.26179174449	2684
2294.4906519441	2721
2296.71886959892	2651
2298.9464450027	2670
2301.1733784491	2707
2303.39967023169	2644
2305.62532064395	2755
2307.85032997926	2709
2310.07469853093	2692
2312.29842659216	2683
2314.52151445608	2752
2316.7439624157	2738
2318.96577076397	2733
2321.18693979374	2714
2323.40746979777	2739
2325.62736106873	2722
2327.8466138992	2728
2330.06522858166	2683
2332.28320540853	2745
2334.50054467212	2753
2336.71724666465	2769
2338.93331167827	2710
2341.14874000501	2754
2343.36353193685	2742
2345.57768776564	2739
2347.79120778319	2747
2350.00409228117	2746
2352.21634155121	2740
2354.42795588482	2724
2356.63893557342	2733
2358.84928090838	2704
2361.05899218094	2666
2363.26806968228	2707
2365.47651370347	2682
2367.68432453552	2797
2369.89150246933	2720
2372.09804779571	2724
2374.30396080541	2784
2376.50924178907	2766
2378.71389103725	2732
2380.91790884042	2782
2383.12129548897	2706
2385.3240512732	2738
2387.52617648332	2664
2389.72767140946	2727
2391.92853634165	2698
2394.12877156985	2713
2396.32837738392	2749
2398.52735407365	2706
2400.72570192873	2727
2402.92342123875	2704
2405.12051229325	2742
2407.31697538167	2757
2409.51281079333	2733
2411.70801881751	2751
2413.90259974339	2748
2416.09655386004	2747
2418.28988145648	2704
2420.48258282162	2640
2422.6746582443	2665
2424.86610801325	2788
2427.05693241713	2740
2429.24713174452	2714
2431.43670628389	2725
2433.62565632365	2715
2435.81398215212	2689
2438.00168405752	2717
2440.18876232799	2721
2442.37521725158	2708
2444.56104911628	2756
2446.74625820994	2739
2448.93084482038	2677
2451.1148092353	2710
2453.29815174233	2717
2455.480872629	2681
2457.66297218275	2623
2459.84445069097	2703
2462.02530844092	2692
2464.2055457198	2692
2466.38516281471	2738
2468.56416001267	2704
2470.74253760061	2674
2472.92029586537	2709
2475.09743509372	2706
2477.27395557232	2707
2479.44985758777	2708
2481.62514142655	2753
2483.79980737508	2711
2485.97385571969	2713
2488.14728674661	2655
2490.32010074198	2675
2492.49229799188	2676
2494.66387878228	2771
2496.83484339905	2702
2499.00519212802	2719
2501.17492525488	2668
2503.34404306528	2708
2505.51254584473	2752
2507.6804338787	2729
2509.84770745254	2711
2512.01436685153	2750
2514.18041236085	2721
2516.34584426561	2717
2518.51066285081	2742
2520.67486840138	2703
2522.83846120214	2765
2525.00144153784	2748
2527.16380969314	2736
2529.32556595261	2727
2531.48671060072	2769
2533.64724392186	2729
2535.80716620033	2818
2537.96647772034	2743
2540.12517876602	2792
2542.2832696214	2770
2544.44075057041	2762
2546.59762189691	2826
2548.75388388466	2722
2550.90953681735	2719
2553.06458097853	2800
2555.21901665172	2854
2557.37284412031	2785
2559.5260636676	2730
2561.67867557684	2765
2563.83068013113	2669
2565.98207761351	2811
2568.13286830695	2735
2570.28305249429	2764
2572.43263045829	2773
2574.58160248163	2751
2576.72996884689	2734
2578.87772983655	2761
2581.02488573303	2750
2583.1714368186	2767
2585.31738337549	2749
2587.46272568582	2766
2589.60746403161	2737
2591.75159869479	2778
2593.89512995722	2765
2596.03805810061	2763
2598.18038340665	2759
2600.32210615686	2783
2602.46322663274	2785
2604.60374511563	2782
2606.74366188683	2755
2608.88297722751	2748
2611.02169141875	2817
2613.15980474156	2793
2615.29731747681	2791
2617.43422990532	2781
2619.57054230779	2790
2621.70625496483	2754
2623.84136815694	2782
2625.97588216456	2776
2628.10979726799	2777
2630.24311374746	2740
2632.3758318831	2769
2634.50795195493	2769
2636.6394742429	2764
2638.77039902682	2763
2640.90072658645	2751
2643.0304572014	2704
2645.15959115123	2689
2647.28812871538	2739
2649.41607017319	2800
2651.5434158039	2743
2653.67016588665	2802
2655.79632070049	2751
2657.92188052436	2735
2660.04684563711	2780
2662.17121631749	2709
2664.29499284413	2709
2666.41817549558	2703
2668.54076455027	2746
2670.66276028656	2737
2672.78416298267	2761
2674.90497291675	2746
2677.02519036682	2708
2679.14481561082	2772
2681.26384892658	2742
2683.38229059182	2748
2685.50014088417	2744
2687.61740008114	2720
2689.73406846017	2711
2691.85014629854	2730
2693.96563387347	2678
2696.08053146206	2762
2698.1948393413	2739
2700.3085577881	2731
2702.42168707924	2718
2704.53422749139	2751
2706.64617930112	2752
2708.75754278492	2777
2710.86831821913	2688
2712.97850588002	2774
2715.08810604372	2748
2717.19711898628	2746
2719.30554498363	2702
2721.41338431158	2727
2723.52063724586	2807
2725.62730406206	2740
2727.73338503569	2725
2729.83888044213	2723
2731.94379055664	2756
2734.04811565441	2739
2736.15185601048	2814
2738.25501189979	2741
2740.35758359718	2709
2742.45957137738	2726
2744.56097551499	2759
2746.6617962845	2744
2748.7620339603	2782
2750.86168881666	2762
2752.96076112774	2769
2755.05925116758	2738
2757.15715921012	2734
2759.25448552917	2738
2761.35123039843	2741
2763.44739409148	2749
2765.5429768818	2741
2767.63797904275	2753
2769.73240084756	2800
2771.82624256934	2747
2773.91950448113	2763
2776.01218685579	2776
2778.10428996609	2782
2780.19581408469	2742
2782.28675948414	2810
2784.37712643683	2888
2786.46691521507	2845
2788.55612609104	2781
2790.64475933678	2844
2792.73281522425	2773
2794.82029402525	2782
2796.90719601149	2818
2798.99352145453	2815
2801.07927062583	2799
2803.16444379672	2784
2805.24904123841	2796
2807.33306322197	2789
2809.41651001838	2786
2811.49938189847	2805
2813.58167913296	2768
2815.66340199243	2801
2817.74455074734	2928
2819.82512566805	2831
2821.90512702475	2782
2823.98455508754	2784
2826.06341012637	2785
2828.14169241109	2789
2830.2194022114	2765
2832.29653979686	2782
2834.37310543694	2810
2836.44909940096	2796
2838.5245219581	2778
2840.59937337744	2779
2842.67365392791	2763
2844.74736387829	2786
2846.82050349727	2842
2848.8930730534	2834
2850.96507281506	2807
2853.03650305056	2833
2855.10736402802	2798
2857.17765601545	2846
2859.24737928074	2819
2861.31653409164	2794
2863.38512071574	2814
2865.45313942054	2859
2867.52059047335	2851
2869.58747414139	2830
2871.65379069173	2808
2873.7195403913	2876
2875.78472350688	2888
2877.84934030515	2878
2879.91339105262	2929
2881.97687601567	2909
2884.03979546053	2914
2886.10214965332	2945
2888.16393886	2974
2890.22516334639	2955
2892.28582337816	2959
2894.34591922087	2993
2896.40545113992	2982
2898.46441940054	3031
2900.52282426787	3026
2902.58066600687	3069
2904.63794488237	3167
2906.69466115906	3158
2908.75081510147	3118
2910.806406974	3176
2912.8614370409	3129
2914.91590556626	3034
2916.96981281404	3054
2919.02315904807	3009
2921.07594453199	3011
2923.12816952932	3005
2925.17983430343	3021
2927.23093911753	2995
2929.28148423469	3027
2931.33146991782	3072
2933.3808964297	3031
2935.42976403294	3077
2937.47807299	3102
2939.5258235632	3032
2941.57301601469	3091
2943.61965060648	3165
2945.66572760042	3193
2947.71124725823	3256
2949.75620984143	3315
2951.80061561143	3356
2953.84446482945	3334
2955.88775775656	3400
2957.9304946537	3561
2959.97267578162	3544
2962.01430140095	3657
2964.05537177211	3742
2966.09588715541	3683
2968.13584781097	3619
2970.17525399875	3637
2972.21410597859	3496
2974.25240401011	3528
2976.29014835283	3420
2978.32733926604	3360
2980.36397700892	3352
2982.40006184049	3330
2984.43559401955	3323
2986.4705738048	3339
2988.50500145473	3342
2990.53887722771	3360
2992.57220138189	3377
2994.6049741753	3472
2996.63719586576	3554
2998.66886671097	3578
3000.69998696843	3609
3002.73055689549	3468
3004.7605767493	3501
3006.79004678688	3463
3008.81896726505	3343
3010.84733844048	3334
3012.87516056966	3251
3014.9024339089	3236
3016.92915871433	3198
3018.95533524196	3126
3020.98096374756	3171
3023.00604448675	3158
3025.030577715	3137
3027.05456368757	3159
3029.07800265956	3128
3031.10089488589	3111
3033.12324062131	3127
3035.14504012038	3109
3037.16629363749	3142
3039.18700142685	3130
3041.20716374249	3121
3043.22678083826	3097
3045.24585296782	3174
3047.26438038468	3161
3049.28236334212	3176
3051.29980209329	3180
3053.31669689111	3212
3055.33304798835	3232
3057.34885563757	3281
3059.36412009117	3379
3061.37884160134	3556
3063.39302042011	3662
3065.40665679931	3933
3067.41975099058	4144
3069.43230324538	4265
3071.44431381495	4517
3073.45578295041	4892
3075.46671090261	5433
3077.47709792227	6177
3079.48694425989	6779
3081.49625016578	7043
3083.50501589008	6180
3085.5132416827	5302
3087.5209277934	4592
3089.52807447169	4122
3091.53468196695	3816
3093.54075052832	3594
3095.54628040476	3498
3097.55127184503	3460
3099.55572509769	3328
3101.55964041111	3292
3103.56301803346	3262
3105.5658582127	3222
3107.56816119661	3184
3109.56992723275	3164
3111.57115656849	3176
3113.571849451	3149
3115.57200612724	3159
3117.57162684397	3091
3119.57071184775	3198
3121.56926138493	3111
3123.56727570166	3101
3125.56475504389	3152
3127.56169965735	3077
3129.55810978757	3073
3131.55398567987	3077
3133.54932757937	3148
3135.54413573099	3198
3137.53841037939	3100
3139.53215176909	3101
3141.52536014435	3133
3143.51803574924	3110
3145.51017882762	3130
3147.50178962311	3186
3149.49286837916	3134
3151.48341533897	3114
3153.47343074553	3168
3155.46291484164	3191
3157.45186786985	3129
3159.44029007252	3095
3161.42818169179	3143
3163.41554296955	3118
3165.40237414753	3100
3167.38867546718	3171
3169.37444716975	3068
3171.35968949631	3183
3173.34440268764	3178
3175.32858698436	3177
3177.31224262682	3123
3179.29536985517	3089
3181.27796890934	3103
3183.26004002902	3088
3185.24158345368	3114
3187.22259942256	3134
3189.2030881747	3146
3191.18304994886	3125
3193.16248498363	3116
3195.14139351733	3188
3197.11977578807	3115
3199.09763203371	3137
3201.07496249191	3121
3203.05176740007	3188
3205.02804699537	3216
3207.00380151475	3175
3208.97903119493	3174
3210.95373627238	3257
3212.92791698335	3192
3214.90157356383	3250
3216.8747062496	3289
3218.84731527619	3277
3220.81940087889	3303
3222.79096329275	3328
3224.76200275259	3302
3226.73251949298	3323
3228.70251374825	3277
3230.67198575251	3224
3232.64093573959	3294
3234.6093639431	3283
3236.57727059641	3218
3238.54465593261	3288
3240.51152018461	3300
3242.47786358502	3232
3244.44368636621	3237
3246.40898876031	3221
3248.37377099923	3239
3250.33803331458	3245
3252.30177593775	3225
3254.26499909987	3247
3256.22770303184	3233
3258.18988796427	3261
3260.15155412755	3223
3262.1127017518	3235
3264.0733310669	3228
3266.03344230246	3221
3267.99303568784	3254
3269.95211145215	3307
3271.91066982422	3209
3273.86871103267	3228
3275.82623530581	3245
3277.7832428717	3290
3279.73973395818	3353
3281.69570879278	3332
3283.6511676028	3292
3285.60611061527	3317
3287.56053805694	3266
3289.51445015432	3265
3291.46784713364	3225
3293.42072922088	3263
3295.37309664173	3295
3297.32494962163	3306
3299.27628838575	3354
3301.227113159	3324
3303.17742416601	3325
3305.12722163114	3288
3307.07650577848	3339
3309.02527683185	3318
3310.9735350148	3294
3312.9212805506	3291
3314.86851366225	3327
3316.81523457249	3357
3318.76144350377	3334
3320.70714067825	3367
3322.65232631783	3313
3324.59700064415	3243
3326.54116387854	3317
3328.48481624207	3262
3330.42795795551	3262
3332.37058923938	3346
3334.31271031389	3289
3336.25432139898	3277
3338.19542271432	3382
3340.13601447927	3377
3342.07609691292	3281
3344.01567023407	3363
3345.95473466124	3288
3347.89329041266	3323
3349.83133770627	3351
3351.76887675973	3351
3353.70590779039	3316
3355.64243101534	3380
3357.57844665135	3320
3359.51395491492	3228
3361.44895602224	3349
3363.38345018922	3356
3365.31743763148	3299
3367.25091856432	3317
3369.18389320278	3314
3371.11636176156	3340
3373.0483244551	3382
3374.97978149754	3370
3376.91073310269	3368
3378.84117948409	3306
3380.77112085498	3422
3382.70055742826	3382
3384.62948941659	3333
3386.55791703227	3374
3388.48584048733	3353
3390.41325999348	3402
3392.34017576214	3375
3394.2665880044	3384
3396.19249693107	3420
3398.11790275263	3376
3400.04280567926	3376
3401.96720592084	3414
3403.89110368692	3381
3405.81449918675	3380
3407.73739262928	3405
3409.65978422311	3412
3411.58167417658	3407
3413.50306269768	3443
3415.42394999408	3463
3417.34433627316	3420
3419.26422174195	3370
3421.18360660721	3409
3423.10249107532	3329
3425.02087535239	3399
3426.93875964421	3361
3428.8561441562	3399
3430.77302909353	3380
3432.68941466097	3406
3434.60530106301	3415
3436.52068850383	3383
3438.43557718726	3474
3440.34996731681	3373
3442.26385909565	3410
3444.17725272664	3411
3446.09014841231	3379
3448.00254635486	3382
3449.91444675614	3410
3451.82584981771	3422
3453.73675574076	3375
3455.64716472616	3428
3457.55707697445	3400
3459.46649268584	3379
3461.37541206018	3418
3463.28383529703	3462
3465.19176259555	3384
3467.09919415464	3395
3469.00613017278	3410
3470.91257084817	3442
3472.81851637863	3341
3474.72396696168	3367
3476.62892279446	3315
3478.53338407379	3357
3480.43735099614	3381
3482.34082375764	3349
3484.24380255404	3396
3486.1462875808	3420
3488.048279033	3404
3489.94977710537	3444
3491.85078199231	3456
3493.75129388783	3414
3495.65131298566	3390
3497.5508394791	3368
3499.44987356115	3396