200.090469251521	661.75
202.974751419364	663
205.858021632265	649
208.740280737522	653
211.621529580445	656.5
214.501769004372	659
217.380999850628	659
220.259222958593	660
223.136439165649	664
226.012649307235	652.25
228.887854216822	651.5
231.762054725918	653.25
234.635251664113	658.5
237.507445859023	661.75
240.378638136347	662.25
243.248829319856	660.25
246.118020231373	673.25
248.986211690827	663.25
251.853404516227	666.25
254.719599523657	662.25
257.584797527337	668.25
260.448999339541	665.25
263.312205770686	662.5
266.174417629303	659.75
269.035635722017	654.25
271.89586085361	650.75
274.755093826979	657.75
277.613335443147	652.25
280.470586501312	655.5
283.326847798768	662.75
286.18212013102	656.75
289.036404291687	657.75
291.889701072576	656
294.742011263643	664.75
297.593335653049	654.75
300.443675027094	656.25
303.293030170298	659
306.141401865367	662.5
308.988790893176	664.5
311.835198032838	669.75
314.680624061637	669.75
317.525069755113	664
320.36853588697	668.5
323.211023229181	681.25
326.052532551923	670
328.893064623606	666.75
331.732620210886	659.75
334.571200078671	659.25
337.408804990093	660
340.245435706565	662.5
343.081092987735	665
345.915777591524	664.75
348.749490274149	659.5
351.582231790051	658
354.414002892	664.25
357.244804331024	663
360.074636856445	660.5
362.903501215886	660
365.731398155266	665.75
368.558328418816	671.25
371.384292749062	663
374.209291886871	672.5
377.033326571409	666
379.856397540173	668.5
382.678505529011	670.5
385.499651272066	686
388.319835501873	687.75
391.139058949262	719.75
393.957322343455	739.5
396.774626412012	759.75
399.590971880849	763.25
402.406359474259	732.25
405.220789914895	705.25
408.034263923803	694.25
410.846782220402	687.75
413.658345522482	680.5
416.468954546245	671
419.278610006279	679.25
422.087312615559	673.5
424.895063085505	672.75
427.701862125904	673.75
430.507710444984	675.75
433.312608749369	669.5
436.116557744146	679.5
438.919558132792	684.25
441.72161061724	675
444.522715897858	681.25
447.322874673459	688
450.122087641299	697.5
452.920355497093	691
455.71767893501	693.5
458.514058647682	699
461.30949532622	685.75
464.10398966019	680
466.897542337651	677.25
469.690154045117	670.5
472.481825467627	670
475.272557288677	673
478.062350190282	669.5
480.851204852952	666.75
483.639121955686	666.5
486.426102176009	673
489.212146189958	675.25
491.997254672092	669.5
494.781428295473	671.5
497.564667731718	663
500.346973650961	668.25
503.12834672188	671
505.908787611691	670.25
508.688296986151	664.5
511.466875509572	677.75
514.244523844834	676.25
517.021242653355	679.25
519.797032595132	682.5
522.571894328732	690
525.34582851128	687.25
528.118835798493	695.75
530.890916844657	693
533.66207230267	684.25
536.432302823987	681.25
539.201609058685	680
541.969991655422	672.75
544.737451261476	671
547.503988522724	673.25
550.269604083663	671
553.034298587396	666.75
555.798072675669	670.75
558.560926988819	660.75
561.322862165851	670.5
564.083878844371	664.25
566.843977660657	670.25
569.603159249605	671
572.361424244772	665.5
575.118773278369	672
577.875206981241	662.25
580.630725982908	664.5
583.385330911566	665.25
586.139022394078	671.25
588.891801055957	672
591.643667521408	671.25
594.394622413318	672
597.144666353275	667
599.893799961513	668.5
602.642023857012	665.25
605.389338657416	671
608.13574497909	673.5
610.881243437093	671.5
613.625834645192	671.75
616.369519215883	669
619.112297760377	665
621.854170888605	671
624.595139209227	672
627.335203329614	667
630.074363855917	670.5
632.81262139299	671
635.549976544439	663.5
638.286429912615	671
641.021982098637	662
643.756633702364	663.75
646.490385322412	669
649.223237556177	666.25
651.955190999809	667.75
654.686246248224	674
657.416403895136	675.25
660.145664533012	668.75
662.874028753135	671.75
665.601497145537	669.25
668.328070299073	668.75
671.05374880138	666.5
673.778533238886	676
676.502424196839	673.25
679.225422259297	672.25
681.947528009102	672.5
684.66874202793	670.25
687.389064896282	672.75
690.108497193467	671.5
692.827039497622	672.25
695.544692385727	668
698.261456433588	676.75
700.97733221585	671
703.692320305984	670.5
706.406421276339	677.5
709.119635698082	670.25
711.831964141257	675.25
714.543407174743	678.5
717.253965366306	676.75
719.963639282554	669.75
722.672429488964	668.5
725.380336549907	675.75
728.087361028599	677.75
730.793503487167	676.5
733.498764486595	680.25
736.203144586759	672
738.906644346449	673
741.609264323313	673.5
744.311005073915	685.25
747.01186715373	672.25
749.711851117123	678.75
752.410957517377	679.25
755.109186906677	685
757.806539836135	681.75
760.503016855782	682.25
763.198618514553	676.25
765.893345360349	671
768.587197939965	678.25
771.280176799143	674
773.972282482569	682.75
776.66351553386	673.75
779.353876495577	668
782.043365909243	680.5
784.731984315328	678
787.419732253236	679.75
790.106610261368	685
792.792618877059	691
795.477758636619	692.5
798.162030075316	704.75
800.845433727424	730.5
803.527970126152	774
806.209639803714	818.75
808.890443291307	830.5
811.5703811191	798.75
814.249453816264	755.75
816.927661910961	722.75
819.605005930361	706.25
822.281486400606	705.75
824.957103846867	708.25
827.631858793319	711
830.305751763137	719.5
832.978783278521	737.5
835.650953860679	753.75
838.322264029851	793.25
840.992714305294	800.25
843.662305205292	775.75
846.331037247159	734.5
848.998910947244	720.5
851.665926820937	712.75
854.332085382674	703
856.997387145915	697.5
859.661832623193	692
862.325422326067	692.5
864.988156765174	694
867.650036450184	688.25
870.311061889847	690.75
872.971233591961	689.25
875.630552063409	684.5
878.28901781013	682
880.946631337141	679
883.603393148535	680.5
886.259303747486	685.5
888.914363636247	688.75
891.568573316158	688.5
894.22193328767	692.5
896.874444050283	698
899.526106102627	694
902.176919942417	699.5
904.826886066483	690.25
907.47600497075	684
910.124277150257	687.5
912.771703099131	692.25
915.418283310643	688.5
918.064018277177	689.25
920.708908490222	690
923.352954440405	681.5
925.996156617489	695.75
928.638515510336	686.25
931.280031606966	689.5
933.920705394522	702.5
936.560537359305	709.75
939.19952798674	712.75
941.837677761394	705.75
944.474987167007	703.75
947.111456686439	704
949.747086801736	694.75
952.381877994073	693
955.015830743793	697
957.648945530419	711
960.281222832634	709.75
962.912663128263	701.75
965.543266894337	715.5
968.173034607059	734.25
970.80196674178	762.75
973.430063773072	760.25
976.057326174661	757.75
978.683754419475	719.25
981.309348979625	715.25
983.934110326421	701
986.558038930362	698
989.181135261147	713.5
991.803399787692	713
994.424832978086	732.5
997.045435299653	730.75
999.665207218908	731.5
1002.2841492016	722.25
1004.90226171266	714.5
1007.51954521628	699.75
1010.13600017584	712.25
1012.75162705397	704
1015.3664263125	705.5
1017.98039841251	709
1020.5935438143	712.75
1023.20586297741	712
1025.81735636063	707.25
1028.42802442196	717.25
1031.03786761869	719.25
1033.64688640732	738
1036.2550812436	736.25
1038.86245258256	734.25
1041.46900087844	719.25
1044.07472658479	738.25
1046.67963015438	720.75
1049.28371203926	712.5
1051.88697269076	711.75
1054.48941255943	703.75
1057.09103209513	713
1059.691831747	716
1062.29181196343	710.75
1064.89097319211	715.5
1067.48931587999	705.75
1070.08684047333	699.25
1072.68354741766	707.25
1075.2794371578	703
1077.87451013787	705.75
1080.46876680127	712.5
1083.06220759071	715.25
1085.65483294822	691.25
1088.24664331509	698.25
1090.83763913194	710.5
1093.4278208387	708.25
1096.01718887459	711
1098.60574367818	709.75
1101.19348568732	716.75
1103.78041533919	713.5
1106.3665330703	726
1108.95183931646	716.75
1111.53633451284	711.5
1114.12001909391	716.75
1116.70289349349	711.75
1119.28495814471	706.75
1121.86621348006	718
1124.44665993134	724.5
1127.02629792974	732.5
1129.60512790574	731.25
1132.18315028919	728.25
1134.76036550929	725.25
1137.3367739946	732.25
1139.912376173	733
1142.48717247176	743.75
1145.06116331749	762.5
1147.63434913616	777.75
1150.20673035312	802
1152.77830739307	808.25
1155.34908068007	800
1157.91905063757	793.25
1160.48821768838	787.25
1163.05658225471	790.5
1165.6241447581	799
1168.19090561951	800.75
1170.75686525927	778.25
1173.32202409709	764.25
1175.88638255206	739.5
1178.44994104269	731
1181.01269998685	733.5
1183.57465980182	726.25
1186.13582090427	725.25
1188.69618371026	730.25
1191.25574863529	727.5
1193.8145160942	720
1196.37248650129	724.75
1198.92966027025	728.75
1201.48603781417	733.75
1204.04161954556	735.25
1206.59640587635	724.5
1209.15039721788	740.75
1211.70359398092	753.75
1214.25599657564	742.25
1216.80760541166	760.25
1219.35842089801	767.25
1221.90844344314	768.25
1224.45767345496	749.5
1227.00611134077	749
1229.55375750736	746.5
1232.10061236092	730.25
1234.64667630707	745.75
1237.1919497509	739.25
1239.73643309692	733.5
1242.28012674912	751
1244.82303111089	741
1247.36514658511	744.25
1249.90647357411	751.75
1252.44701247964	746.75
1254.98676370294	753.75
1257.52572764469	762.5
1260.06390470506	748.25
1262.60129528365	756.5
1265.13789977955	746.25
1267.67371859128	752.5
1270.20875211688	755.75
1272.74300075384	755
1275.2764648991	759
1277.80914494911	763
1280.34104129979	757.75
1282.87215434652	763.25
1285.40248448419	761.75
1287.93203210715	777.75
1290.46079760927	785.5
1292.98878138385	789.5
1295.51598382375	807
1298.04240532127	798.5
1300.56804626823	789.5
1303.09290705594	782
1305.6169880752	783
1308.14028971632	779.25
1310.66281236913	786.5
1313.18455642292	785.5
1315.70552226653	787
1318.22571028829	807.5
1320.74512087603	820
1323.26375441711	835
1325.7816112984	880.25
1328.29869190629	886
1330.81499662667	890
1333.33052584497	859
1335.84527994613	836.25
1338.35925931464	820
1340.87246433447	816.75
1343.38489538916	821.75
1345.89655286177	811.75
1348.40743713487	811.5
1350.91754859059	817.25
1353.42688761059	828.75
1355.93545457606	844.5
1358.44324986772	866.75
1360.95027386588	852.25
1363.45652695032	849
1365.96200950043	831
1368.4667218951	846.25
1370.97066451281	839.5
1373.47383773156	841
1375.97624192891	841.25
1378.47787748199	843.25
1380.97874476746	829
1383.47884416157	830
1385.9781760401	822.25
1388.4767407784	824.25
1390.9745387514	820.25
1393.47157033358	818.75
1395.96783589898	834.25
1398.46333582124	827.75
1400.95807047355	827.75
1403.45204022865	821.75
1405.94524545889	836.75
1408.4376865362	842.25
1410.92936383205	840
1413.42027771753	845.5
1415.91042856328	861.5
1418.39981673955	862.25
1420.88844261615	846.25
1423.37630656249	853
1425.86340894757	856
1428.34975013999	874.5
1430.83533050792	898.5
1433.32015041912	912.5
1435.80421024098	924.5
1438.28751034046	934.5
1440.77005108411	923.75
1443.25183283812	930.5
1445.73285596824	932.75
1448.21312083984	956.75
1450.69262781791	977.5
1453.17137726702	1003
1455.64936955137	1035
1458.12660503477	1041.75
1460.60308408063	1034.25
1463.07880705198	1015
1465.55377431145	989.75
1468.02798622133	955
1470.50144314349	957.75
1472.97414543941	936.5
1475.44609347025	928.75
1477.91728759673	926.5
1480.38772817924	922.25
1482.85741557777	923.25
1485.32635015194	922.5
1487.79453226103	927.25
1490.26196226392	924.75
1492.72864051911	931.25
1495.1945673848	926.75
1497.65974321875	942.75
1500.1241683784	953
1502.58784322083	929
1505.05076810274	944.25
1507.51294338049	946
1509.97436941009	957.5
1512.43504654718	960
1514.89497514704	961.75
1517.35415556462	954.75
1519.8125881545	966
1522.27027327095	952.5
1524.72721126785	966.25
1527.18340249875	964.5
1529.63884731684	981
1532.09354607502	981.25
1534.5474991258	978.25
1537.00070682136	979.25
1539.45316951355	982.5
1541.90488755388	975
1544.35586129354	980
1546.80609108336	1005.5
1549.25557727385	988.5
1551.70432021519	998.75
1554.15232025725	1028.5
1556.59957774954	1015.75
1559.04609304125	1019
1561.49186648127	1018.5
1563.93689841815	1012.75
1566.38118920011	1038.75
1568.82473917506	1025.5
1571.2675486906	1022.75
1573.70961809399	1034.75
1576.15094773219	1043.5
1578.59153795185	1041.75
1581.03138909928	1055.5
1583.47050152051	1046.5
1585.90887556123	1053.5
1588.34651156686	1064.75
1590.78340988246	1066.75
1593.21957085283	1062
1595.65499482245	1066.75
1598.08968213547	1068.5
1600.52363313578	1064.25
1602.95684816695	1079
1605.38932757224	1078.5
1607.82107169462	1079.5
1610.25208087678	1082.25
1612.68235546107	1092.5
1615.1118957896	1099.5
1617.54070220415	1086.25
1619.96877504622	1077
1622.39611465702	1088.25
1624.82272137746	1096.25
1627.24859554818	1086
1629.67373750953	1117.25
1632.09814760155	1116.5
1634.52182616404	1094.25
1636.94477353648	1115.25
1639.36699005807	1100
1641.78847606776	1102.25
1644.20923190419	1104.25
1646.62925790573	1119
1649.04855441048	1114.5
1651.46712175628	1129
1653.88496028066	1116
1656.3020703209	1140.75
1658.71845221401	1136.75
1661.13410629671	1144
1663.54903290548	1142.75
1665.96323237649	1138.25
1668.37670504571	1153.25
1670.78945124877	1140.25
1673.20147132109	1154.25
1675.61276559779	1159.5
1678.02333441377	1151.25
1680.43317810362	1166.25
1682.84229700171	1170.75
1685.25069144213	1180
1687.65836175872	1162.5
1690.06530828507	1171.25
1692.47153135451	1180.25
1694.8770313001	1182.75
1697.28180845468	1196
1699.6858631508	1186
1702.08919572081	1192
1704.49180649676	1190.5
1706.89369581049	1190
1709.29486399356	1182
1711.69531137731	1191.75
1714.09503829282	1200.5
1716.49404507096	1193.75
1718.89233204229	1206.5
1721.28989953721	1195.25
1723.68674788581	1200.25
1726.08287741798	1193
1728.47828846338	1207
1730.87298135139	1193.25
1733.26695641119	1198.75
1735.66021397173	1218.5
1738.05275436169	1200.75
1740.44457790955	1205.75
1742.83568494355	1207
1745.22607579168	1212.5
1747.61575078175	1205.75
1750.00471024128	1218
1752.39295449761	1227
1754.78048387783	1220.5
1757.16729870881	1204.5
1759.5533993172	1217.75
1761.93878602942	1225.75
1764.32345917168	1237.25
1766.70741906995	1227.25
1769.09066604999	1221.5
1771.47320043736	1238.5
1773.85502255735	1234.75
1776.2361327351	1235.5
1778.61653129548	1259
1780.99621856318	1253.25
1783.37519486264	1237.75
1785.75346051813	1243.25
1788.13101585368	1260.5
1790.50786119311	1262.75
1792.88399686002	1255.5
1795.25942317785	1263.5
1797.63414046977	1281.25
1800.00814905878	1261.5
1802.38144926766	1279.5
1804.75404141898	1279.25
1807.12592583514	1285.75
1809.49710283829	1307.25
1811.86757275039	1273.75
1814.23733589322	1302.5
1816.60639258834	1272.75
1818.97474315712	1289.5
1821.34238792073	1295
1823.70932720012	1289.25
1826.07556131608	1281
1828.44109058918	1284
1830.8059153398	1282
1833.17003588812	1290
1835.53345255413	1310.5
1837.89616565765	1315.5
1840.25817551827	1294.5
1842.61948245541	1310.75
1844.9800867883	1316
1847.33998883598	1332
1849.6991889173	1317.75
1852.05768735091	1333.25
1854.4154844553	1312.75
1856.77258054875	1336.25
1859.12897594938	1343.5
1861.48467097511	1340
1863.83966594367	1319
1866.19396117261	1323.75
1868.54755697932	1342
1870.90045368099	1360.75
1873.25265159463	1334.5
1875.60415103708	1345.5
1877.95495232501	1341.25
1880.30505577487	1352.25
1882.65446170299	1371.5
1885.00317042549	1382.5
1887.35118225832	1362.25
1889.69849751726	1366.25
1892.04511651792	1391
1894.39103957574	1380.5
1896.73626700596	1373.75
1899.08079912369	1389.5
1901.42463624384	1399.5
1903.76777868116	1402
1906.11022675025	1409.5
1908.4519807655	1406.25
1910.79304104117	1402.75
1913.13340789134	1423
1915.47308162993	1386
1917.81206257067	1411
1920.15035102718	1415.5
1922.48794731286	1405.75
1924.82485174096	1437.75
1927.16106462461	1441.5
1929.49658627672	1418
1931.83141701008	1414
1934.1655571373	1417
1936.49900697085	1425
1938.83176682301	1427
1941.16383700594	1416.5
1943.49521783161	1413
1945.82590961186	1445
1948.15591265835	1422.25
1950.48522728262	1432.75
1952.81385379602	1393.5
1955.14179250976	1419.75
1957.46904373489	1406.75
1959.79560778233	1415.5
1962.12148496284	1428.25
1964.44667558701	1415.5
1966.77117996529	1415.5
1969.094998408	1412
1971.41813122527	1414.25
1973.74057872714	1420.5
1976.06234122345	1420.25
1978.38341902391	1439
1980.7038124381	1419.25
1983.02352177544	1435
1985.34254734518	1421.75
1987.66088945649	1432.75
1989.97854841833	1425.75
1992.29552453956	1441.5
1994.61181812887	1430.5
1996.92742949483	1442.25
1999.24235894586	1436
2001.55660679023	1456.5
2003.87017333609	1458.5
2006.18305889143	1461.25
2008.49526376413	1445.75
2010.80678826189	1436.5
2013.1176326923	1470.75
2015.42779736282	1452.25
2017.73728258075	1443.25
2020.04608865326	1466.25
2022.35421588741	1454.25
2024.66166459008	1480.5
2026.96843506807	1475.25
2029.274527628	1483.75
2031.57994257638	1481.25
2033.88468021957	1468
2036.18874086383	1464.75
2038.49212481526	1479.75
2040.79483237983	1486.75
2043.0968638634	1482.75
2045.39821957169	1475.5
2047.69889981028	1486.25
2049.99890488462	1482
2052.29823510007	1491
2054.59689076181	1471.5
2056.89487217492	1457.25
2059.19217964437	1476.25
2061.48881347497	1490.25
2063.7847739714	1467.5
2066.08006143827	1503
2068.37467618	1469
2070.66861850093	1465
2072.96188870527	1474.5
2075.25448709708	1481
2077.54641398031	1471.75
2079.83766965881	1483
2082.12825443629	1479
2084.41816861634	1458
2086.70741250242	1484.25
2088.99598639789	1477.5
2091.28389060597	1492.75
2093.57112542978	1465
2095.85769117232	1487.25
2098.14358813644	1461
2100.42881662491	1471
2102.71337694037	1478
2104.99726938533	1475.5
2107.28049426219	1463.25
2109.56305187326	1489.25
2111.84494252069	1489
2114.12616650655	1491.25
2116.40672413278	1494.5
2118.68661570121	1491.25
2120.96584151355	1483
2123.24440187139	1487.75
2125.52229707622	1488.5
2127.79952742943	1473.25
2130.07609323227	1497.25
2132.35199478588	1489
2134.62723239132	1500.5
2136.90180634949	1484.75
2139.17571696123	1496.25
2141.44896452723	1484.5
2143.72154934809	1517.75
2145.9934717243	1512.75
2148.26473195623	1503.5
2150.53533034415	1509.5
2152.80526718822	1496
2155.07454278848	1498.75
2157.3431574449	1500
2159.61111145728	1513.25
2161.87840512538	1500.75
2164.1450387488	1514.75
2166.41101262707	1500.25
2168.67632705959	1493
2170.94098234567	1494.5
2173.20497878451	1497.75
2175.4683166752	1507.5
2177.73099631673	1498
2179.99301800797	1486
2182.25438204773	1488.25
2184.51508873466	1496.25
2186.77513836735	1500.75
2189.03453124427	1500.25
2191.29326766378	1491.5
2193.55134792416	1484.5
2195.80877232355	1485
2198.06554116004	1500.5
2200.32165473157	1498.25
2202.577113336	1492.75
2204.83191727111	1499.25
2207.08606683453	1472.25
2209.33956232384	1500.75
2211.59240403649	1458.75
2213.84459226982	1482.5
2216.09612732112	1491.75
2218.34700948753	1481
2220.59723906612	1475.5
2222.84681635385	1460.75
2225.09574164758	1452
2227.34401524408	1478.75
2229.59163744002	1465.25
2231.83860853197	1451.75
2234.08492881639	1439.5
2236.33059858968	1456
2238.5756181481	1477.25
2240.81998778785	1473.5
2243.06370780499	1440.75
2245.30677849555	1440
2247.54920015539	1472.5
2249.79097308033	1429.75
2252.03209756607	1444
2254.27257390822	1429.5
2256.51240240228	1445
2258.75158334369	1434
2260.99011702777	1461.75
2263.22800374976	1439
2265.46524380477	1421.25
2267.70183748787	1415.25
2269.93778509399	1432.25
2272.17308691801	1429.5
2274.40774325467	1421.75
2276.64175439866	1418
2278.87512064454	1414.25
2281.10784228682	1405.5
2283.33991961987	1423.5
2285.571352938	1403.25
2287.80214253541	1406.75
2290.03228870623	1417
2292.26179174449	1393.75
2294.4906519441	1409.5
2296.71886959893	1393.5
2298.94644500271	1392.5
2301.1733784491	1403.5
2303.39967023169	1397.75
2305.62532064395	1381.5
2307.85032997926	1400
2310.07469853093	1376.25
2312.29842659216	1388.75
2314.52151445608	1383.5
2316.7439624157	1360.5
2318.96577076398	1370.75
2321.18693979374	1373.5
2323.40746979777	1373.75
2325.62736106873	1371.5
2327.8466138992	1367
2330.06522858166	1378.25
2332.28320540853	1353.25
2334.50054467212	1357.75
2336.71724666465	1358.75
2338.93331167827	1369.5
2341.14874000501	1340
2343.36353193685	1332
2345.57768776564	1324
2347.79120778319	1342.5
2350.00409228117	1332.75
2352.21634155121	1334
2354.42795588482	1328.75
2356.63893557343	1319
2358.84928090839	1319.75
2361.05899218094	1309.75
2363.26806968228	1314.5
2365.47651370347	1316.5
2367.68432453552	1306.75
2369.89150246933	1295.75
2372.09804779571	1292
2374.30396080541	1309
2376.50924178907	1289
2378.71389103725	1297.25
2380.91790884042	1306
2383.12129548898	1274
2385.32405127321	1279.25
2387.52617648332	1262
2389.72767140946	1286.75
2391.92853634165	1296.25
2394.12877156985	1277
2396.32837738393	1266.75
2398.52735407365	1274.5
2400.72570192873	1273.75
2402.92342123875	1287
2405.12051229325	1252.75
2407.31697538167	1262.5
2409.51281079334	1266
2411.70801881751	1245.25
2413.90259974339	1263.25
2416.09655386005	1257.75
2418.28988145648	1249.75
2420.48258282163	1260
2422.6746582443	1260.75
2424.86610801325	1245.5
2427.05693241713	1236.75
2429.24713174452	1253.75
2431.43670628389	1236
2433.62565632365	1236.25
2435.81398215213	1231.25
2438.00168405752	1247.25
2440.18876232799	1249.25
2442.37521725158	1238
2444.56104911628	1228.5
2446.74625820994	1222
2448.93084482038	1220.25
2451.1148092353	1232.5
2453.29815174233	1213.75
2455.480872629	1203.25
2457.66297218276	1204.25
2459.84445069097	1215
2462.02530844092	1217.75
2464.2055457198	1210
2466.38516281471	1196.75
2468.56416001267	1199.25
2470.74253760061	1192.75
2472.92029586537	1188.5
2475.09743509372	1207.75
2477.27395557232	1182.75
2479.44985758777	1202.75
2481.62514142655	1194.25
2483.79980737509	1188.25
2485.97385571969	1181.25
2488.1472867466	1187.5
2490.32010074198	1188.75
2492.49229799188	1171.75
2494.66387878228	1198
2496.83484339905	1188.75
2499.00519212802	1194.5
2501.17492525489	1204.25
2503.34404306528	1193.5
2505.51254584473	1194
2507.6804338787	1182.25
2509.84770745254	1180.5
2512.01436685153	1179.5
2514.18041236085	1181.5
2516.34584426561	1190
2518.51066285081	1188
2520.67486840138	1188.5
2522.83846120214	1188.75
2525.00144153785	1172.5
2527.16380969314	1163
2529.32556595261	1192
2531.48671060072	1168.25
2533.64724392186	1196.75
2535.80716620033	1167.25
2537.96647772035	1172.25
2540.12517876602	1167
2542.2832696214	1188.25
2544.44075057041	1181.5
2546.59762189692	1163.5
2548.75388388467	1166.5
2550.90953681735	1161
2553.06458097853	1159
2555.21901665172	1163
2557.37284412031	1166.5
2559.5260636676	1159.75
2561.67867557684	1173.5
2563.83068013113	1170.75
2565.98207761352	1161.75
2568.13286830695	1147
2570.28305249429	1156
2572.43263045829	1158.5
2574.58160248163	1159.5
2576.72996884689	1157
2578.87772983656	1156
2581.02488573303	1144.5
2583.1714368186	1151
2585.3173833755	1139.25
2587.46272568582	1134.5
2589.60746403161	1147
2591.75159869479	1150.25
2593.89512995722	1150.5
2596.03805810062	1138.25
2598.18038340665	1138
2600.32210615686	1142.25
2602.46322663274	1134
2604.60374511563	1140.25
2606.74366188683	1140.25
2608.88297722751	1143
2611.02169141875	1137
2613.15980474156	1143.5
2615.29731747681	1130
2617.43422990532	1143.25
2619.57054230779	1140
2621.70625496483	1126.75
2623.84136815695	1125.25
2625.97588216456	1130.75
2628.10979726799	1136.75
2630.24311374746	1134
2632.3758318831	1135
2634.50795195493	1131
2636.6394742429	1141.5
2638.77039902682	1134
2640.90072658645	1145.5
2643.0304572014	1139.25
2645.15959115123	1143.25
2647.28812871538	1145
2649.41607017319	1144
2651.5434158039	1151.75
2653.67016588665	1148.75
2655.79632070049	1138.5
2657.92188052436	1140
2660.04684563712	1128.75
2662.17121631749	1148.25
2664.29499284413	1130.5
2666.41817549558	1140
2668.54076455028	1145.5
2670.66276028656	1138.25
2672.78416298267	1127.5
2674.90497291675	1128.5
2677.02519036682	1138.5
2679.14481561082	1141
2681.26384892658	1143.5
2683.38229059183	1128.25
2685.50014088417	1124.75
2687.61740008115	1133.25
2689.73406846017	1143
2691.85014629854	1136.75
2693.96563387347	1127.5
2696.08053146206	1152.5
2698.1948393413	1136.75
2700.3085577881	1126.25
2702.42168707924	1167
2704.53422749139	1147.5
2706.64617930112	1155.75
2708.75754278492	1173.25
2710.86831821914	1166.75
2712.97850588002	1156.25
2715.08810604372	1177.5
2717.19711898628	1173.75
2719.30554498363	1211.25
2721.41338431159	1211.25
2723.52063724587	1206.5
2725.62730406207	1207.25
2727.73338503569	1176
2729.83888044213	1174.5
2731.94379055665	1173
2734.04811565441	1170.25
2736.15185601048	1143.75
2738.25501189979	1158.25
2740.35758359718	1135.75
2742.45957137738	1165.25
2744.56097551499	1157
2746.6617962845	1161.5
2748.7620339603	1126
2750.86168881666	1136
2752.96076112774	1142
2755.05925116759	1143
2757.15715921013	1140.25
2759.25448552917	1146.75
2761.35123039843	1130.25
2763.44739409148	1143
2765.54297688181	1120
2767.63797904275	1136.5
2769.73240084756	1141.5
2771.82624256935	1140.75
2773.91950448113	1132.5
2776.01218685579	1134
2778.10428996609	1125.75
2780.1958140847	1145.75
2782.28675948414	1157.25
2784.37712643683	1156.75
2786.46691521507	1149.5
2788.55612609103	1142.5
2790.64475933678	1139.75
2792.73281522425	1148.5
2794.82029402525	1130.75
2796.90719601149	1143.25
2798.99352145453	1150.75
2801.07927062583	1152
2803.16444379672	1140.75
2805.24904123841	1157.5
2807.33306322197	1164.75
2809.41651001838	1154.5
2811.49938189847	1164.75
2813.58167913296	1166.25
2815.66340199243	1182
2817.74455074734	1168.5
2819.82512566805	1177.75
2821.90512702475	1181.5
2823.98455508754	1210
2826.06341012637	1229
2828.14169241109	1269.25
2830.2194022114	1309.25
2832.29653979686	1392.25
2834.37310543694	1484.75
2836.44909940096	1627
2838.52452195811	1656.5
2840.59937337745	1644.75
2842.67365392791	1627
2844.7473638783	1557
2846.82050349728	1499
2848.8930730534	1435.75
2850.96507281507	1411
2853.03650305056	1411.75
2855.10736402802	1438
2857.17765601545	1456.5
2859.24737928075	1521.75
2861.31653409164	1639.25
2863.38512071574	1781
2865.45313942054	1879.5
2867.52059047335	1892.75
2869.58747414139	1884.75
2871.65379069173	1874
2873.7195403913	1930
2875.78472350688	2025.75
2877.84934030515	2148.75
2879.91339105262	2235.25
2881.97687601567	2282.5
2884.03979546054	2221
2886.10214965333	2150.75
2888.16393886001	2064.5
2890.22516334639	2000.25
2892.28582337816	1924.5
2894.34591922087	1909.5
2896.40545113992	1892
2898.46441940054	1935
2900.52282426787	1935.5
2902.58066600687	1990.75
2904.63794488237	2038.5
2906.69466115906	1933.5
2908.75081510147	1885.75
2910.806406974	1789
2912.86143704089	1758.5
2914.91590556626	1711.25
2916.96981281405	1716.5
2919.02315904807	1742.5
2921.07594453199	1763.75
2923.12816952932	1766
2925.17983430343	1747
2927.23093911753	1711
2929.28148423469	1668
2931.33146991782	1601.75
2933.3808964297	1546.75
2935.42976403294	1469
2937.47807299	1470.5
2939.5258235632	1432.75
2941.57301601469	1439.5
2943.61965060648	1472.5
2945.66572760042	1544.25
2947.71124725823	1676.75
2949.75620984144	1746.5
2951.80061561143	1764
2953.84446482945	1735.5
2955.88775775656	1726
2957.9304946537	1738.25
2959.97267578162	1750.75
2962.01430140095	1733.75
2964.05537177211	1673.25
2966.09588715541	1603.75
2968.13584781097	1540.25
2970.17525399875	1495.25
2972.21410597859	1412.25
2974.25240401012	1378.75
2976.29014835283	1337
2978.32733926604	1323.75
2980.36397700893	1321
2982.40006184049	1282.5
2984.43559401955	1289.75
2986.4705738048	1274
2988.50500145474	1263.5
2990.53887722771	1260.5
2992.57220138189	1255
2994.6049741753	1243
2996.63719586576	1246.5
2998.66886671097	1240.25
3000.69998696843	1253.25
3002.73055689549	1269.25
3004.7605767493	1254
3006.79004678688	1262
3008.81896726505	1263.25
3010.84733844048	1247.5
3012.87516056966	1249.5
3014.9024339089	1221.25
3016.92915871434	1258.25
3018.95533524196	1259.5
3020.98096374756	1253
3023.00604448676	1257.75
3025.030577715	1259.5
3027.05456368757	1241
3029.07800265956	1275
3031.10089488589	1263.75
3033.12324062131	1270.75
3035.14504012038	1283.75
3037.16629363749	1261.25
3039.18700142685	1280.25
3041.20716374249	1257.75
3043.22678083826	1265.5
3045.24585296783	1259.75
3047.26438038468	1250
3049.28236334212	1261.5
3051.29980209329	1284.5
3053.31669689111	1248.75
3055.33304798835	1290.25
3057.34885563757	1268.75
3059.36412009117	1266.5
3061.37884160135	1270.5
3063.39302042012	1275.75
3065.40665679932	1281
3067.41975099059	1276.5
3069.43230324538	1276
3071.44431381495	1264.25
3073.45578295041	1276.75
3075.46671090261	1270.5
3077.47709792227	1291.5
3079.48694425989	1278
3081.49625016579	1269
3083.50501589008	1282.25
3085.51324168271	1271.75
3087.5209277934	1286.25
3089.52807447169	1279.25
3091.53468196695	1280
3093.54075052832	1282.75
3095.54628040476	1266.25
3097.55127184503	1266.75
3099.55572509769	1269.5
3101.55964041111	1283
3103.56301803346	1282.5
3105.5658582127	1277.75
3107.56816119661	1289
3109.56992723275	1290.5
3111.5711565685	1277.25
3113.57184945101	1279.75
3115.57200612724	1282.75
3117.57162684397	1271.5
3119.57071184775	1299.75
3121.56926138493	1276.25
3123.56727570166	1287.25
3125.56475504389	1283.5
3127.56169965735	1311
3129.55810978757	1296.25
3131.55398567988	1299.5
3133.54932757938	1295.5
3135.54413573099	1297
3137.53841037939	1315.5
3139.53215176909	1294.5
3141.52536014435	1315.25
3143.51803574925	1291.25
3145.51017882762	1313.5
3147.50178962312	1318.5
3149.49286837916	1324.75
3151.48341533897	1310.75
3153.47343074553	1306.5
3155.46291484164	1292.5
3157.45186786985	1306
3159.44029007252	1298.5
3161.42818169179	1301.75
3163.41554296956	1301.5
3165.40237414753	1320.5
3167.38867546717	1320.5
3169.37444716976	1309.75
3171.35968949631	1299
3173.34440268765	1318.75
3175.32858698436	1322.25
3177.31224262683	1319.25
3179.29536985518	1307.5
3181.27796890934	1305.5
3183.26004002902	1303.5
3185.24158345368	1320.75
3187.22259942256	1312.5
3189.2030881747	1313
3191.18304994886	1311
3193.16248498363	1323.25
3195.14139351733	1310.5
3197.11977578807	1325.25
3199.09763203372	1322.25
3201.07496249191	1315.75
3203.05176740007	1319.25
3205.02804699537	1307.75
3207.00380151475	1329.5
3208.97903119493	1310.5
3210.95373627239	1333
3212.92791698335	1334.25
3214.90157356383	1316
3216.8747062496	1321.75
3218.84731527619	1344
3220.81940087889	1325.5
3222.79096329275	1321.5
3224.76200275259	1320.5
3226.73251949298	1325.75
3228.70251374826	1340
3230.67198575251	1341.25
3232.64093573959	1330.75
3234.6093639431	1337.75
3236.57727059641	1333.75
3238.54465593262	1327.25
3240.51152018462	1325.25
3242.47786358502	1309.5
3244.44368636621	1335
3246.40898876032	1343.25
3248.37377099923	1343.25
3250.33803331458	1342.75
3252.30177593775	1332.5
3254.26499909988	1355.5
3256.22770303184	1358.75
3258.18988796427	1341
3260.15155412755	1341.75
3262.1127017518	1336.5
3264.0733310669	1334.5
3266.03344230246	1333.25
3267.99303568784	1324.5
3269.95211145215	1340
3271.91066982422	1356.5
3273.86871103267	1341.5
3275.82623530581	1345.75
3277.78324287171	1324.75
3279.73973395818	1341.25
3281.69570879278	1341.75
3283.65116760281	1345.75
3285.60611061527	1354.75
3287.56053805694	1333.25
3289.51445015432	1375.25
3291.46784713364	1326.25
3293.42072922088	1338.5
3295.37309664173	1334
3297.32494962163	1343.75
3299.27628838576	1317.75
3301.22711315901	1347.25
3303.17742416601	1321.75
3305.12722163114	1330.5
3307.07650577848	1342.25
3309.02527683185	1347.75
3310.9735350148	1341.25
3312.9212805506	1346
3314.86851366225	1350.25
3316.81523457249	1337
3318.76144350377	1340.5
3320.70714067825	1348.5
3322.65232631784	1334.5
3324.59700064415	1333
3326.54116387854	1335
3328.48481624207	1324
3330.42795795552	1337.25
3332.37058923938	1347
3334.31271031389	1339.25
3336.25432139899	1336.75
3338.19542271433	1345.75
3340.13601447927	1338.25
3342.07609691292	1329.75
3344.01567023407	1323
3345.95473466125	1333
3347.89329041266	1321.5
3349.83133770628	1319
3351.76887675973	1327
3353.70590779039	1313.5
3355.64243101534	1336.25
3357.57844665135	1337.75
3359.51395491492	1319.5
3361.44895602224	1327.25
3363.38345018922	1341.25
3365.31743763148	1329.75
3367.25091856432	1332.75
3369.18389320278	1328.75
3371.11636176156	1347
3373.0483244551	1341.5
3374.97978149754	1336.5
3376.91073310269	1331
3378.84117948409	1338.25
3380.77112085498	1329.25
3382.70055742827	1327.75
3384.62948941659	1343.75
3386.55791703227	1331.25
3388.48584048733	1351.75
3390.41325999348	1348.5
3392.34017576214	1336
3394.26658800441	1339.75
3396.19249693107	1344.75
3398.11790275263	1340.75
3400.04280567926	1343.75
3401.96720592084	1333.75
3403.89110368692	1352.5
3405.81449918675	1344
3407.73739262928	1352
3409.65978422312	1334
3411.58167417659	1340.75
3413.50306269768	1340
3415.42394999408	1350.25
3417.34433627316	1353
3419.26422174196	1337.75
3421.18360660721	1320.5
3423.10249107532	1335
3425.0208753524	1327.5
3426.93875964421	1336.5
3428.85614415621	1338.5
3430.77302909353	1324.25
3432.68941466097	1320.5
3434.60530106302	1325.5
3436.52068850384	1336.25
3438.43557718726	1329.25
3440.34996731681	1335.75
3442.26385909565	1334.75
3444.17725272664	1321.75
3446.09014841231	1335.25
3448.00254635485	1315.75
3449.91444675614	1345.5
3451.82584981771	1317.5
3453.73675574076	1340
3455.64716472616	1323.25
3457.55707697445	1314.75
3459.46649268584	1302.75
3461.37541206019	1321.75
3463.28383529703	1313
3465.19176259556	1327.5
3467.09919415464	1298
3469.00613017278	1309.25
3470.91257084817	1319.25
3472.81851637863	1330.25
3474.72396696168	1313.5
3476.62892279446	1308
3478.5333840738	1315
3480.43735099614	1308.25
3482.34082375764	1303.5
3484.24380255404	1306.75
3486.1462875808	1297
3488.048279033	1300.5
3489.94977710537	1304
3491.85078199231	1294
3493.75129388784	1293.5
3495.65131298566	1281.75
3497.5508394791	1297.75
3499.44987356115	1323