200.090469251518	1756.25
202.974751419362	1757.75
205.858021632263	1767.25
208.740280737522	1770
211.621529580443	1761
214.501769004371	1757.75
217.380999850626	1745.75
220.25922295859	1742.25
223.136439165646	1753.5
226.012649307235	1761.5
228.88785421682	1762.5
231.762054725918	1773.25
234.635251664113	1773
237.507445859021	1780.75
240.378638136346	1766
243.248829319855	1778.25
246.11802023137	1792
248.986211690826	1783.75
251.853404516227	1799.5
254.719599523654	1807.75
257.584797527335	1825
260.44899933954	1791.5
263.312205770682	1829.25
266.174417629303	1806.75
269.035635722015	1797
271.895860853609	1777.25
274.755093826978	1788
277.613335443144	1788.5
280.470586501309	1782.75
283.326847798766	1789
286.182120131019	1812.5
289.036404291684	1821.25
291.889701072574	1815.25
294.742011263643	1822.5
297.593335653048	1813
300.443675027094	1828.75
303.293030170295	1862
306.141401865367	1831.5
308.988790893174	1868.75
311.835198032837	1836.5
314.680624061635	1827.75
317.525069755113	1831.75
320.36853588697	1809
323.211023229178	1846.25
326.052532551923	1842.25
328.893064623604	1852.5
331.732620210885	1832.75
334.57120007867	1854.5
337.408804990093	1883.75
340.245435706565	1870.75
343.081092987733	1863.75
345.915777591523	1866.5
348.749490274145	1874.5
351.582231790049	1890
354.414002891997	1928.75
357.244804331021	1947.5
360.074636856443	1904
362.903501215886	1924
365.731398155265	1931.75
368.558328418814	1903.5
371.384292749062	1916.25
374.209291886869	1892.5
377.033326571407	1888.25
379.85639754017	1865.5
382.678505529009	1848.5
385.499651272065	1858.5
388.319835501872	1829.75
391.139058949258	1854.75
393.957322343453	1841.25
396.774626412011	1851.5
399.590971880847	1821.5
402.406359474258	1822.5
405.220789914893	1828.5
408.034263923801	1825.25
410.8467822204	1830.5
413.658345522483	1842.25
416.468954546242	1851.75
419.278610006277	1828
422.087312615557	1865.75
424.895063085503	1889
427.701862125901	1870.25
430.507710444981	1849.75
433.312608749366	1858.5
436.116557744146	1864.5
438.919558132791	1841.75
441.721610617238	1848.25
444.522715897856	1860.5
447.322874673457	1849
450.122087641299	1853.75
452.920355497092	1830
455.717678935009	1816.75
458.514058647681	1823
461.309495326219	1813.5
464.103989660191	1803.25
466.89754233765	1784.5
469.690154045114	1784.75
472.481825467625	1793.75
475.272557288674	1772.5
478.062350190281	1795.5
480.851204852952	1784.25
483.639121955683	1796
486.426102176007	1799
489.212146189955	1799.75
491.997254672093	1801.5
494.781428295471	1812
497.564667731716	1814.5
500.346973650958	1813.75
503.128346721878	1817
505.90878761169	1797
508.688296986151	1823.25
511.46687550957	1822.75
514.244523844831	1813.25
517.021242653354	1818.75
519.797032595132	1818.5
522.571894328732	1797.75
525.345828511279	1817
528.11883579849	1817
530.890916844655	1811.75
533.662072302668	1810.75
536.432302823985	1792.5
539.201609058684	1811
541.96999165542	1800.5
544.737451261473	1802
547.503988522723	1811
550.26960408366	1795.75
553.034298587394	1810.75
555.798072675669	1779.5
558.560926988819	1819.75
561.322862165849	1799.5
564.083878844369	1812
566.843977660654	1814.25
569.603159249604	1802.75
572.361424244769	1808.5
575.118773278369	1828
577.87520698124	1822.75
580.630725982905	1833.5
583.385330911566	1856
586.139022394076	1833.25
588.891801055954	1841.25
591.643667521406	1879.25
594.394622413318	1908
597.144666353273	1895.25
599.893799961512	1908.75
602.64202385701	1911.5
605.389338657413	1928.75
608.135744979089	2001.5
610.881243437092	1985.25
613.625834645191	1990.25
616.369519215881	2012.25
619.112297760374	1994.5
621.854170888604	2011
624.595139209225	2024.25
627.335203329614	2015.5
630.074363855914	2053
632.81262139299	2083.5
635.549976544436	2074.75
638.286429912612	2058
641.021982098635	2090
643.756633702364	2053.25
646.49038532241	2031.5
649.223237556176	1983
651.955190999808	1923
654.686246248224	1932
657.416403895135	1905.25
660.145664533011	1882.5
662.874028753133	1858.75
665.601497145537	1874
668.328070299071	1906.5
671.05374880138	1908
673.778533238885	1929.5
676.502424196839	1947.5
679.225422259297	2007
681.947528009099	1992.75
684.668742027927	1994.25
687.389064896281	1995
690.108497193465	1996.25
692.827039497621	1974.75
695.544692385724	1994.25
698.261456433585	1990.75
700.977332215847	1984.75
703.692320305981	1946.75
706.406421276337	1938.25
709.11963569808	1881
711.831964141256	1874.75
714.54340717474	1824.5
717.253965366304	1828.25
719.963639282552	1819.5
722.672429488961	1793.75
725.380336549904	1795.75
728.087361028596	1786
730.793503487166	1762.25
733.498764486594	1768.5
736.203144586758	1760
738.906644346447	1733.25
741.60926432331	1742.25
744.311005073912	1771.25
747.011867153727	1754.25
749.711851117121	1749.5
752.410957517375	1779
755.109186906677	1740.25
757.806539836132	1773.75
760.503016855779	1740.5
763.198618514551	1730.25
765.893345360346	1754.25
768.587197939964	1735.25
771.28017679914	1734.25
773.972282482566	1730
776.663515533859	1721.75
779.353876495581	1731.25
782.043365909241	1724.25
784.731984315327	1708.25
787.419732253235	1728
790.106610261366	1703.25
792.792618877058	1719.75
795.477758636618	1721.5
798.162030075313	1712.25
800.845433727423	1696.5
803.52797012615	1703.5
806.209639803714	1726
808.890443291304	1733.25
811.570381119098	1713.25
814.249453816265	1718.5
816.927661910959	1709
819.60500593036	1721.25
822.281486400603	1718
824.957103846864	1742.5
827.631858793316	1735.25
830.305751763135	1759.75
832.978783278519	1726
835.650953860677	1737
838.322264029848	1724.5
840.992714305292	1736.75
843.662305205289	1759
846.331037247157	1730.5
848.998910947241	1746
851.665926820933	1744.75
854.332085382674	1734
856.997387145915	1737.75
859.661832623191	1737.5
862.325422326066	1739.75
864.988156765172	1712
867.650036450181	1729.25
870.311061889846	1720.5
872.971233591961	1723.75
875.630552063409	1695
878.28901781013	1703.75
880.946631337138	1713.25
883.603393148533	1689.5
886.259303747484	1704.25
888.914363636246	1708.75
891.568573316155	1724.25
894.22193328767	1692.75
896.874444050281	1685
899.526106102625	1696.25
902.176919942416	1711.75
904.826886066483	1700.25
907.476004970747	1706.5
910.124277150255	1704
912.77170309913	1692
915.418283310642	1706.25
918.064018277175	1715.25
920.708908490222	1703
923.352954440405	1684
925.996156617486	1697.25
928.638515510334	1685
931.280031606966	1679.25
933.920705394521	1700.75
936.560537359303	1722
939.199527986737	1702.25
941.837677761392	1709.25
944.474987167006	1707.5
947.111456686438	1728
949.747086801734	1716
952.38187799407	1724.75
955.015830743792	1705.75
957.648945530418	1705.5
960.281222832633	1707
962.91266312826	1717.5
965.543266894336	1699.75
968.173034607058	1697.5
970.801966741779	1696.5
973.43006377307	1724
976.057326174661	1695.5
978.683754419471	1689.25
981.309348979623	1692
983.93411032642	1689.75
986.558038930361	1670.25
989.181135261144	1695.25
991.803399787692	1690
994.424832978086	1699
997.045435299653	1676
999.665207218906	1701.25
1002.2841492016	1683.5
1004.90226171266	1655.75
1007.51954521628	1704.75
1010.13600017584	1692.5
1012.75162705397	1695.25
1015.3664263125	1686.75
1017.9803984125	1671
1020.5935438143	1683.25
1023.20586297741	1680.25
1025.81735636063	1695.25
1028.42802442196	1698.5
1031.03786761869	1710.75
1033.64688640732	1702
1036.2550812436	1702
1038.86245258255	1719.5
1041.46900087844	1706.5
1044.07472658479	1694
1046.67963015438	1710.25
1049.28371203927	1695.25
1051.88697269075	1707.25
1054.48941255943	1680.25
1057.09103209513	1696.25
1059.691831747	1692.25
1062.29181196343	1682.75
1064.89097319211	1705.5
1067.48931587999	1696.25
1070.08684047333	1682
1072.68354741766	1675.25
1075.27943715779	1701.5
1077.87451013787	1708
1080.46876680127	1714.25
1083.06220759071	1681
1085.65483294822	1697
1088.24664331509	1701.25
1090.83763913194	1701.5
1093.42782083869	1711
1096.01718887459	1702
1098.60574367818	1696.25
1101.19348568732	1690.5
1103.78041533919	1698
1106.3665330703	1734.75
1108.95183931646	1726.75
1111.53633451284	1706.75
1114.12001909391	1691.75
1116.70289349349	1718
1119.2849581447	1701
1121.86621348005	1735.5
1124.44665993134	1710
1127.02629792973	1705.5
1129.60512790574	1683
1132.18315028919	1685.25
1134.76036550929	1705.75
1137.3367739946	1701.75
1139.912376173	1677.75
1142.48717247176	1701.25
1145.06116331748	1674
1147.63434913616	1683.25
1150.20673035312	1669.75
1152.77830739307	1688.25
1155.34908068007	1682.5
1157.91905063757	1676.5
1160.48821768838	1685.5
1163.05658225471	1715.75
1165.6241447581	1694.25
1168.19090561951	1708.5
1170.75686525927	1693.5
1173.32202409708	1722.75
1175.88638255206	1714
1178.44994104269	1710.25
1181.01269998684	1693.25
1183.57465980182	1692
1186.13582090427	1678.25
1188.69618371026	1682.5
1191.25574863529	1689.75
1193.8145160942	1682.5
1196.37248650129	1700.5
1198.92966027025	1659.75
1201.48603781416	1661.75
1204.04161954556	1664.5
1206.59640587635	1666.5
1209.15039721788	1651.75
1211.70359398092	1653.5
1214.25599657564	1644.25
1216.80760541166	1633.75
1219.35842089801	1637.75
1221.90844344314	1644.5
1224.45767345496	1647.75
1227.00611134077	1636.25
1229.55375750736	1633.5
1232.10061236092	1638
1234.64667630707	1657.75
1237.1919497509	1630.75
1239.73643309692	1672
1242.28012674912	1663
1244.82303111089	1649
1247.36514658511	1672.5
1249.9064735741	1650.75
1252.44701247964	1688
1254.98676370294	1670.25
1257.52572764469	1668.25
1260.06390470506	1680.5
1262.60129528365	1686.25
1265.13789977954	1687.5
1267.67371859128	1686.75
1270.20875211688	1673
1272.74300075384	1666.75
1275.2764648991	1680.5
1277.80914494911	1687.75
1280.34104129978	1683
1282.87215434652	1691.75
1285.40248448419	1677.25
1287.93203210715	1698.5
1290.46079760927	1683.75
1292.98878138385	1680.25
1295.51598382375	1713.25
1298.04240532127	1715.5
1300.56804626822	1727.5
1303.09290705593	1743.5
1305.6169880752	1724.25
1308.14028971632	1737.5
1310.66281236913	1722.5
1313.18455642292	1729.75
1315.70552226653	1722
1318.22571028829	1752.25
1320.74512087603	1742.5
1323.26375441711	1735.5
1325.7816112984	1773.75
1328.29869190629	1745.75
1330.81499662666	1778.5
1333.33052584497	1775.75
1335.84527994613	1799.75
1338.35925931464	1783.75
1340.87246433446	1754.25
1343.38489538916	1749.25
1345.89655286177	1759.25
1348.40743713487	1741
1350.91754859059	1723
1353.42688761059	1713.5
1355.93545457606	1739
1358.44324986772	1735.5
1360.95027386588	1731
1363.45652695032	1725.75
1365.96200950042	1724.75
1368.4667218951	1725.75
1370.97066451281	1721
1373.47383773156	1710.75
1375.97624192891	1720.5
1378.47787748199	1691.25
1380.97874476746	1698.25
1383.47884416157	1680
1385.97817604009	1709.5
1388.4767407784	1673
1390.9745387514	1669.25
1393.47157033358	1687.25
1395.96783589898	1694.75
1398.46333582124	1691
1400.95807047354	1674.75
1403.45204022864	1665
1405.94524545889	1673.5
1408.4376865362	1683.5
1410.92936383205	1672.25
1413.42027771752	1713
1415.91042856328	1704.75
1418.39981673955	1732.75
1420.88844261615	1756.5
1423.37630656249	1765.75
1425.86340894757	1802
1428.34975013999	1815
1430.83533050792	1805.5
1433.32015041912	1813.5
1435.80421024098	1799.75
1438.28751034045	1800.25
1440.77005108411	1794.25
1443.25183283812	1789.5
1445.73285596824	1784
1448.21312083984	1780.75
1450.69262781791	1753.75
1453.17137726702	1770.75
1455.64936955137	1753
1458.12660503477	1763.5
1460.60308408063	1759.25
1463.07880705197	1738
1465.55377431145	1745
1468.02798622133	1738
1470.50144314348	1739
1472.97414543941	1722.5
1475.44609347024	1745
1477.91728759673	1731.25
1480.38772817924	1757.25
1482.85741557777	1745
1485.32635015194	1728.5
1487.79453226103	1704.25
1490.26196226391	1716.5
1492.72864051911	1730
1495.1945673848	1739
1497.65974321874	1708.75
1500.1241683784	1721.25
1502.58784322083	1739.5
1505.05076810274	1733.75
1507.51294338049	1771.5
1509.97436941009	1749.75
1512.43504654717	1764.5
1514.89497514704	1763.25
1517.35415556462	1765.75
1519.81258815451	1793.25
1522.27027327095	1804.5
1524.72721126784	1810.5
1527.18340249874	1766
1529.63884731684	1755.5
1532.09354607502	1741
1534.5474991258	1743.75
1537.00070682136	1764.75
1539.45316951355	1728.75
1541.90488755388	1744.5
1544.35586129353	1741.75
1546.80609108336	1734.25
1549.25557727385	1748
1551.70432021519	1762.75
1554.15232025725	1759.75
1556.59957774953	1759
1559.04609304125	1766
1561.49186648127	1765.5
1563.93689841815	1756.25
1566.38118920011	1778.25
1568.82473917506	1764.25
1571.2675486906	1764.75
1573.70961809399	1776.5
1576.15094773219	1767.75
1578.59153795184	1794.75
1581.03138909928	1778.5
1583.47050152051	1778.75
1585.90887556123	1785
1588.34651156686	1787
1590.78340988246	1794.75
1593.21957085283	1805
1595.65499482245	1806.5
1598.08968213547	1805.5
1600.52363313578	1783
1602.95684816694	1818.75
1605.38932757224	1784.75
1607.82107169462	1781
1610.25208087677	1771.75
1612.68235546107	1758
1615.1118957896	1797.5
1617.54070220415	1771.25
1619.96877504621	1774.75
1622.39611465701	1795
1624.82272137746	1773.25
1627.24859554818	1761
1629.67373750953	1788.75
1632.09814760155	1784.75
1634.52182616404	1761.75
1636.94477353647	1769.5
1639.36699005806	1763
1641.78847606776	1772.5
1644.20923190418	1761
1646.62925790573	1763
1649.04855441048	1746.5
1651.46712175628	1790.25
1653.88496028066	1785.5
1656.3020703209	1772.75
1658.71845221401	1771
1661.13410629671	1779.5
1663.54903290547	1807
1665.96323237649	1798
1668.37670504571	1820.5
1670.78945124877	1786
1673.20147132109	1805.75
1675.61276559779	1818
1678.02333441377	1828.5
1680.43317810362	1825.75
1682.84229700171	1837.5
1685.25069144213	1827.75
1687.65836175872	1821.75
1690.06530828507	1850.75
1692.47153135451	1809.25
1694.87703130009	1840.5
1697.28180845467	1830.75
1699.6858631508	1840.25
1702.08919572081	1856
1704.49180649676	1856
1706.89369581049	1852.25
1709.29486399355	1818.25
1711.69531137731	1850.25
1714.09503829282	1837.5
1716.49404507095	1857.25
1718.89233204229	1836.75
1721.28989953721	1852.5
1723.68674788581	1859
1726.08287741798	1868.25
1728.47828846338	1861
1730.87298135139	1853
1733.26695641119	1858.25
1735.66021397173	1859
1738.05275436169	1839.75
1740.44457790954	1851.75
1742.83568494354	1842.75
1745.22607579168	1849.5
1747.61575078175	1847.75
1750.00471024128	1840
1752.39295449761	1847.75
1754.78048387783	1842.75
1757.16729870881	1886.75
1759.5533993172	1846.25
1761.93878602942	1837
1764.32345917168	1875.5
1766.70741906995	1873.25
1769.09066604999	1881.5
1771.47320043735	1870.75
1773.85502255735	1886.75
1776.2361327351	1882.5
1778.61653129548	1874
1780.99621856318	1875
1783.37519486264	1889.5
1785.75346051813	1908.25
1788.13101585368	1900.25
1790.5078611931	1907.5
1792.88399686002	1898.25
1795.25942317785	1897.75
1797.63414046977	1884.5
1800.00814905878	1916.5
1802.38144926766	1912.75
1804.75404141898	1901.75
1807.12592583514	1894
1809.49710283829	1922
1811.86757275039	1903.5
1814.23733589322	1932.25
1816.60639258834	1921.25
1818.97474315712	1904.25
1821.34238792073	1943.25
1823.70932720012	1897.25
1826.07556131608	1900.75
1828.44109058918	1927.75
1830.8059153398	1925.5
1833.17003588812	1932
1835.53345255413	1917.75
1837.89616565765	1932.25
1840.25817551827	1951.5
1842.61948245541	1926.5
1844.9800867883	1938.5
1847.33998883598	1946.5
1849.69918891729	1921.75
1852.05768735091	1955.75
1854.4154844553	1926
1856.77258054875	1939.25
1859.12897594938	1929.5
1861.4846709751	1967
1863.83966594366	1946.5
1866.19396117261	1955.75
1868.54755697932	1951.75
1870.90045368099	1971.75
1873.25265159463	1948.75
1875.60415103708	1967.75
1877.95495232501	1987.75
1880.30505577486	1972.5
1882.65446170299	1999.75
1885.00317042548	2010
1887.35118225832	2006.25
1889.69849751726	2002.75
1892.04511651792	1980
1894.39103957574	2002.5
1896.73626700596	2009.75
1899.08079912368	2038
1901.42463624384	2035.25
1903.76777868116	2035.25
1906.11022675025	2032.5
1908.4519807655	2028.75
1910.79304104117	2018.75
1913.13340789134	2034.5
1915.47308162992	2031
1917.81206257067	2072.75
1920.15035102718	2063.5
1922.48794731286	2017.25
1924.82485174096	2052.75
1927.16106462461	2066.75
1929.49658627672	2060
1931.83141701008	2063
1934.1655571373	2065.5
1936.49900697085	2073
1938.83176682301	2077.5
1941.16383700594	2105.25
1943.49521783161	2067.5
1945.82590961186	2079.25
1948.15591265835	2069.5
1950.48522728262	2056.5
1952.81385379602	2050.25
1955.14179250976	2050
1957.46904373489	2075.5
1959.79560778233	2077
1962.12148496284	2074.25
1964.44667558701	2067
1966.77117996529	2082.25
1969.09499840799	2086
1971.41813122527	2097.75
1973.74057872714	2098.25
1976.06234122345	2112.75
1978.38341902391	2095.5
1980.7038124381	2083.5
1983.02352177543	2096
1985.34254734518	2110.75
1987.66088945649	2142.5
1989.97854841833	2125.5
1992.29552453956	2117.75
1994.61181812887	2091.5
1996.92742949483	2129
1999.24235894586	2131.75
2001.55660679023	2121.25
2003.87017333608	2151
2006.18305889143	2136.75
2008.49526376413	2156.5
2010.80678826189	2157
2013.1176326923	2163.5
2015.42779736282	2160
2017.73728258075	2179.75
2020.04608865326	2169.5
2022.3542158874	2175
2024.66166459008	2174.5
2026.96843506807	2196.25
2029.274527628	2217.25
2031.57994257637	2224
2033.88468021957	2232.75
2036.18874086383	2193.25
2038.49212481526	2195.5
2040.79483237983	2210.25
2043.0968638634	2204.25
2045.39821957169	2199.5
2047.69889981028	2233.75
2049.99890488462	2227.25
2052.29823510006	2227.25
2054.59689076181	2234.5
2056.89487217492	2218.75
2059.19217964437	2219.75
2061.48881347497	2221
2063.7847739714	2251.5
2066.08006143826	2247
2068.37467618	2217.25
2070.66861850093	2252.75
2072.96188870527	2235.25
2075.25448709707	2267
2077.54641398031	2268.75
2079.83766965881	2266.5
2082.12825443629	2243.75
2084.41816861634	2250.75
2086.70741250242	2269.75
2088.99598639789	2249.5
2091.28389060597	2277.75
2093.57112542978	2250.5
2095.85769117232	2274.75
2098.14358813644	2253.25
2100.42881662491	2253.5
2102.71337694037	2295
2104.99726938532	2267.75
2107.28049426219	2284.25
2109.56305187325	2279.25
2111.84494252069	2294.5
2114.12616650655	2301.75
2116.40672413278	2282.75
2118.68661570121	2258.5
2120.96584151355	2314.75
2123.24440187138	2317
2125.52229707622	2333.5
2127.79952742943	2312.5
2130.07609323227	2339.25
2132.35199478588	2335.5
2134.62723239132	2331.5
2136.90180634949	2336.5
2139.17571696123	2355
2141.44896452723	2333.5
2143.72154934809	2374.25
2145.99347172429	2365.75
2148.26473195623	2370
2150.53533034415	2400.5
2152.80526718821	2401.25
2155.07454278848	2407
2157.3431574449	2378.75
2159.61111145728	2391.5
2161.87840512538	2394.25
2164.1450387488	2381.75
2166.41101262707	2403
2168.67632705959	2426.5
2170.94098234567	2415.5
2173.20497878451	2408.75
2175.46831667519	2402.75
2177.73099631672	2438
2179.99301800797	2413.75
2182.25438204772	2423
2184.51508873466	2449.25
2186.77513836735	2447
2189.03453124427	2428.5
2191.29326766378	2436
2193.55134792416	2451.25
2195.80877232355	2460.75
2198.06554116004	2435.75
2200.32165473157	2454.25
2202.577113336	2456.25
2204.83191727111	2468.5
2207.08606683453	2443.25
2209.33956232384	2457
2211.59240403648	2450.75
2213.84459226982	2463.5
2216.09612732112	2458.75
2218.34700948753	2438.25
2220.59723906612	2450.25
2222.84681635385	2476.25
2225.09574164758	2463.75
2227.34401524408	2483.75
2229.59163744002	2451
2231.83860853197	2494.25
2234.08492881639	2475
2236.33059858968	2487.5
2238.5756181481	2474.25
2240.81998778784	2493.5
2243.06370780499	2498.25
2245.30677849555	2497.25
2247.54920015539	2502.25
2249.79097308033	2524.75
2252.03209756607	2484.75
2254.27257390822	2476.5
2256.51240240228	2507.25
2258.75158334369	2519.5
2260.99011702777	2511.5
2263.22800374976	2545
2265.46524380477	2508.5
2267.70183748786	2528.5
2269.93778509399	2547.5
2272.17308691801	2520.25
2274.40774325467	2553.5
2276.64175439866	2539.25
2278.87512064454	2557.25
2281.10784228682	2521.75
2283.33991961987	2561.5
2285.571352938	2545.5
2287.80214253541	2567.25
2290.03228870623	2561.5
2292.26179174449	2547.75
2294.4906519441	2572.5
2296.71886959892	2570.25
2298.9464450027	2550.5
2301.1733784491	2536.5
2303.39967023169	2557.75
2305.62532064395	2577.5
2307.85032997926	2570.5
2310.07469853093	2557
2312.29842659216	2574
2314.52151445608	2577.75
2316.7439624157	2557.5
2318.96577076397	2579
2321.18693979374	2560.25
2323.40746979777	2578.25
2325.62736106873	2564.5
2327.8466138992	2612.5
2330.06522858166	2597.5
2332.28320540853	2565.5
2334.50054467212	2630.25
2336.71724666465	2572.5
2338.93331167827	2583.75
2341.14874000501	2587.25
2343.36353193685	2558.75
2345.57768776564	2609
2347.79120778319	2619.5
2350.00409228117	2575
2352.21634155121	2597.75
2354.42795588482	2588.75
2356.63893557342	2566.75
2358.84928090838	2600
2361.05899218094	2586.75
2363.26806968228	2591
2365.47651370347	2593
2367.68432453552	2583.25
2369.89150246933	2573
2372.09804779571	2596.25
2374.30396080541	2587.25
2376.50924178907	2583.75
2378.71389103725	2578.5
2380.91790884042	2617.5
2383.12129548897	2577.75
2385.3240512732	2589
2387.52617648332	2566.75
2389.72767140946	2596.25
2391.92853634165	2607.5
2394.12877156985	2599.25
2396.32837738392	2613.25
2398.52735407365	2583.5
2400.72570192873	2575.75
2402.92342123875	2625
2405.12051229325	2602.25
2407.31697538167	2577.5
2409.51281079333	2591
2411.70801881751	2555.25
2413.90259974339	2601.25
2416.09655386004	2592.25
2418.28988145648	2576.75
2420.48258282162	2565
2422.6746582443	2568.75
2424.86610801325	2639
2427.05693241713	2584.5
2429.24713174452	2571
2431.43670628389	2596.5
2433.62565632365	2582.25
2435.81398215212	2560.25
2438.00168405752	2578.25
2440.18876232799	2608.5
2442.37521725158	2589
2444.56104911628	2582.25
2446.74625820994	2600.75
2448.93084482038	2597
2451.1148092353	2585.75
2453.29815174233	2600
2455.480872629	2591.5
2457.66297218275	2580.75
2459.84445069097	2574.25
2462.02530844092	2560.5
2464.2055457198	2586.75
2466.38516281471	2563
2468.56416001267	2564.5
2470.74253760061	2571.25
2472.92029586537	2559
2475.09743509372	2565.5
2477.27395557232	2568
2479.44985758777	2578.25
2481.62514142655	2575.25
2483.79980737508	2563
2485.97385571969	2577.75
2488.14728674661	2562.25
2490.32010074198	2548
2492.49229799188	2577.25
2494.66387878228	2548.25
2496.83484339905	2560
2499.00519212802	2592.25
2501.17492525488	2574
2503.34404306528	2583
2505.51254584473	2562.25
2507.6804338787	2588.25
2509.84770745254	2593
2512.01436685153	2595
2514.18041236085	2592.25
2516.34584426561	2595.25
2518.51066285081	2578
2520.67486840138	2626
2522.83846120214	2585.25
2525.00144153784	2580.75
2527.16380969314	2605.75
2529.32556595261	2581
2531.48671060072	2626.25
2533.64724392186	2595.5
2535.80716620033	2627.5
2537.96647772034	2586
2540.12517876602	2583.5
2542.2832696214	2596.5
2544.44075057041	2598.25
2546.59762189691	2599.5
2548.75388388466	2603.5
2550.90953681735	2603.5
2553.06458097853	2609.75
2555.21901665172	2598.75
2557.37284412031	2605.5
2559.5260636676	2594
2561.67867557684	2609.75
2563.83068013113	2609
2565.98207761351	2587
2568.13286830695	2578.25
2570.28305249429	2575.5
2572.43263045829	2581.5
2574.58160248163	2578.75
2576.72996884689	2583.25
2578.87772983655	2587
2581.02488573303	2568.5
2583.1714368186	2590.25
2585.31738337549	2554
2587.46272568582	2568
2589.60746403161	2585
2591.75159869479	2573.75
2593.89512995722	2567.25
2596.03805810061	2561
2598.18038340665	2586
2600.32210615686	2577
2602.46322663274	2606.5
2604.60374511563	2581.25
2606.74366188683	2575.5
2608.88297722751	2576.75
2611.02169141875	2576.25
2613.15980474156	2617.25
2615.29731747681	2586.25
2617.43422990532	2591
2619.57054230779	2558.5
2621.70625496483	2597.75
2623.84136815694	2576
2625.97588216456	2599.25
2628.10979726799	2587.75
2630.24311374746	2601
2632.3758318831	2570.75
2634.50795195493	2567.75
2636.6394742429	2633.25
2638.77039902682	2616.5
2640.90072658645	2601
2643.0304572014	2619.25
2645.15959115123	2617.25
2647.28812871538	2651.25
2649.41607017319	2634.25
2651.5434158039	2612.25
2653.67016588665	2632.5
2655.79632070049	2616.5
2657.92188052436	2604.25
2660.04684563711	2627.25
2662.17121631749	2623.75
2664.29499284413	2643
2666.41817549558	2623
2668.54076455027	2621.25
2670.66276028656	2608.5
2672.78416298267	2608.5
2674.90497291675	2641.75
2677.02519036682	2621.25
2679.14481561082	2633.25
2681.26384892658	2621.75
2683.38229059182	2617
2685.50014088417	2605.5
2687.61740008114	2628
2689.73406846017	2621.25
2691.85014629854	2683.75
2693.96563387347	2623.25
2696.08053146206	2605.5
2698.1948393413	2621.75
2700.3085577881	2631
2702.42168707924	2624.25
2704.53422749139	2624.75
2706.64617930112	2612
2708.75754278492	2617.25
2710.86831821913	2649
2712.97850588002	2620.5
2715.08810604372	2662
2717.19711898628	2635.75
2719.30554498363	2634.25
2721.41338431158	2648.5
2723.52063724586	2646.5
2725.62730406206	2631.25
2727.73338503569	2646
2729.83888044213	2631.5
2731.94379055664	2685
2734.04811565441	2670.5
2736.15185601048	2676.5
2738.25501189979	2664.5
2740.35758359718	2650
2742.45957137738	2655.5
2744.56097551499	2619.25
2746.6617962845	2636
2748.7620339603	2664.25
2750.86168881666	2672
2752.96076112774	2674
2755.05925116758	2672.5
2757.15715921012	2649.25
2759.25448552917	2622.75
2761.35123039843	2641.25
2763.44739409148	2667.25
2765.5429768818	2653.75
2767.63797904275	2651.75
2769.73240084756	2657
2771.82624256934	2653.25
2773.91950448113	2614.25
2776.01218685579	2654.5
2778.10428996609	2637.5
2780.19581408469	2649
2782.28675948414	2663.25
2784.37712643683	2646.5
2786.46691521507	2650.25
2788.55612609104	2652
2790.64475933678	2654.25
2792.73281522425	2634.5
2794.82029402525	2627.5
2796.90719601149	2651.5
2798.99352145453	2605
2801.07927062583	2650.5
2803.16444379672	2638
2805.24904123841	2663.5
2807.33306322197	2655.75
2809.41651001838	2663
2811.49938189847	2688.5
2813.58167913296	2721.25
2815.66340199243	2702.5
2817.74455074734	2668.5
2819.82512566805	2690.75
2821.90512702475	2703.5
2823.98455508754	2714
2826.06341012637	2688.75
2828.14169241109	2729.75
2830.2194022114	2706.25
2832.29653979686	2716
2834.37310543694	2726.75
2836.44909940096	2749.5
2838.5245219581	2812
2840.59937337744	2808
2842.67365392791	2801
2844.74736387829	2843
2846.82050349727	2843.75
2848.8930730534	2837.25
2850.96507281506	2850.5
2853.03650305056	2869.5
2855.10736402802	2859.75
2857.17765601545	2876.5
2859.24737928074	2887.5
2861.31653409164	2907.75
2863.38512071574	2865.5
2865.45313942054	2903.75
2867.52059047335	2884
2869.58747414139	2905.25
2871.65379069173	2886.75
2873.7195403913	2886
2875.78472350688	2890
2877.84934030515	2929.5
2879.91339105262	2922.75
2881.97687601567	2914.75
2884.03979546053	2904.75
2886.10214965332	2930.75
2888.16393886	2984.75
2890.22516334639	2981.75
2892.28582337816	3023.5
2894.34591922087	3094.5
2896.40545113992	3220
2898.46441940054	3307
2900.52282426787	3476.75
2902.58066600687	3653.25
2904.63794488237	3837.5
2906.69466115906	3939.25
2908.75081510147	4083.75
2910.806406974	4195.25
2912.8614370409	4231.25
2914.91590556626	4202.5
2916.96981281404	4079
2919.02315904807	3965.5
2921.07594453199	3906
2923.12816952932	3786.25
2925.17983430343	3749
2927.23093911753	3671.75
2929.28148423469	3674
2931.33146991782	3668.5
2933.3808964297	3697.25
2935.42976403294	3650.25
2937.47807299	3654.25
2939.5258235632	3607.75
2941.57301601469	3562.75
2943.61965060648	3503.5
2945.66572760042	3472
2947.71124725823	3437
2949.75620984143	3421.25
2951.80061561143	3376.75
2953.84446482945	3270.25
2955.88775775656	3302.25
2957.9304946537	3220.25
2959.97267578162	3196.5
2962.01430140095	3202.75
2964.05537177211	3226.5
2966.09588715541	3219.5
2968.13584781097	3251.5
2970.17525399875	3277
2972.21410597859	3212
2974.25240401011	3228.25
2976.29014835283	3185.75
2978.32733926604	3153.75
2980.36397700892	3109
2982.40006184049	3091.5
2984.43559401955	3041.5
2986.4705738048	3020.5
2988.50500145473	2990
2990.53887722771	2932.25
2992.57220138189	2910.5
2994.6049741753	2905.75
2996.63719586576	2878.25
2998.66886671097	2894.25
3000.69998696843	2886.25
3002.73055689549	2877
3004.7605767493	2883.25
3006.79004678688	2873
3008.81896726505	2882.5
3010.84733844048	2876
3012.87516056966	2842
3014.9024339089	2862.5
3016.92915871433	2888.25
3018.95533524196	2862.5
3020.98096374756	2891
3023.00604448675	2871.5
3025.030577715	2878.5
3027.05456368757	2893.25
3029.07800265956	2854
3031.10089488589	2882.25
3033.12324062131	2894.5
3035.14504012038	2881
3037.16629363749	2868.25
3039.18700142685	2888.75
3041.20716374249	2864.5
3043.22678083826	2852
3045.24585296782	2891.5
3047.26438038468	2883.5
3049.28236334212	2904.75
3051.29980209329	2875
3053.31669689111	2849.5
3055.33304798835	2878.5
3057.34885563757	2864
3059.36412009117	2907.25
3061.37884160134	2884.75
3063.39302042011	2865.5
3065.40665679931	2858.75
3067.41975099058	2884.75
3069.43230324538	2912.25
3071.44431381495	2870.5
3073.45578295041	2875.5
3075.46671090261	2883.75
3077.47709792227	2853.75
3079.48694425989	2860
3081.49625016578	2911.25
3083.50501589008	2859.75
3085.5132416827	2858.5
3087.5209277934	2876.75
3089.52807447169	2883.25
3091.53468196695	2858.75
3093.54075052832	2847.25
3095.54628040476	2873.25
3097.55127184503	2846.5
3099.55572509769	2846.5
3101.55964041111	2830.75
3103.56301803346	2882.75
3105.5658582127	2854.5
3107.56816119661	2868
3109.56992723275	2829
3111.57115656849	2877.75
3113.571849451	2856.25
3115.57200612724	2849.5
3117.57162684397	2866.75
3119.57071184775	2876
3121.56926138493	2877.75
3123.56727570166	2864.5
3125.56475504389	2895.75
3127.56169965735	2840.25
3129.55810978757	2860.5
3131.55398567987	2867.25
3133.54932757937	2889.5
3135.54413573099	2923.5
3137.53841037939	2893
3139.53215176909	2894.5
3141.52536014435	2898.5
3143.51803574924	2892
3145.51017882762	2885.25
3147.50178962311	2938
3149.49286837916	2907.25
3151.48341533897	2905.5
3153.47343074553	2930.5
3155.46291484164	2891.5
3157.45186786985	2926
3159.44029007252	2891.75
3161.42818169179	2905.75
3163.41554296955	2910.25
3165.40237414753	2898
3167.38867546718	2927
3169.37444716975	2891.5
3171.35968949631	2900.75
3173.34440268764	2933
3175.32858698436	2931.5
3177.31224262682	2916
3179.29536985517	2947.25
3181.27796890934	2895.5
3183.26004002902	2933.75
3185.24158345368	2912
3187.22259942256	2920
3189.2030881747	2967.75
3191.18304994886	2914.25
3193.16248498363	2986
3195.14139351733	2964.25
3197.11977578807	2949
3199.09763203371	2945.75
3201.07496249191	2952.5
3203.05176740007	2954
3205.02804699537	2919
3207.00380151475	2922.5
3208.97903119493	2937.25
3210.95373627238	2965.25
3212.92791698335	2956.75
3214.90157356383	2947.5
3216.8747062496	2963.25
3218.84731527619	2964.75
3220.81940087889	2952.5
3222.79096329275	2963.5
3224.76200275259	2952.25
3226.73251949298	3011.25
3228.70251374825	3007
3230.67198575251	2972.25
3232.64093573959	3014
3234.6093639431	3009.25
3236.57727059641	2989.25
3238.54465593261	3031.25
3240.51152018461	3007.5
3242.47786358502	2984
3244.44368636621	3007.75
3246.40898876031	3019.75
3248.37377099923	3037
3250.33803331458	3017.75
3252.30177593775	3029
3254.26499909987	3047
3256.22770303184	3073.5
3258.18988796427	3031.25
3260.15155412755	3039.25
3262.1127017518	3035.5
3264.0733310669	3021.75
3266.03344230246	3032
3267.99303568784	3035.5
3269.95211145215	3025.25
3271.91066982422	3104
3273.86871103267	3033.25
3275.82623530581	3055.75
3277.7832428717	3037
3279.73973395818	3045.5
3281.69570879278	3050.5
3283.6511676028	3066.25
3285.60611061527	3089.25
3287.56053805694	3048.75
3289.51445015432	3084.5
3291.46784713364	3064.5
3293.42072922088	3065.25
3295.37309664173	3042.75
3297.32494962163	3047.5
3299.27628838575	3036.25
3301.227113159	3041.75
3303.17742416601	3090
3305.12722163114	3083.75
3307.07650577848	3076.5
3309.02527683185	3086.25
3310.9735350148	3055.75
3312.9212805506	3080.75
3314.86851366225	3085
3316.81523457249	3094.75
3318.76144350377	3112
3320.70714067825	3069.5
3322.65232631783	3037.5
3324.59700064415	3063.5
3326.54116387854	3053.25
3328.48481624207	3076.75
3330.42795795551	3042
3332.37058923938	3054.25
3334.31271031389	3119.25
3336.25432139898	3052.5
3338.19542271432	3068.75
3340.13601447927	3079.25
3342.07609691292	3055.25
3344.01567023407	3043.75
3345.95473466124	3065.25
3347.89329041266	3085
3349.83133770627	3062.25
3351.76887675973	3076.25
3353.70590779039	3063.5
3355.64243101534	3058
3357.57844665135	3040.25
3359.51395491492	3099.5
3361.44895602224	3078.5
3363.38345018922	3085.5
3365.31743763148	3083.5
3367.25091856432	3087.25
3369.18389320278	3093.25
3371.11636176156	3100.75
3373.0483244551	3104
3374.97978149754	3085.25
3376.91073310269	3110
3378.84117948409	3122.5
3380.77112085498	3077.75
3382.70055742826	3105.75
3384.62948941659	3104.25
3386.55791703227	3089.25
3388.48584048733	3094.5
3390.41325999348	3144.25
3392.34017576214	3144.5
3394.2665880044	3106.25
3396.19249693107	3143.25
3398.11790275263	3132.75
3400.04280567926	3118.75
3401.96720592084	3180.25
3403.89110368692	3142
3405.81449918675	3171.25
3407.73739262928	3122
3409.65978422311	3147
3411.58167417658	3148.75
3413.50306269768	3159.75
3415.42394999408	3162
3417.34433627316	3173.75
3419.26422174195	3138.5
3421.18360660721	3164
3423.10249107532	3101.25
3425.02087535239	3134.5
3426.93875964421	3138.25
3428.8561441562	3146
3430.77302909353	3123.5
3432.68941466097	3111.75
3434.60530106301	3154
3436.52068850383	3146
3438.43557718726	3150.5
3440.34996731681	3116.5
3442.26385909565	3131.25
3444.17725272664	3115.5
3446.09014841231	3160.25
3448.00254635486	3126.25
3449.91444675614	3147
3451.82584981771	3134.5
3453.73675574076	3128
3455.64716472616	3153
3457.55707697445	3144.5
3459.46649268584	3137.75
3461.37541206018	3131.75
3463.28383529703	3149.75
3465.19176259555	3125.25
3467.09919415464	3100.25
3469.00613017278	3129.75
3470.91257084817	3153.5
3472.81851637863	3154.5
3474.72396696168	3135.75
3476.62892279446	3121
3478.53338407379	3120.75
3480.43735099614	3112.75
3482.34082375764	3100.75
3484.24380255404	3096.25
3486.1462875808	3129.5
3488.048279033	3127
3489.94977710537	3111
3491.85078199231	3116.75
3493.75129388783	3126.75
3495.65131298566	3121.25
3497.5508394791	3116.5
3499.44987356115	3121