201.866871357053	806.5
204.754250281456	807.75
207.640596790939	804.25
210.525911876301	802.75
213.41019652569	812
216.293451724511	809.75
219.175678455486	814.75
222.056877698663	812.75
224.937050431391	811.25
227.816197628365	811
230.694320261604	801.5
233.571419300504	806.5
236.447495711765	807.25
239.322550459507	813.25
242.196584505184	816.5
245.069598807628	822.25
247.94159432308	822.5
250.812572005157	827.25
253.682532804885	832.5
256.551477670701	823.25
259.419407548458	822.25
262.286323381442	822.5
265.152226110364	822
268.017116673389	824
270.880996006118	835
273.743865041624	839.25
276.605724710438	822.5
279.466575940565	834
282.326419657499	836
285.185256784201	832.75
288.04308824116	834
290.899914946356	841.25
293.75573781526	831.75
296.610557760899	837
299.464375693819	848.75
302.317192522079	841.25
305.169009151297	842.25
308.019826484655	835.75
310.869645422872	837
313.718466864235	841.75
316.566291704615	848.75
319.41312083746	855.75
322.258955153805	829.25
325.103795542294	837.25
327.947642889129	847.75
330.79049807819	855
333.63236199093	851
336.473235506447	842.25
339.313119501453	854.25
342.152014850323	852.5
344.989922425064	856.5
347.826843095356	852
350.662777728529	860.25
353.497727189577	864.75
356.331692341196	849.75
359.164674043732	862.5
361.996673155267	865
364.827690531538	865
367.657727026021	867.25
370.486783489887	878
373.314860772046	871.75
376.14195971912	871
378.968081175469	864.75
381.793225983214	866.25
384.617394982201	876.75
387.44058901005	872.25
390.262808902134	862.75
393.084055491614	880
395.904329609395	880.25
398.723632084216	884.25
401.541963742572	883.25
404.359325408781	874.5
407.17571790494	877.75
409.991142050985	886
412.805598664665	883.75
415.619088561551	875.25
418.431612555051	891
421.243171456419	893.75
424.05376607476	891
426.86339721702	906.75
429.672065688025	890.25
432.479772290455	888.5
435.28651782488	892.75
438.092303089737	892.5
440.897128881362	906.25
443.700995993992	892.75
446.503905219761	909.5
449.305857348711	909.75
452.106853168798	904.5
454.906893465921	902.5
457.705979023886	900
460.504110624441	899.5
463.301289047302	899.25
466.09751507009	913.25
468.892789468424	896.75
471.687113015869	901.25
474.480486483952	897.5
477.272910642201	907.5
480.064386258111	902.5
482.854914097161	906.75
485.644494922841	910.5
488.433129496637	906
491.22081857805	915.5
494.007562924587	921.5
496.793363291787	922.25
499.578220433219	918.75
502.362135100475	928.75
505.145108043209	917
507.927140009101	928.5
510.70823174391	929.25
513.488383991435	933.25
516.267597493556	926.5
519.045872990221	939.25
521.823211219462	933.75
524.5996129174	917.75
527.375078818234	921.75
530.149609654287	918.5
532.923206155968	935.75
535.695869051803	932
538.46759906845	931
541.238396930667	930
544.008263361365	935.5
546.777199081581	931
549.545204810496	934.25
552.312281265439	926.75
555.078429161901	936.5
557.843649213536	938.5
560.607942132158	933.75
563.371308627753	932.75
566.133749408497	947.25
568.895265180758	943.75
571.655856649067	940
574.415524516192	941
577.174269483075	956.25
579.932092248886	956.25
582.688993510996	953.5
585.444973965024	952.75
588.200034304796	961
590.954175222372	958.5
593.707397408072	961.75
596.459701550436	956.5
599.211088336284	950.75
601.961558450671	958
604.711112576934	963.75
607.459751396673	959.25
610.207475589751	974.25
612.954285834339	958.5
615.70018280688	950.75
618.445167182103	972
621.189239633057	962.75
623.932400831087	967.5
626.674651445839	956
629.415992145303	979.25
632.156423595745	954.75
634.895946461815	951
637.634561406448	967.75
640.372269090962	949.75
643.109070174981	967.75
645.84496531651	967
648.579955171891	966
651.314040395848	969
654.047221641459	974.5
656.779499560178	975
659.510874801831	973
662.241348014646	983.25
664.970919845243	981.25
667.699590938608	983.75
670.427361938164	986
673.154233485732	978.25
675.880206221526	987.25
678.605280784208	986
681.329457810832	981.25
684.052737936921	981.75
686.77512179639	995
689.496610021632	997.25
692.217203243456	985.5
694.936902091147	988.25
697.655707192428	981.25
700.373619173495	980
703.090638659013	989.75
705.806766272093	981.5
708.522002634379	998.75
711.236348365948	992
713.949804085381	986
716.662370409764	995
719.374047954676	979
722.084837334191	997
724.79473916091	990.5
727.50375404595	995.25
730.21188259892	995
732.919125427998	997.5
735.625483139858	1006.75
738.330956339726	1019
741.035545631373	999.25
743.739251617109	1011
746.44207489779	1026.75
749.144016072856	1010
751.845075740273	1002.25
754.545254496604	1012.25
757.244552936979	1015
759.942971655083	1009.25
762.640511243225	1002.5
765.337172292252	1030.5
768.032955391651	1017.25
770.727861129485	1017
773.421890092416	1020.25
776.11504286572	1016
778.807320033299	1011.75
781.49872217765	1007.25
784.189249879911	1014
786.87890371984	1011.5
789.567684275826	1012.5
792.255592124909	1013.5
794.942627842762	1028.75
797.628792003709	1026
800.314085180718	1009.25
802.998507945429	1014.5
805.682060868145	1013.75
808.364744517821	1028.75
811.046559462106	1025.25
813.727506267312	1036.5
816.407585498422	1025.75
819.086797719131	1027.75
821.765143491823	1023.25
824.442623377565	1039
827.119237936129	1054
829.794987726006	1042
832.469873304377	1044.5
835.143895227169	1034.25
837.817054048985	1044
840.489350323206	1035.75
843.160784601894	1038.25
845.831357435894	1045.25
848.501069374742	1047
851.169920966756	1062
853.837912758989	1053.75
856.505045297233	1056.75
859.171319126073	1065
861.836734788825	1059
864.501292827581	1063.5
867.164993783208	1058.5
869.827838195363	1048.75
872.489826602455	1047.5
875.150959541702	1062
877.811237549104	1059.75
880.470661159458	1067.5
883.129230906359	1076.5
885.786947322208	1054
888.443810938208	1060.75
891.099822284387	1063.25
893.754981889586	1053
896.409290281453	1047
899.062747986487	1061.25
901.715355530001	1068.25
904.367113436154	1066
907.018022227933	1056
909.668082427173	1046
912.317294554575	1059.5
914.965659129661	1075.5
917.613176670838	1068.25
920.259847695365	1062.25
922.90567271936	1064
925.550652257826	1070.5
928.194786824624	1070.25
930.838076932514	1071.75
933.480523093111	1075.25
936.122125816956	1083.25
938.762885613448	1087.75
941.402802990899	1072.5
944.041878456524	1074.5
946.680112516429	1069.5
949.317505675633	1082
951.954058438084	1102.25
954.589771306634	1088.75
957.224644783051	1099.25
959.858679368047	1085.25
962.491875561238	1083.25
965.124233861212	1087
967.755754765453	1090.25
970.386438770423	1099.5
973.016286371502	1103.25
975.645298063046	1098.25
978.273474338357	1092
980.900815689675	1100.25
983.527322608245	1086.75
986.152995584248	1097.75
988.777835106835	1093.75
991.401841664151	1098
994.025015743307	1091
996.64735783041	1109.75
999.268868410535	1101
1001.88954796777	1126
1004.50939698518	1111.5
1007.12841594484	1107.75
1009.74660532783	1118.25
1012.36396561423	1114.75
1014.98049728314	1115.25
1017.59620081267	1112.5
1020.21107667995	1113
1022.82512536112	1121.25
1025.43834733138	1129.5
1028.05074306492	1124.5
1030.66231303501	1126.75
1033.27305771392	1126.25
1035.88297757299	1128
1038.49207308257	1126.25
1041.10034471211	1135
1043.70779293008	1127.5
1046.31441820402	1141
1048.92022100052	1130.25
1051.52520178525	1153
1054.12936102295	1150.75
1056.73269917742	1157.25
1059.33521671154	1158.5
1061.93691408729	1172.25
1064.53779176572	1154.75
1067.13785020694	1143.25
1069.73708987022	1153
1072.33551121386	1145.5
1074.93311469528	1144
1077.52990077103	1145
1080.12586989674	1152.5
1082.72102252715	1163.75
1085.31535911612	1139.25
1087.90888011663	1155
1090.50158598078	1168.5
1093.09347715979	1166.5
1095.68455410403	1160.75
1098.27481726296	1157.25
1100.86426708523	1154
1103.45290401857	1164
1106.04072850991	1153.75
1108.6277410053	1162
1111.21394194993	1160.75
1113.79933178816	1174.75
1116.3839109635	1164.75
1118.96767991862	1168.5
1121.55063909539	1174.75
1124.13278893477	1205
1126.71412987696	1217
1129.29466236132	1201.75
1131.87438682637	1185
1134.45330370982	1169.75
1137.03141344858	1196
1139.60871647873	1181
1142.18521323554	1180
1144.7609041535	1187.5
1147.33578966629	1184.75
1149.90987020677	1191.5
1152.48314620702	1189.25
1155.05561809835	1194.25
1157.62728631126	1187.25
1160.19815127545	1181.25
1162.76821341988	1187.5
1165.33747317271	1193.25
1167.90593096133	1185.25
1170.47358721235	1191.75
1173.04044235163	1203.5
1175.60649680425	1188.25
1178.17175099454	1197.25
1180.73620534607	1192.25
1183.29986028165	1178.25
1185.86271622336	1193.25
1188.42477359249	1197
1190.98603280964	1206.5
1193.54649429462	1189.25
1196.10615846653	1189.25
1198.66502574373	1194.5
1201.22309654385	1205
1203.78037128379	1201.75
1206.33685037971	1195.25
1208.89253424709	1193.25
1211.44742330063	1201
1214.00151795439	1191.75
1216.55481862163	1191
1219.10732571498	1205.25
1221.65903964631	1202.5
1224.20996082683	1195.25
1226.760089667	1220.75
1229.30942657664	1207.5
1231.85797196483	1218.5
1234.40572623998	1202.5
1236.95268980981	1220
1239.49886308136	1218
1242.04424646099	1209
1244.58884035435	1235.75
1247.13264516647	1247
1249.67566130166	1227
1252.21788916359	1235.75
1254.75932915524	1236
1257.29998167896	1236.75
1259.8398471364	1236.25
1262.37892592858	1240.5
1264.91721845586	1253.5
1267.45472511795	1250.75
1269.9914463139	1250.5
1272.52738244213	1264.5
1275.06253390041	1256
1277.59690108587	1267.25
1280.130484395	1257
1282.66328422368	1260.75
1285.19530096712	1282
1287.72653501993	1288.5
1290.25698677609	1282
1292.78665662895	1309.75
1295.31554497125	1332
1297.84365219511	1321
1300.37097869203	1318.25
1302.89752485292	1298.75
1305.42329106806	1290.5
1307.94827772713	1302.75
1310.47248521921	1295.25
1312.99591393279	1297
1315.51856425575	1307.5
1318.04043657537	1284
1320.56153127836	1304
1323.08184875083	1303
1325.6013893783	1302.75
1328.12015354572	1342.5
1330.63814163744	1318
1333.15535403727	1330.5
1335.67179112839	1333
1338.18745329347	1325.5
1340.70234091455	1333.75
1343.21645437314	1329.5
1345.72979405019	1345.75
1348.24236032607	1341
1350.75415358059	1383
1353.26517419303	1349
1355.7754225421	1364.75
1358.28489900594	1364.25
1360.79360396218	1366.75
1363.30153778788	1366.75
1365.80870085955	1363.25
1368.31509355319	1379
1370.82071624425	1375.25
1373.32556930762	1379
1375.8296531177	1374
1378.33296804833	1361.5
1380.83551447282	1369.75
1383.33729276399	1377.25
1385.83830329408	1374.75
1388.33854643489	1384.25
1390.83802255762	1379.5
1393.33673203302	1375.25
1395.83467523128	1381.25
1398.33185252212	1374.5
1400.82826427472	1395.5
1403.32391085777	1390.5
1405.81879263948	1393
1408.31290998752	1388
1410.80626326908	1389.75
1413.29885285087	1412.75
1415.79067909909	1422.5
1418.28174237944	1438
1420.77204305717	1422
1423.26158149702	1425
1425.75035806323	1455
1428.2383731196	1441.25
1430.72562702943	1445
1433.21212015554	1470
1435.69785286029	1473.5
1438.18282550555	1520.25
1440.66703845276	1493
1443.15049206284	1479.75
1445.6331866963	1484
1448.11512271316	1510.5
1450.59630047298	1509.75
1453.07672033486	1510.5
1455.55638265748	1511.5
1458.03528779902	1503.5
1460.51343611725	1534
1462.99082796946	1516
1465.46746371252	1520.25
1467.94334370285	1539.75
1470.41846829642	1547.5
1472.89283784878	1525.25
1475.36645271503	1532.5
1477.83931324984	1540.75
1480.31141980743	1538
1482.78277274164	1541.25
1485.25337240583	1538.75
1487.72321915297	1535
1490.19231333557	1536.5
1492.66065530577	1532.75
1495.12824541525	1549.5
1497.5950840153	1558.5
1500.06117145678	1548.75
1502.52650809014	1557
1504.99109426543	1574.75
1507.45493033228	1564.75
1509.91801663992	1569.75
1512.38035353717	1580.75
1514.84194137248	1585.25
1517.30278049386	1581.5
1519.76287124895	1588.75
1522.22221398497	1600
1524.68080904877	1601.25
1527.13865678681	1590.25
1529.59575754514	1608.5
1532.05211166946	1629.25
1534.50771950503	1653.25
1536.96258139678	1636.5
1539.41669768925	1652
1541.87006872656	1668.5
1544.32269485252	1671.75
1546.77457641051	1682.5
1549.22571374357	1690.5
1551.67610719434	1686.5
1554.12575710513	1691
1556.57466381786	1716.5
1559.02282767408	1705.5
1561.470249015	1733.75
1563.91692818144	1753.5
1566.3628655139	1727.5
1568.80806135249	1737
1571.252516037	1733.5
1573.6962299068	1743.5
1576.139203301	1773.5
1578.58143655828	1761.75
1581.02293001704	1776.25
1583.46368401528	1798.25
1585.90369889071	1793.5
1588.34297498065	1814.5
1590.7815126221	1803.75
1593.21931215174	1814
1595.65637390588	1825.5
1598.09269822053	1831.25
1600.52828543135	1820.5
1602.96313587367	1815.25
1605.3972498825	1825.25
1607.83062779252	1824.25
1610.26326993808	1813.5
1612.69517665322	1836.75
1615.12634827165	1849.25
1617.55678512676	1850.25
1619.98648755164	1854.5
1622.41545587903	1852.5
1624.84369044138	1832.75
1627.27119157085	1865.5
1629.69795959924	1868.5
1632.12399485809	1870.5
1634.54929767859	1872.5
1636.97386839165	1914.75
1639.39770732789	1902.25
1641.8208148176	1882.25
1644.24319119078	1917.5
1646.66483677715	1931.5
1649.08575190611	1936.25
1651.50593690677	1931.75
1653.92539210795	1953.75
1656.3441178382	1942.25
1658.76211442575	1926.25
1661.17938219855	1946
1663.59592148428	1950
1666.01173261033	2001.5
1668.42681590377	2023.75
1670.84117169145	2009.25
1673.25480029991	1997.75
1675.66770205541	2013.75
1678.07987728393	2036.75
1680.49132631119	2035.25
1682.90204946263	2043.25
1685.31204706342	2078.25
1687.72131943847	2065.25
1690.1298669124	2060.75
1692.53768980957	2103.25
1694.94478845411	2101.5
1697.35116316982	2075
1699.75681428031	2103.5
1702.16174210887	2108.5
1704.56594697858	2135
1706.96942921222	2120.25
1709.37218913235	2110
1711.77422706126	2135.75
1714.17554332098	2107.75
1716.57613823331	2140.5
1718.97601211977	2126.25
1721.37516530169	2153.25
1723.77359810006	2136
1726.17131083573	2135
1728.56830382922	2182
1730.96457740087	2176
1733.36013187075	2147
1735.75496755868	2177.5
1738.14908478428	2185
1740.54248386689	2192.75
1742.93516512566	2180.75
1745.32712887946	2226.25
1747.71837544697	2217.25
1750.10890514662	2210.5
1752.49871829661	2229.25
1754.88781521492	2252.25
1757.27619621929	2255.5
1759.66386162726	2247
1762.05081175613	2257.75
1764.43704692297	2298.75
1766.82256744465	2277.5
1769.20737363782	2304
1771.59146581888	2294
1773.97484430405	2324.75
1776.35750940932	2317
1778.73946145048	2328.75
1781.12070074309	2349.25
1783.50122760249	2361.25
1785.88104234385	2372.75
1788.26014528209	2362
1790.63853673197	2398
1793.01621700796	2400.25
1795.39318642444	2417.25
1797.76944529549	2398
1800.14499393504	2420.25
1802.51983265681	2421
1804.8939617743	2456.75
1807.26738160085	2432.25
1809.64009244957	2461.75
1812.01209463339	2453.75
1814.38338846504	2473.5
1816.75397425706	2464.75
1819.12385232181	2474.75
1821.49302297142	2524.75
1823.86148651789	2507
1826.22924327299	2480.5
1828.59629354831	2536
1830.96263765526	2507.5
1833.32827590507	2545.25
1835.69320860877	2554.5
1838.05743607724	2556.5
1840.42095862113	2554
1842.78377655097	2584.75
1845.14589017707	2551.25
1847.50729980956	2573.75
1849.86800575843	2593.25
1852.22800833346	2609.25
1854.58730784427	2600.75
1856.94590460032	2620
1859.30379891087	2615
1861.66099108503	2632.75
1864.01748143175	2689
1866.37327025978	2669.75
1868.72835787773	2650.25
1871.08274459404	2694
1873.43643071697	2704.25
1875.78941655464	2740.25
1878.14170241499	2747
1880.4932886058	2715.25
1882.84417543469	2746
1885.19436320915	2773.25
1887.54385223646	2770.75
1889.89264282378	2808.75
1892.24073527809	2784
1894.58812990625	2813
1896.93482701494	2843.75
1899.28082691067	2850.5
1901.62612989985	2855.75
1903.97073628868	2865.5
1906.31464638326	2867.5
1908.6578604895	2919
1911.00037891321	2925.75
1913.34220196001	2985.75
1915.68332993538	2957.75
1918.02376314468	2979.25
1920.36350189311	2976
1922.70254648573	2997.75
1925.04089722744	3016.25
1927.37855442304	3013.5
1929.71551837715	3051.25
1932.05178939427	3018.5
1934.38736777876	3031.75
1936.72225383484	3038.75
1939.0564478666	3080.25
1941.38995017799	3035
1943.72276107283	3071.75
1946.05488085479	3089.25
1948.38630982744	3063.5
1950.71704829419	3125
1953.04709655832	3115
1955.376454923	3125.75
1957.70512369126	3132.5
1960.03310316599	3134
1962.36039364999	3131.5
1964.68699544589	3125.25
1967.01290885622	3159.75
1969.33813418338	3160.75
1971.66267172965	3162
1973.98652179718	3188.25
1976.309684688	3253.75
1978.63216070402	3265
1980.95395014705	3304.5
1983.27505331873	3279.75
1985.59547052064	3284.5
1987.9152020542	3323.5
1990.23424822074	3335.75
1992.55260932146	3328.5
1994.87028565746	3361.5
1997.18727752968	3346.5
1999.50358523901	3395.5
2001.81920908618	3408
2004.13414937184	3432.75
2006.44840639651	3478.25
2008.7619804606	3451
2011.07487186442	3513
2013.38708090815	3556.25
2015.6986078919	3537.5
2018.00945311564	3537.5
2020.31961687924	3579
2022.62909948247	3607.5
2024.93790122499	3588
2027.24602240636	3642.75
2029.55346332604	3640
2031.86022428337	3672.75
2034.16630557761	3691.75
2036.47170750791	3684.5
2038.77643037331	3732.25
2041.08047447275	3752.75
2043.38384010509	3721.75
2045.68652756907	3777
2047.98853716335	3738.5
2050.28986918648	3773.5
2052.59052393692	3792.5
2054.89050171302	3814.75
2057.18980281307	3859
2059.4884275352	3809.25
2061.78637617753	3879.25
2064.08364903802	3855.5
2066.38024641457	3884
2068.67616860497	3865
2070.97141590694	3900.25
2073.26598861809	3893
2075.55988703595	3889
2077.85311145796	3892.5
2080.14566218145	3943.75
2082.43753950371	3949
2084.72874372188	3927.5
2087.01927513307	3923.5
2089.30913403428	3933.75
2091.59832072241	3998.75
2093.88683549429	3955.75
2096.17467864666	3970.25
2098.46185047619	3999.25
2100.74835127944	4004.75
2103.03418135292	4007
2105.31934099303	4011.25
2107.6038304961	4072
2109.88765015838	4036
2112.17080027602	4029
2114.45328114513	4073.75
2116.7350930617	4056.5
2119.01623632165	4034.75
2121.29671122085	4065.75
2123.57651805505	4115
2125.85565711996	4121.25
2128.13412871117	4100
2130.41193312424	4150.25
2132.68907065462	4142
2134.96554159771	4155.25
2137.24134624881	4141
2139.51648490317	4201
2141.79095785594	4169.75
2144.0647654022	4171.25
2146.33790783698	4204.5
2148.61038545524	4147.75
2150.88219855182	4168.5
2153.15334742154	4207
2155.42383235911	4225.75
2157.69365365921	4244.5
2159.9628116164	4185
2162.23130652522	4165.25
2164.49913868011	4218.75
2166.76630837544	4194.25
2169.03281590553	4227.5
2171.29866156461	4190
2173.56384564685	4172.75
2175.82836844637	4178.25
2178.0922302572	4194.5
2180.35543137332	4175.5
2182.61797208862	4170.25
2184.87985269695	4174.5
2187.14107349208	4164.75
2189.40163476773	4176.75
2191.66153681753	4159
2193.92077993507	4118.75
2196.17936441386	4132.25
2198.43729054735	4141.25
2200.69455862894	4116.75
2202.95116895194	4156
2205.20712180963	4101.25
2207.4624174952	4080.75
2209.71705630179	4106.5
2211.97103852248	4104.5
2214.22436445031	4093.75
2216.47703437819	4062.75
2218.72904859905	4037.25
2220.98040740571	4068.5
2223.23111109096	4083.5
2225.4811599475	4030.75
2227.730554268	4022.25
2229.97929434505	3981.5
2232.22738047118	4018.5
2234.47481293889	3991
2236.72159204058	4024.75
2238.96771806864	3978.75
2241.21319131537	3933.5
2243.458012073	3955.75
2245.70218063374	3937.25
2247.94569728973	3938.75
2250.18856233304	3907.5
2252.4307760557	3899.5
2254.67233874967	3910.25
2256.91325070687	3894.25
2259.15351221915	3871.25
2261.39312357831	3875.5
2263.63208507611	3835.75
2265.87039700422	3810.75
2268.1080596543	3846.5
2270.34507331792	3820.5
2272.5814382866	3799.25
2274.81715485183	3840.75
2277.05222330502	3814
2279.28664393755	3801.25
2281.52041704073	3749
2283.75354290581	3780.5
2285.98602182401	3716.25
2288.21785408649	3776.5
2290.44903998434	3773.75
2292.67957980862	3754.5
2294.90947385033	3707.75
2297.1387224004	3694
2299.36732574976	3740
2301.59528418921	3717
2303.82259800958	3692.5
2306.04926750158	3658.5
2308.27529295593	3647.25
2310.50067466325	3657
2312.72541291412	3650.25
2314.9495079991	3673.75
2317.17296020866	3619.5
2319.39576983324	3637.75
2321.61793716322	3609.5
2323.83946248895	3615.25
2326.0603461007	3577.75
2328.28058828871	3551
2330.50018934317	3580.5
2332.7191495542	3563.5
2334.93746921192	3525
2337.15514860633	3487.5
2339.37218802743	3528
2341.58858776516	3489.5
2343.80434810941	3509.5
2346.01946935001	3475.25
2348.23395177676	3455
2350.44779567939	3489
2352.66100134759	3424
2354.87356907102	3422
2357.08549913925	3447.5
2359.29679184185	3407.75
2361.50744746829	3421.25
2363.71746630804	3387.5
2365.92684865049	3369
2368.13559478499	3356.75
2370.34370500083	3367.75
2372.55117958727	3365.5
2374.75801883353	3356.25
2376.96422302874	3324.5
2379.16979246202	3299
2381.37472742244	3283.75
2383.57902819898	3278
2385.78269508063	3273
2387.98572835629	3245.5
2390.18812831482	3269.75
2392.38989524505	3250.25
2394.59102943573	3278.5
2396.79153117559	3233.5
2398.9914007533	3229
2401.19063845748	3230.25
2403.38924457672	3204
2405.58721939951	3176.5
2407.78456321435	3172.5
2409.98127630966	3182.5
2412.17735897383	3170.5
2414.37281149518	3152.25
2416.56763416198	3138.5
2418.76182726249	3162.25
2420.95539108487	3105.25
2423.14832591726	3100.25
2425.34063204776	3091
2427.53230976439	3094.25
2429.72335935513	3107.25
2431.91378110795	3085.75
2434.10357531071	3083.5
2436.29274225126	3073.25
2438.48128221739	3046.5
2440.66919549684	3042.5
2442.8564823773	3045.75
2445.04314314641	3069.5
2447.22917809176	3015.25
2449.4145875009	3033.5
2451.59937166131	3043.5
2453.78353086044	3005.75
2455.96706538567	2981.5
2458.14997552437	2984.25
2460.33226156379	2953.25
2462.51392379119	2958.75
2464.69496249376	2938
2466.87537795862	2917.75
2469.05517047288	2918
2471.23434032358	2939
2473.41288779767	2938.75
2475.59081318212	2885.75
2477.76811676378	2906.5
2479.9447988295	2886
2482.12085966605	2875.75
2484.29629956016	2875.25
2486.4711187985	2896.25
2488.64531766769	2849.75
2490.8188964543	2849.5
2492.99185544484	2827.75
2495.16419492579	2839.25
2497.33591518353	2830.75
2499.50701650444	2827
2501.67749917482	2845.25
2503.84736348091	2812.75
2506.01660970891	2799.25
2508.18523814496	2781.25
2510.35324907515	2780
2512.52064278551	2808.5
2514.68741956201	2790.5
2516.85357969058	2842.25
2519.01912345709	2804.25
2521.18405114735	2812.5
2523.34836304711	2785.25
2525.51205944209	2756.25
2527.6751406179	2783.75
2529.83760686016	2780.25
2531.99945845439	2784
2534.16069568607	2775.5
2536.3213188406	2755.5
2538.48132820336	2737.25
2540.64072405965	2747
2542.79950669471	2727
2544.95767639373	2744
2547.11523344184	2707.25
2549.27217812411	2737.25
2551.42851072555	2715.25
2553.58423153111	2709
2555.7393408257	2672
2557.89383889413	2706.25
2560.04772602119	2710.25
2562.20100249158	2670
2564.35366858996	2684.5
2566.50572460093	2668.75
2568.65717080901	2666.75
2570.80800749867	2668
2572.95823495433	2654.75
2575.10785346031	2633.25
2577.25686330093	2609.5
2579.40526476038	2606.5
2581.55305812282	2606
2583.70024367237	2590.75
2585.84682169303	2608.25
2587.99279246879	2586.75
2590.13815628354	2591.5
2592.28291342112	2572.25
2594.42706416531	2567.5
2596.57060879981	2560.5
2598.71354760826	2601
2600.85588087425	2577.25
2602.99760888127	2574.25
2605.13873191278	2553.5
2607.27925025215	2542.75
2609.41916418269	2561.75
2611.55847398764	2539.25
2613.69717995017	2531.25
2615.8352823534	2526.75
2617.97278148034	2523.5
2620.10967761398	2521
2622.2459710372	2544
2624.38166203284	2518
2626.51675088365	2518.75
2628.65123787232	2502
2630.78512328145	2520.5
2632.9184073936	2493.25
2635.05109049124	2508
2637.18317285676	2532.75
2639.31465477249	2542.25
2641.44553652067	2489.5
2643.5758183835	2511.25
2645.70550064309	2461.25
2647.83458358144	2508
2649.96306748053	2503.25
2652.09095262224	2487.75
2654.21823928836	2508
2656.34492776063	2502.5
2658.47101832071	2459
2660.59651125015	2497
2662.72140683047	2478
2664.84570534309	2466
2666.96940706935	2462.5
2669.0925122905	2448.75
2671.21502128773	2458.25
2673.33693434216	2475.25
2675.45825173479	2467
2677.57897374658	2458
2679.6991006584	2448.75
2681.81863275101	2415.75
2683.93757030512	2422
2686.05591360133	2445.5
2688.17366292021	2451.75
2690.29081854218	2413.25
2692.40738074762	2437
2694.52334981681	2455.75
2696.63872602995	2428.5
2698.75350966714	2422.75
2700.86770100842	2424.25
2702.98130033372	2408.25
2705.09430792289	2406.5
2707.20672405572	2421.5
2709.31854901185	2420
2711.42978307091	2408.25
2713.54042651238	2422.75
2715.65047961567	2420.25
2717.7599426601	2428.25
2719.86881592492	2427.25
2721.97709968924	2389.5
2724.08479423213	2406
2726.19189983255	2394.75
2728.29841676935	2397.5
2730.40434532131	2383.75
2732.5096857671	2378.75
2734.61443838532	2375.25
2736.71860345444	2386.25
2738.82218125287	2393.25
2740.92517205889	2377.75
2743.02757615073	2384
2745.12939380646	2371.75
2747.23062530411	2380
2749.33127092159	2365.75
2751.4313309367	2348.5
2753.53080562717	2348.5
2755.62969527058	2381.25
2757.72800014448	2348.25
2759.82572052625	2349.5
2761.92285669323	2353.25
2764.0194089226	2358.25
2766.11537749147	2367.75
2768.21076267686	2375.75
2770.30556475566	2353.75
2772.39978400465	2364.75
2774.49342070054	2339.25
2776.58647511991	2371
2778.67894753923	2361.5
2780.77083823487	2361.5
2782.8621474831	2334.75
2784.95287556007	2328.25
2787.04302274184	2329.5
2789.13258930433	2358
2791.22157552338	2327.75
2793.30998167471	2318.75
2795.39780803392	2323.75
2797.48505487651	2335.75
2799.57172247786	2338.75
2801.65781111324	2315.5
2803.74332105781	2344.75
2805.82825258661	2340.5
2807.91260597457	2333.75
2809.9963814965	2328.5
2812.07957942711	2334.25
2814.16220004096	2327.25
2816.24424361252	2327.5
2818.32571041614	2334.25
2820.40660072604	2311.5
2822.48691481632	2337.25
2824.56665296098	2312.5
2826.64581543388	2351.5
2828.72440250876	2343.5
2830.80241445925	2358.75
2832.87985155885	2363.25
2834.95671408094	2409.75
2837.03300229875	2417.25
2839.10871648544	2467.5
2841.18385691399	2527.25
2843.25842385729	2580
2845.33241758808	2598
2847.40583837899	2643.75
2849.4786865025	2680.75
2851.550962231	2630.75
2853.6226658367	2625.75
2855.69379759174	2632.25
2857.76435776806	2573.25
2859.83434663753	2549
2861.90376447184	2543
2863.97261154259	2529
2866.04088812121	2521.25
2868.10859447901	2553.25
2870.17573088717	2495
2872.24229761673	2518.25
2874.30829493859	2540.25
2876.37372312353	2547
2878.43858244215	2640.25
2880.50287316496	2647.5
2882.56659556231	2676.25
2884.6297499044	2625.5
2886.69233646129	2595.75
2888.75435550293	2594.75
2890.81580729909	2584.5
2892.87669211941	2602
2894.9370102334	2578.25
2896.99676191039	2559.25
2899.05594741961	2581
2901.11456703011	2540.25
2903.1726210108	2564
2905.23010963045	2542
2907.28703315768	2485.25
2909.34339186096	2521.25
2911.39918600861	2516.5
2913.45441586879	2475.5
2915.50908170953	2489.25
2917.56318379867	2514
2919.61672240395	2495.25
2921.66969779291	2495
2923.72211023296	2497.25
2925.77395999134	2517.25
2927.82524733515	2490.25
2929.87597253133	2496.5
2931.92613584663	2500.25
2933.9757375477	2455.75
2936.02477790097	2432.25
2938.07325717276	2420.75
2940.1211756292	2426.75
2942.16853353626	2399
2944.21533115977	2370.5
2946.26156876536	2368.5
2948.30724661853	2365.25
2950.3523649846	2370
2952.39692412872	2379.5
2954.44092431587	2363.25
2956.4843658109	2334.25
2958.52724887843	2353.25
2960.56957378296	2366
2962.6113407888	2382.75
2964.65255016011	2358.5
2966.69320216083	2351
2968.73329705479	2368.75
2970.77283510559	2346.75
2972.81181657671	2337.5
2974.85024173141	2384.75
2976.88811083279	2341.25
2978.92542414379	2378.5
2980.96218192714	2384
2982.99838444541	2366.75
2985.034031961	2363.75
2987.06912473612	2358.25
2989.1036630328	2354.5
2991.13764711289	2366.5
2993.17107723804	2379.25
2995.20395366975	2366.75
2997.23627666931	2387.25
2999.26804649782	2392.75
3001.29926341624	2395.75
3003.32992768528	2397.25
3005.3600395655	2426.25
3007.38959931727	2404.75
3009.41860720076	2415
3011.44706347595	2442
3013.47496840263	2438.25
3015.50232224042	2409
3017.5291252487	2434.5
3019.5553776867	2417
3021.58107981344	2455.75
3023.60623188773	2434.5
3025.63083416822	2471.25
3027.65488691331	2431.75
3029.67839038125	2468.5
3031.70134483007	2451.5
3033.72375051759	2466.25
3035.74560770145	2473.5
3037.76691663907	2490
3039.78767758768	2470.25
3041.80789080431	2458
3043.82755654577	2485.5
3045.84667506867	2491.25
3047.8652466294	2477.5
3049.88327148418	2487.25
3051.90074988899	2487
3053.91768209961	2495.25
3055.93406837161	2453.75
3057.94990896033	2475.25
3059.96520412095	2512.5
3061.97995410838	2512.75
3063.99415917734	2486
3066.00781958234	2521.5
3068.02093557766	2513
3070.03350741738	2512.5
3072.04553535535	2501.25
3074.05701964521	2505.5
3076.06796054036	2518
3078.07835829401	2493
3080.08821315912	2537.25
3082.09752538846	2555
3084.10629523454	2510
3086.11452294967	2534.75
3088.12220878592	2524.25
3090.12935299515	2548
3092.13595582898	2544.5
3094.1420175388	2544.75
3096.1475383758	2531.75
3098.15251859088	2532.75
3100.15695843477	2594.75
3102.16085815793	2554.25
3104.16421801062	2527.5
3106.16703824282	2548
3108.16931910432	2559.5
3110.17106084464	2543.25
3112.17226371308	2566
3114.17292795872	2563
3116.17305383034	2570.75
3118.17264157657	2568.75
3120.17169144571	2586
3122.17020368587	2599.5
3124.16817854492	2558.25
3126.16561627044	2614.25
3128.16251710982	2641.75
3130.15888131017	2616.75
3132.15470911837	2646.25
3134.15000078104	2636.5
3136.14475654455	2632.75
3138.13897665502	2664
3140.13266135835	2653.25
3142.12581090015	2637.25
3144.11842552578	2661.75
3146.11050548036	2670
3148.10205100875	2697.25
3150.09306235557	2671
3152.08353976515	2657.75
3154.07348348158	2662.75
3156.06289374869	2692
3158.05177081006	2699.5
3160.04011490899	2688.5
3162.02792628852	2703.75
3164.01520519145	2707.25
3166.00195186029	2724.25
3167.98816653728	2709.5
3169.97384946442	2709.5
3171.95900088344	2724.25
3173.94362103577	2692.5
3175.9277101626	2739.25
3177.91126850484	2747.25
3179.89429630312	2698.5
3181.87679379782	2721.5
3183.85876122904	2777.5
3185.84019883657	2735
3187.82110685997	2763.75
3189.80148553851	2750
3191.78133511116	2756.75
3193.76065581664	2761.75
3195.73944789337	2767.25
3197.7177115795	2750.75
3199.6954471129	2781.5
3201.67265473114	2805
3203.64933467153	2778.25
3205.62548717107	2811
3207.60111246649	2801.5
3209.57621079422	2794.75
3211.55078239041	2833.25
3213.52482749093	2797
3215.49834633133	2843.25
3217.4713391469	2854
3219.44380617262	2823.5
3221.41574764318	2818.25
3223.38716379296	2864
3225.35805485607	2869.75
3227.32842106631	2849.25
3229.29826265718	2889.5
3231.26757986187	2890.75
3233.2363729133	2912.75
3235.20464204405	2889.5
3237.17238748644	2906
3239.13960947243	2910.75
3241.10630823374	2919.25
3243.07248400174	2912.5
3245.03813700748	2939.75
3247.00326748177	2957.25
3248.96787565503	2982
3250.93196175742	2980
3252.89552601877	2959.5
3254.8585686686	2974.75
3256.82108993612	2966
3258.78309005022	2990.25
3260.74456923948	2999.75
3262.70552773215	2997.5
3264.66596575617	3002.75
3266.62588353916	2976.25
3268.58528130843	2999
3270.54415929094	3006.25
3272.50251771336	2995
3274.46035680202	3032
3276.4176767829	3005.25
3278.37447788171	3004
3280.33076032379	3035.5
3282.28652433416	3039.5
3284.24177013751	3036.5
3286.1964979582	3021.75
3288.15070802027	3066.5
3290.10440054741	3054.5
3292.05757576298	3042.25
3294.01023389001	3050.75
3295.96237515119	3094.5
3297.91399976887	3070
3299.86510796506	3076.25
3301.81569996143	3055.75
3303.76577597932	3085
3305.71533623971	3118.25
3307.66438096325	3069.5
3309.61291037024	3090
3311.56092468063	3102.25
3313.50842411404	3086.25
3315.45540888971	3117.25
3317.40187922656	3076.25
3319.34783534315	3127.5
3321.29327745768	3114.75
3323.23820578801	3083.75
3325.18262055164	3109.5
3327.1265219657	3117.75
3329.06991024699	3112
3331.01278561194	3120.75
3332.95514827663	3115.75
3334.89699845675	3163.75
3336.83833636766	3149
3338.77916222434	3100.75
3340.71947624143	3152.5
3342.65927863317	3132.75
3344.59856961347	3143.5
3346.53734939584	3135.75
3348.47561819344	3175.75
3350.41337621907	3141.5
3352.35062368513	3163.25
3354.28736080368	3138.75
3356.22358778637	3186.25
3358.15930484452	3125.5
3360.09451218904	3188.25
3362.02921003047	3181.25
3363.96339857899	3201.25
3365.89707804437	3209
3367.83024863603	3206.5
3369.76291056299	3196.5
3371.69506403389	3208.5
3373.62670925699	3219.25
3375.55784644016	3267.75
3377.4884757909	3223.5
3379.41859751629	3229.75
3381.34821182305	3256.75
3383.27731891749	3247
3385.20591900555	3265
3387.13401229276	3298.5
3389.06159898426	3273
3390.9886792848	3307.75
3392.91525339872	3300.5
3394.84132152998	3271.5
3396.76688388213	3280.5
3398.69194065834	3284.5
3400.61649206133	3308
3402.54053829348	3335.75
3404.46407955672	3318
3406.3871160526	3314
3408.30964798225	3347
3410.23167554639	3330.25
3412.15319894535	3347.25
3414.07421837904	3337
3415.99473404695	3343.5
3417.91474614817	3341
3419.83425488136	3366
3421.7532604448	3339.75
3423.67176303631	3374.25
3425.58976285332	3370.25
3427.50726009283	3365.75
3429.42425495143	3367.75
3431.34074762528	3392.5
3433.25673831012	3379.25
3435.17222720127	3363
3437.08721449362	3347.5
3439.00170038164	3352.5
3440.91568505936	3386.75
3442.8291687204	3321.5
3444.74215155792	3354
3446.65463376469	3389.5
3448.566615533	3395.25
3450.47809705476	3373.5
3452.3890785214	3409.25
3454.29956012393	3394.25
3456.20954205293	3429
3458.11902449853	3389.5
3460.02800765042	3368.25
3461.93649169784	3333
3463.84447682962	3382
3465.75196323412	3394.5
3467.65895109925	3367.75
3469.56544061249	3396
3471.47143196086	3355
3473.37692533094	3367
3475.28192090884	3373
3477.18641888026	3392
3479.09041943039	3393
3480.99392274402	3401.5
3482.89692900545	3382.25
3484.79943839853	3375
3486.70145110666	3412.25
3488.60296731277	3368.5
3490.50398719933	3404
3492.40451094836	3363.75
3494.30453874141	3377
3496.20407075956	3409.5
3498.10310718342	3410.5
3500.00164819315	3367.5