201.866871357053	1008.25
204.754250281456	1020
207.640596790939	1019
210.525911876301	1021.5
213.41019652569	1028.75
216.293451724511	1030.5
219.175678455486	1019.25
222.056877698663	1029.75
224.937050431391	1034.5
227.816197628365	1036.5
230.694320261604	1035.5
233.571419300504	1037.75
236.447495711765	1031.5
239.322550459507	1033.5
242.196584505184	1043.5
245.069598807628	1034
247.94159432308	1033.5
250.812572005157	1047.5
253.682532804885	1040.75
256.551477670701	1050.75
259.419407548458	1039.25
262.286323381442	1050.25
265.152226110364	1046.5
268.017116673389	1050.25
270.880996006118	1045.25
273.743865041624	1039
276.605724710438	1036.75
279.466575940565	1052.5
282.326419657499	1047.5
285.185256784201	1054.25
288.04308824116	1058.25
290.899914946356	1054.25
293.75573781526	1051
296.610557760899	1044.75
299.464375693819	1040.5
302.317192522079	1066.25
305.169009151297	1055.25
308.019826484655	1060.5
310.869645422872	1040.25
313.718466864235	1059
316.566291704615	1043.5
319.41312083746	1061
322.258955153805	1058.5
325.103795542294	1062
327.947642889129	1064
330.79049807819	1061
333.63236199093	1067.25
336.473235506447	1065.25
339.313119501453	1055.75
342.152014850323	1060.25
344.989922425064	1087
347.826843095356	1082
350.662777728529	1071.5
353.497727189577	1089
356.331692341196	1080.25
359.164674043732	1110.5
361.996673155267	1101.75
364.827690531538	1101.5
367.657727026021	1096.5
370.486783489887	1092
373.314860772046	1098.25
376.14195971912	1090.5
378.968081175469	1113.25
381.793225983214	1116.5
384.617394982201	1090.75
387.44058901005	1107.5
390.262808902134	1113.75
393.084055491614	1105.75
395.904329609395	1116
398.723632084216	1117.75
401.541963742572	1137.25
404.359325408781	1135.5
407.17571790494	1141.75
409.991142050985	1123.75
412.805598664665	1131
415.619088561551	1145.75
418.431612555051	1149.75
421.243171456419	1167
424.05376607476	1188.25
426.86339721702	1187
429.672065688025	1191.25
432.479772290455	1205
435.28651782488	1211
438.092303089737	1232.75
440.897128881362	1237.75
443.700995993992	1254.5
446.503905219761	1261.75
449.305857348711	1235.75
452.106853168798	1234.75
454.906893465921	1216.5
457.705979023886	1219
460.504110624441	1196
463.301289047302	1189.25
466.09751507009	1176
468.892789468424	1155
471.687113015869	1165
474.480486483952	1155.25
477.272910642201	1138.5
480.064386258111	1152
482.854914097161	1137.5
485.644494922841	1136.25
488.433129496637	1141.75
491.22081857805	1149.5
494.007562924587	1141.5
496.793363291787	1142
499.578220433219	1160.75
502.362135100475	1148.75
505.145108043209	1140
507.927140009101	1156.25
510.70823174391	1160.25
513.488383991435	1166.25
516.267597493556	1158
519.045872990221	1166
521.823211219462	1159.75
524.5996129174	1177.5
527.375078818234	1171.75
530.149609654287	1160.75
532.923206155968	1162.5
535.695869051803	1171
538.46759906845	1171.75
541.238396930667	1156
544.008263361365	1162.25
546.777199081581	1152
549.545204810496	1165.25
552.312281265439	1181.5
555.078429161901	1179.75
557.843649213536	1192.25
560.607942132158	1179.75
563.371308627753	1176
566.133749408497	1178.75
568.895265180758	1196
571.655856649067	1192.75
574.415524516192	1206.5
577.174269483075	1199.25
579.932092248886	1229.75
582.688993510996	1237
585.444973965024	1236.75
588.200034304796	1255.75
590.954175222372	1265.25
593.707397408072	1266.25
596.459701550436	1277.5
599.211088336284	1278.75
601.961558450671	1298.75
604.711112576934	1289.5
607.459751396673	1293
610.207475589751	1313.75
612.954285834339	1299.25
615.70018280688	1294.5
618.445167182103	1276.25
621.189239633057	1273.75
623.932400831087	1265
626.674651445839	1248.75
629.415992145303	1228.75
632.156423595745	1222.75
634.895946461815	1215
637.634561406448	1210.5
640.372269090962	1213
643.109070174981	1198
645.84496531651	1206.75
648.579955171891	1196.25
651.314040395848	1209
654.047221641459	1212.25
656.779499560178	1199
659.510874801831	1202
662.241348014646	1194.25
664.970919845243	1213
667.699590938608	1203
670.427361938164	1207.75
673.154233485732	1214.5
675.880206221526	1203.5
678.605280784208	1211.5
681.329457810832	1201.5
684.052737936921	1215.5
686.77512179639	1203
689.496610021632	1202
692.217203243456	1206.5
694.936902091147	1184
697.655707192428	1221.75
700.373619173495	1195.5
703.090638659013	1201.75
705.806766272093	1207.75
708.522002634379	1218.5
711.236348365948	1206.25
713.949804085381	1203.75
716.662370409764	1209
719.374047954676	1185.5
722.084837334191	1190.75
724.79473916091	1200.75
727.50375404595	1199
730.21188259892	1206.75
732.919125427998	1206.75
735.625483139858	1212
738.330956339726	1197.25
741.035545631373	1223.25
743.739251617109	1238
746.44207489779	1217.25
749.144016072856	1214
751.845075740273	1211.25
754.545254496604	1226.75
757.244552936979	1220.25
759.942971655083	1219.75
762.640511243225	1224.75
765.337172292252	1237
768.032955391651	1212.5
770.727861129485	1226.25
773.421890092416	1221
776.11504286572	1220.75
778.807320033299	1218.5
781.49872217765	1216
784.189249879911	1218.5
786.87890371984	1195.5
789.567684275826	1211.25
792.255592124909	1211.5
794.942627842762	1202.25
797.628792003709	1214.75
800.314085180718	1226
802.998507945429	1225.5
805.682060868145	1198.25
808.364744517821	1195.25
811.046559462106	1222
813.727506267312	1218.25
816.407585498422	1217
819.086797719131	1225
821.765143491823	1227.25
824.442623377565	1210
827.119237936129	1222
829.794987726006	1220.75
832.469873304377	1223.25
835.143895227169	1210.5
837.817054048985	1223.25
840.489350323206	1237.5
843.160784601894	1236.25
845.831357435894	1239.25
848.501069374742	1244.25
851.169920966756	1223.75
853.837912758989	1222.75
856.505045297233	1251.5
859.171319126073	1250.5
861.836734788825	1230.75
864.501292827581	1249
867.164993783208	1239.25
869.827838195363	1239.75
872.489826602455	1248.5
875.150959541702	1250.75
877.811237549104	1238
880.470661159458	1247.25
883.129230906359	1249
885.786947322208	1232
888.443810938208	1235
891.099822284387	1226.25
893.754981889586	1234
896.409290281453	1224
899.062747986487	1257.5
901.715355530001	1246.5
904.367113436154	1235.25
907.018022227933	1238
909.668082427173	1238.5
912.317294554575	1266
914.965659129661	1249.25
917.613176670838	1255.5
920.259847695365	1251.25
922.90567271936	1248
925.550652257826	1241.25
928.194786824624	1238.5
930.838076932514	1225
933.480523093111	1246.5
936.122125816956	1240.5
938.762885613448	1245.75
941.402802990899	1241
944.041878456524	1234.25
946.680112516429	1245
949.317505675633	1261.5
951.954058438084	1262.5
954.589771306634	1261.25
957.224644783051	1245.75
959.858679368047	1245.5
962.491875561238	1233.75
965.124233861212	1259
967.755754765453	1241.75
970.386438770423	1268.25
973.016286371502	1249
975.645298063046	1262.75
978.273474338357	1258
980.900815689675	1261.75
983.527322608245	1249.5
986.152995584248	1259
988.777835106835	1243.5
991.401841664151	1253
994.025015743307	1255.25
996.64735783041	1244.5
999.268868410535	1259.25
1001.88954796777	1256.5
1004.50939698518	1264
1007.12841594484	1276.75
1009.74660532783	1271.5
1012.36396561423	1270.25
1014.98049728314	1267.25
1017.59620081267	1277.25
1020.21107667995	1269.5
1022.82512536112	1279
1025.43834733138	1276.5
1028.05074306492	1286.5
1030.66231303501	1269.75
1033.27305771392	1287.75
1035.88297757299	1274
1038.49207308257	1275
1041.10034471211	1298.75
1043.70779293008	1293.75
1046.31441820402	1282.75
1048.92022100052	1296.25
1051.52520178525	1322
1054.12936102295	1364.75
1056.73269917742	1432.25
1059.33521671154	1526
1061.93691408729	1553.5
1064.53779176572	1523
1067.13785020694	1423.75
1069.73708987022	1372.5
1072.33551121386	1342.5
1074.93311469528	1313.5
1077.52990077103	1337.5
1080.12586989674	1326.5
1082.72102252715	1318.5
1085.31535911612	1335
1087.90888011663	1308.75
1090.50158598078	1309.75
1093.09347715979	1307.75
1095.68455410403	1316.25
1098.27481726296	1291
1100.86426708523	1313.75
1103.45290401857	1302.5
1106.04072850991	1305.25
1108.6277410053	1307.5
1111.21394194993	1294.5
1113.79933178816	1315
1116.3839109635	1336
1118.96767991862	1343.5
1121.55063909539	1408.25
1124.13278893477	1473.75
1126.71412987696	1569
1129.29466236132	1563.25
1131.87438682637	1514.5
1134.45330370982	1417
1137.03141344858	1364
1139.60871647873	1335.5
1142.18521323554	1308.25
1144.7609041535	1317.75
1147.33578966629	1313
1149.90987020677	1313.25
1152.48314620702	1326.5
1155.05561809835	1318.25
1157.62728631126	1307.75
1160.19815127545	1306
1162.76821341988	1324.5
1165.33747317271	1340.25
1167.90593096133	1344.5
1170.47358721235	1343
1173.04044235163	1335.5
1175.60649680425	1315.75
1178.17175099454	1306
1180.73620534607	1307.5
1183.29986028165	1288
1185.86271622336	1288
1188.42477359249	1301.25
1190.98603280964	1297
1193.54649429462	1289.25
1196.10615846653	1280.5
1198.66502574373	1274.25
1201.22309654385	1278
1203.78037128379	1288.25
1206.33685037971	1292.25
1208.89253424709	1303.75
1211.44742330063	1294.25
1214.00151795439	1287.25
1216.55481862163	1293.5
1219.10732571498	1278.75
1221.65903964631	1299.75
1224.20996082683	1290.75
1226.760089667	1304.75
1229.30942657664	1286.75
1231.85797196483	1296
1234.40572623998	1306.75
1236.95268980981	1300.5
1239.49886308136	1284
1242.04424646099	1300.75
1244.58884035435	1299.5
1247.13264516647	1323.5
1249.67566130166	1312
1252.21788916359	1311.25
1254.75932915524	1320.25
1257.29998167896	1327
1259.8398471364	1334.25
1262.37892592858	1328.25
1264.91721845586	1347.25
1267.45472511795	1347
1269.9914463139	1341
1272.52738244213	1349.25
1275.06253390041	1341
1277.59690108587	1362.5
1280.130484395	1364.5
1282.66328422368	1370.25
1285.19530096712	1382.5
1287.72653501993	1433.25
1290.25698677609	1544.25
1292.78665662895	1741.25
1295.31554497125	1769.25
1297.84365219511	1644.75
1300.37097869203	1518
1302.89752485292	1446
1305.42329106806	1414
1307.94827772713	1396.75
1310.47248521921	1410
1312.99591393279	1408.75
1315.51856425575	1368.25
1318.04043657537	1377
1320.56153127836	1378.25
1323.08184875083	1381
1325.6013893783	1383.25
1328.12015354572	1375
1330.63814163744	1374
1333.15535403727	1381.25
1335.67179112839	1385.5
1338.18745329347	1386.25
1340.70234091455	1364
1343.21645437314	1394
1345.72979405019	1370
1348.24236032607	1379.25
1350.75415358059	1403.5
1353.26517419303	1410.5
1355.7754225421	1425.5
1358.28489900594	1410.25
1360.79360396218	1433.5
1363.30153778788	1421.75
1365.80870085955	1434
1368.31509355319	1431.75
1370.82071624425	1447.75
1373.32556930762	1425.5
1375.8296531177	1437
1378.33296804833	1412.75
1380.83551447282	1411.25
1383.33729276399	1432.75
1385.83830329408	1428.25
1388.33854643489	1417.5
1390.83802255762	1424.5
1393.33673203302	1411
1395.83467523128	1417.75
1398.33185252212	1392.25
1400.82826427472	1438.25
1403.32391085777	1431.25
1405.81879263948	1451.25
1408.31290998752	1466.5
1410.80626326908	1469.25
1413.29885285087	1558.75
1415.79067909909	1579.25
1418.28174237944	1584.75
1420.77204305717	1567.75
1423.26158149702	1531.5
1425.75035806323	1550.75
1428.2383731196	1594.5
1430.72562702943	1643.5
1433.21212015554	1719.25
1435.69785286029	1776.25
1438.18282550555	1850.25
1440.66703845276	1840.75
1443.15049206284	1799.75
1445.6331866963	1732
1448.11512271316	1710
1450.59630047298	1722.5
1453.07672033486	1711
1455.55638265748	1733.5
1458.03528779902	1767
1460.51343611725	1753.75
1462.99082796946	1765.5
1465.46746371252	1730.5
1467.94334370285	1706.5
1470.41846829642	1668.75
1472.89283784878	1650.25
1475.36645271503	1639.75
1477.83931324984	1613.25
1480.31141980743	1631
1482.78277274164	1620.25
1485.25337240583	1618
1487.72321915297	1621.25
1490.19231333557	1624.5
1492.66065530577	1595.5
1495.12824541525	1631.75
1497.5950840153	1638.75
1500.06117145678	1631
1502.52650809014	1645
1504.99109426543	1628
1507.45493033228	1658.25
1509.91801663992	1664
1512.38035353717	1683.5
1514.84194137248	1677.25
1517.30278049386	1659
1519.76287124895	1657.5
1522.22221398497	1710.75
1524.68080904877	1700.75
1527.13865678681	1703
1529.59575754514	1743.5
1532.05211166946	1745
1534.50771950503	1757.25
1536.96258139678	1794.5
1539.41669768925	1758.75
1541.87006872656	1761.75
1544.32269485252	1785.75
1546.77457641051	1801
1549.22571374357	1824.5
1551.67610719434	1804.25
1554.12575710513	1830.75
1556.57466381786	1845.75
1559.02282767408	1838.5
1561.470249015	1848.75
1563.91692818144	1869.25
1566.3628655139	1884
1568.80806135249	1889.25
1571.252516037	1868
1573.6962299068	1909
1576.139203301	1882.75
1578.58143655828	1919.75
1581.02293001704	1942.25
1583.46368401528	1932
1585.90369889071	1943
1588.34297498065	1934.75
1590.7815126221	1949
1593.21931215174	1972
1595.65637390588	1942.25
1598.09269822053	1942.5
1600.52828543135	1980.25
1602.96313587367	1993.5
1605.3972498825	1966.5
1607.83062779252	1969.25
1610.26326993808	1985.25
1612.69517665322	1983.75
1615.12634827165	1990.75
1617.55678512676	2006.75
1619.98648755164	1982.25
1622.41545587903	2009.5
1624.84369044138	2017.75
1627.27119157085	2001.5
1629.69795959924	2013
1632.12399485809	1992.75
1634.54929767859	2060
1636.97386839165	2023
1639.39770732789	2035
1641.8208148176	2052
1644.24319119078	2061
1646.66483677715	2058
1649.08575190611	2098
1651.50593690677	2068.5
1653.92539210795	2116.75
1656.3441178382	2093.75
1658.76211442575	2118.25
1661.17938219855	2124.75
1663.59592148428	2136
1666.01173261033	2138
1668.42681590377	2147.5
1670.84117169145	2140.25
1673.25480029991	2140.5
1675.66770205541	2164
1678.07987728393	2163.75
1680.49132631119	2202.75
1682.90204946263	2177
1685.31204706342	2192.75
1687.72131943847	2214.5
1690.1298669124	2222.25
1692.53768980957	2246.75
1694.94478845411	2241.75
1697.35116316982	2272.75
1699.75681428031	2229
1702.16174210887	2250
1704.56594697858	2228.25
1706.96942921222	2258
1709.37218913235	2285.5
1711.77422706126	2258
1714.17554332098	2240.75
1716.57613823331	2268.75
1718.97601211977	2245.75
1721.37516530169	2271.75
1723.77359810006	2256.75
1726.17131083573	2265.75
1728.56830382922	2279
1730.96457740087	2301
1733.36013187075	2269.75
1735.75496755868	2276
1738.14908478428	2306.75
1740.54248386689	2276.5
1742.93516512566	2278.75
1745.32712887946	2284.25
1747.71837544697	2275
1750.10890514662	2285.5
1752.49871829661	2293.25
1754.88781521492	2309.25
1757.27619621929	2290.25
1759.66386162726	2339.75
1762.05081175613	2352.5
1764.43704692297	2307.25
1766.82256744465	2324.5
1769.20737363782	2344.5
1771.59146581888	2328.75
1773.97484430405	2389.75
1776.35750940932	2360.5
1778.73946145048	2369.25
1781.12070074309	2366.5
1783.50122760249	2402
1785.88104234385	2387.5
1788.26014528209	2405.25
1790.63853673197	2405.5
1793.01621700796	2407.5
1795.39318642444	2408.75
1797.76944529549	2413.25
1800.14499393504	2398.5
1802.51983265681	2395.25
1804.8939617743	2422.75
1807.26738160085	2438
1809.64009244957	2456.25
1812.01209463339	2433.5
1814.38338846504	2497
1816.75397425706	2465.25
1819.12385232181	2490.5
1821.49302297142	2482
1823.86148651789	2464.75
1826.22924327299	2453
1828.59629354831	2493.25
1830.96263765526	2494
1833.32827590507	2473.5
1835.69320860877	2498.5
1838.05743607724	2528.25
1840.42095862113	2505.25
1842.78377655097	2502.25
1845.14589017707	2517.5
1847.50729980956	2495.25
1849.86800575843	2506
1852.22800833346	2483.5
1854.58730784427	2510
1856.94590460032	2467
1859.30379891087	2502
1861.66099108503	2515.25
1864.01748143175	2534.75
1866.37327025978	2514.5
1868.72835787773	2532
1871.08274459404	2567
1873.43643071697	2558.25
1875.78941655464	2592.5
1878.14170241499	2549.5
1880.4932886058	2552.5
1882.84417543469	2550
1885.19436320915	2565.75
1887.54385223646	2580
1889.89264282378	2597.5
1892.24073527809	2582.75
1894.58812990625	2618.5
1896.93482701494	2640.25
1899.28082691067	2614.75
1901.62612989985	2675
1903.97073628868	2651.5
1906.31464638326	2651.25
1908.6578604895	2673
1911.00037891321	2683.5
1913.34220196001	2705.5
1915.68332993538	2686.5
1918.02376314468	2720.5
1920.36350189311	2709.25
1922.70254648573	2725.5
1925.04089722744	2723.25
1927.37855442304	2722
1929.71551837715	2713.5
1932.05178939427	2719.25
1934.38736777876	2744.75
1936.72225383484	2725.25
1939.0564478666	2732.75
1941.38995017799	2727.25
1943.72276107283	2750.25
1946.05488085479	2744.25
1948.38630982744	2720.5
1950.71704829419	2760.75
1953.04709655832	2737.75
1955.376454923	2728.75
1957.70512369126	2749
1960.03310316599	2744.25
1962.36039364999	2718.25
1964.68699544589	2741
1967.01290885622	2738.25
1969.33813418338	2723.75
1971.66267172965	2764.5
1973.98652179718	2749
1976.309684688	2750.5
1978.63216070402	2747
1980.95395014705	2780.5
1983.27505331873	2748.75
1985.59547052064	2736
1987.9152020542	2767.75
1990.23424822074	2756
1992.55260932146	2742
1994.87028565746	2760.5
1997.18727752968	2762
1999.50358523901	2802.5
2001.81920908618	2772
2004.13414937184	2775
2006.44840639651	2807.75
2008.7619804606	2818.5
2011.07487186442	2787
2013.38708090815	2824.75
2015.6986078919	2829.25
2018.00945311564	2847.25
2020.31961687924	2842.5
2022.62909948247	2900.5
2024.93790122499	2880.75
2027.24602240636	2888.75
2029.55346332604	2902
2031.86022428337	2891.25
2034.16630557761	2894.25
2036.47170750791	2912.75
2038.77643037331	2888
2041.08047447275	2916.5
2043.38384010509	2887.75
2045.68652756907	2894.75
2047.98853716335	2915.75
2050.28986918648	2939.25
2052.59052393692	2942.5
2054.89050171302	2927.75
2057.18980281307	2910.25
2059.4884275352	2942.25
2061.78637617753	2938.75
2064.08364903802	2947.5
2066.38024641457	2911
2068.67616860497	2963
2070.97141590694	2931.5
2073.26598861809	2913.25
2075.55988703595	2902
2077.85311145796	2945.25
2080.14566218145	2940
2082.43753950371	2962
2084.72874372188	2951
2087.01927513307	2925.25
2089.30913403428	2939
2091.59832072241	2916.25
2093.88683549429	2946.5
2096.17467864666	2939
2098.46185047619	2993.25
2100.74835127944	2980
2103.03418135292	2975.5
2105.31934099303	2964.5
2107.6038304961	2968.75
2109.88765015838	3002
2112.17080027602	3009
2114.45328114513	3014.75
2116.7350930617	3022.5
2119.01623632165	3010.75
2121.29671122085	3000.25
2123.57651805505	3033.75
2125.85565711996	3022.25
2128.13412871117	3019.75
2130.41193312424	3038
2132.68907065462	3080.25
2134.96554159771	3065.75
2137.24134624881	3045
2139.51648490317	3086.5
2141.79095785594	3054.75
2144.0647654022	3103
2146.33790783698	3089.75
2148.61038545524	3055.5
2150.88219855182	3100.25
2153.15334742154	3078.5
2155.42383235911	3112.75
2157.69365365921	3103
2159.9628116164	3066.5
2162.23130652522	3091.75
2164.49913868011	3111.5
2166.76630837544	3098.5
2169.03281590553	3109
2171.29866156461	3122.75
2173.56384564685	3132.25
2175.82836844637	3134.75
2178.0922302572	3155
2180.35543137332	3132.5
2182.61797208862	3127.75
2184.87985269695	3126.5
2187.14107349208	3104.5
2189.40163476773	3085.5
2191.66153681753	3148
2193.92077993507	3101.5
2196.17936441386	3088
2198.43729054735	3115.75
2200.69455862894	3115.5
2202.95116895194	3130
2205.20712180963	3114.5
2207.4624174952	3121.25
2209.71705630179	3100
2211.97103852248	3100.25
2214.22436445031	3105.5
2216.47703437819	3084.5
2218.72904859905	3108
2220.98040740571	3110.25
2223.23111109096	3113
2225.4811599475	3055
2227.730554268	3129.75
2229.97929434505	3076.5
2232.22738047118	3097.5
2234.47481293889	3088
2236.72159204058	3120.5
2238.96771806864	3118.75
2241.21319131537	3117
2243.458012073	3087.75
2245.70218063374	3084
2247.94569728973	3116.5
2250.18856233304	3107.25
2252.4307760557	3084.75
2254.67233874967	3054.25
2256.91325070687	3068.75
2259.15351221915	3069
2261.39312357831	3071.75
2263.63208507611	3066
2265.87039700422	3063.75
2268.1080596543	3079.75
2270.34507331792	3071.5
2272.5814382866	3075.5
2274.81715485183	3068.75
2277.05222330502	3081.75
2279.28664393755	3094
2281.52041704073	3067.25
2283.75354290581	3058
2285.98602182401	3061.25
2288.21785408649	3053
2290.44903998434	3081.25
2292.67957980862	3064.5
2294.90947385033	3046
2297.1387224004	3048
2299.36732574976	3036.75
2301.59528418921	3015.5
2303.82259800958	3022.75
2306.04926750158	2993.25
2308.27529295593	3040.25
2310.50067466325	3011.75
2312.72541291412	3048.5
2314.9495079991	2977.5
2317.17296020866	2973.75
2319.39576983324	3057.25
2321.61793716322	2995.75
2323.83946248895	2992.5
2326.0603461007	2993.75
2328.28058828871	2996
2330.50018934317	2979
2332.7191495542	2965.75
2334.93746921192	2973.5
2337.15514860633	2963.25
2339.37218802743	2976.5
2341.58858776516	2951.75
2343.80434810941	2931.5
2346.01946935001	2948.75
2348.23395177676	2923.5
2350.44779567939	2921.25
2352.66100134759	2943
2354.87356907102	2958
2357.08549913925	2883.5
2359.29679184185	2923.75
2361.50744746829	2948.75
2363.71746630804	2933
2365.92684865049	2891.75
2368.13559478499	2888.5
2370.34370500083	2896.25
2372.55117958727	2899.75
2374.75801883353	2899
2376.96422302874	2873.5
2379.16979246202	2922.75
2381.37472742244	2868.25
2383.57902819898	2870
2385.78269508063	2850.75
2387.98572835629	2891.5
2390.18812831482	2852.75
2392.38989524505	2843
2394.59102943573	2851.75
2396.79153117559	2827.75
2398.9914007533	2836.5
2401.19063845748	2801.5
2403.38924457672	2832.25
2405.58721939951	2810.75
2407.78456321435	2771
2409.98127630966	2817.5
2412.17735897383	2799.75
2414.37281149518	2774.25
2416.56763416198	2786.25
2418.76182726249	2773.75
2420.95539108487	2777.25
2423.14832591726	2763.25
2425.34063204776	2755
2427.53230976439	2757
2429.72335935513	2767.75
2431.91378110795	2750.5
2434.10357531071	2768.5
2436.29274225126	2780.25
2438.48128221739	2730.25
2440.66919549684	2735
2442.8564823773	2736.75
2445.04314314641	2760.25
2447.22917809176	2737
2449.4145875009	2698.25
2451.59937166131	2742.75
2453.78353086044	2713.75
2455.96706538567	2682
2458.14997552437	2686
2460.33226156379	2671.5
2462.51392379119	2667
2464.69496249376	2646.5
2466.87537795862	2666.75
2469.05517047288	2662
2471.23434032358	2667.25
2473.41288779767	2659.5
2475.59081318212	2672.25
2477.76811676378	2625.25
2479.9447988295	2621
2482.12085966605	2631.5
2484.29629956016	2626.75
2486.4711187985	2617.75
2488.64531766769	2620.5
2490.8188964543	2622.5
2492.99185544484	2615
2495.16419492579	2602.25
2497.33591518353	2630
2499.50701650444	2579.75
2501.67749917482	2598.5
2503.84736348091	2566.5
2506.01660970891	2586
2508.18523814496	2582.5
2510.35324907515	2613
2512.52064278551	2603.25
2514.68741956201	2587
2516.85357969058	2598
2519.01912345709	2605.5
2521.18405114735	2594
2523.34836304711	2555
2525.51205944209	2592
2527.6751406179	2567.25
2529.83760686016	2564.5
2531.99945845439	2584.75
2534.16069568607	2571.25
2536.3213188406	2580.75
2538.48132820336	2575
2540.64072405965	2558.75
2542.79950669471	2578.25
2544.95767639373	2559.75
2547.11523344184	2555.25
2549.27217812411	2555
2551.42851072555	2544
2553.58423153111	2540.25
2555.7393408257	2541.25
2557.89383889413	2571
2560.04772602119	2558
2562.20100249158	2535.5
2564.35366858996	2563.25
2566.50572460093	2519.5
2568.65717080901	2527
2570.80800749867	2538
2572.95823495433	2538
2575.10785346031	2521.5
2577.25686330093	2524.25
2579.40526476038	2488.5
2581.55305812282	2510
2583.70024367237	2488.75
2585.84682169303	2465.5
2587.99279246879	2500.5
2590.13815628354	2447.75
2592.28291342112	2485
2594.42706416531	2467.25
2596.57060879981	2453
2598.71354760826	2483
2600.85588087425	2479.5
2602.99760888127	2468
2605.13873191278	2446.5
2607.27925025215	2456.5
2609.41916418269	2436.5
2611.55847398764	2450.5
2613.69717995017	2427.75
2615.8352823534	2456
2617.97278148034	2453
2620.10967761398	2453.75
2622.2459710372	2431.25
2624.38166203284	2434.25
2626.51675088365	2447.75
2628.65123787232	2426.75
2630.78512328145	2450.75
2632.9184073936	2409.75
2635.05109049124	2447.25
2637.18317285676	2436.5
2639.31465477249	2462.25
2641.44553652067	2469.25
2643.5758183835	2447
2645.70550064309	2451.5
2647.83458358144	2444
2649.96306748053	2464
2652.09095262224	2449.25
2654.21823928836	2464.75
2656.34492776063	2455
2658.47101832071	2450.25
2660.59651125015	2462.5
2662.72140683047	2429
2664.84570534309	2420.5
2666.96940706935	2436.25
2669.0925122905	2396.5
2671.21502128773	2414.75
2673.33693434216	2445.25
2675.45825173479	2429
2677.57897374658	2446
2679.6991006584	2462.75
2681.81863275101	2423.25
2683.93757030512	2454
2686.05591360133	2436.5
2688.17366292021	2437
2690.29081854218	2449.75
2692.40738074762	2438.25
2694.52334981681	2458.25
2696.63872602995	2471
2698.75350966714	2480.5
2700.86770100842	2454.5
2702.98130033372	2464.25
2705.09430792289	2497.5
2707.20672405572	2529.5
2709.31854901185	2544.75
2711.42978307091	2514.5
2713.54042651238	2564.5
2715.65047961567	2589
2717.7599426601	2582.5
2719.86881592492	2634.5
2721.97709968924	2604.25
2724.08479423213	2573.75
2726.19189983255	2593
2728.29841676935	2554.5
2730.40434532131	2570.75
2732.5096857671	2520.75
2734.61443838532	2484
2736.71860345444	2480.5
2738.82218125287	2465
2740.92517205889	2478.75
2743.02757615073	2440.25
2745.12939380646	2457.5
2747.23062530411	2427.25
2749.33127092159	2423
2751.4313309367	2410
2753.53080562717	2470.75
2755.62969527058	2462.25
2757.72800014448	2419.75
2759.82572052625	2433.25
2761.92285669323	2414.5
2764.0194089226	2468.75
2766.11537749147	2425
2768.21076267686	2465.25
2770.30556475566	2437.25
2772.39978400465	2454.75
2774.49342070054	2429
2776.58647511991	2426
2778.67894753923	2440
2780.77083823487	2419.75
2782.8621474831	2425.25
2784.95287556007	2408.25
2787.04302274184	2427.75
2789.13258930433	2453.75
2791.22157552338	2402.75
2793.30998167471	2419.75
2795.39780803392	2428
2797.48505487651	2432.25
2799.57172247786	2447.5
2801.65781111324	2433.5
2803.74332105781	2446.25
2805.82825258661	2438.75
2807.91260597457	2457
2809.9963814965	2465
2812.07957942711	2469.75
2814.16220004096	2488
2816.24424361252	2480.25
2818.32571041614	2502.75
2820.40660072604	2520.75
2822.48691481632	2610
2824.56665296098	2604.5
2826.64581543388	2659.75
2828.72440250876	2772.25
2830.80241445925	2869.5
2832.87985155885	3078.75
2834.95671408094	3350.75
2837.03300229875	3722.25
2839.10871648544	4116
2841.18385691399	4700.25
2843.25842385729	5226.25
2845.33241758808	5534
2847.40583837899	5680.25
2849.4786865025	5557.75
2851.550962231	5252
2853.6226658367	5063.25
2855.69379759174	4771.5
2857.76435776806	4584
2859.83434663753	4410.25
2861.90376447184	4279.5
2863.97261154259	4210.75
2866.04088812121	4184.5
2868.10859447901	4220.5
2870.17573088717	4275.75
2872.24229761673	4378.75
2874.30829493859	4705.75
2876.37372312353	5195.5
2878.43858244215	6084.75
2880.50287316496	6770
2882.56659556231	6457.5
2884.6297499044	5621
2886.69233646129	4921.25
2888.75435550293	4619.75
2890.81580729909	4500
2892.87669211941	4409
2894.9370102334	4330.5
2896.99676191039	4313
2899.05594741961	4265.25
2901.11456703011	4155.25
2903.1726210108	4043.25
2905.23010963045	3944.25
2907.28703315768	3855.75
2909.34339186096	3756.75
2911.39918600861	3736.5
2913.45441586879	3650.5
2915.50908170953	3620.5
2917.56318379867	3553
2919.61672240395	3598
2921.66969779291	3576
2923.72211023296	3579.5
2925.77395999134	3564.25
2927.82524733515	3557.25
2929.87597253133	3570.25
2931.92613584663	3482
2933.9757375477	3372.75
2936.02477790097	3303.5
2938.07325717276	3230
2940.1211756292	3164
2942.16853353626	3076
2944.21533115977	2986
2946.26156876536	2855.75
2948.30724661853	2811.5
2950.3523649846	2762.5
2952.39692412872	2768.75
2954.44092431587	2701.5
2956.4843658109	2679
2958.52724887843	2742.75
2960.56957378296	2698.5
2962.6113407888	2647.25
2964.65255016011	2660.75
2966.69320216083	2641.5
2968.73329705479	2643.25
2970.77283510559	2670.75
2972.81181657671	2638
2974.85024173141	2641.75
2976.88811083279	2667.5
2978.92542414379	2645.25
2980.96218192714	2643.25
2982.99838444541	2653.75
2985.034031961	2638.75
2987.06912473612	2659
2989.1036630328	2625.75
2991.13764711289	2622
2993.17107723804	2621.5
2995.20395366975	2630.25
2997.23627666931	2638.75
2999.26804649782	2631.25
3001.29926341624	2661
3003.32992768528	2659.5
3005.3600395655	2660.75
3007.38959931727	2634.25
3009.41860720076	2654.25
3011.44706347595	2701.25
3013.47496840263	2678.25
3015.50232224042	2687
3017.5291252487	2684.25
3019.5553776867	2668
3021.58107981344	2695.5
3023.60623188773	2690.5
3025.63083416822	2687.75
3027.65488691331	2704
3029.67839038125	2694.5
3031.70134483007	2676
3033.72375051759	2713.75
3035.74560770145	2726.25
3037.76691663907	2750.25
3039.78767758768	2734.75
3041.80789080431	2727.25
3043.82755654577	2711.5
3045.84667506867	2713.5
3047.8652466294	2722.25
3049.88327148418	2744.5
3051.90074988899	2721
3053.91768209961	2713.5
3055.93406837161	2711.25
3057.94990896033	2718.75
3059.96520412095	2719.75
3061.97995410838	2748
3063.99415917734	2731.25
3066.00781958234	2726.75
3068.02093557766	2730.25
3070.03350741738	2692.75
3072.04553535535	2725.75
3074.05701964521	2731
3076.06796054036	2759
3078.07835829401	2718.25
3080.08821315912	2743.5
3082.09752538846	2743
3084.10629523454	2714.25
3086.11452294967	2726.75
3088.12220878592	2706
3090.12935299515	2712.5
3092.13595582898	2692.25
3094.1420175388	2705.5
3096.1475383758	2748.25
3098.15251859088	2757.25
3100.15695843477	2706.25
3102.16085815793	2679.5
3104.16421801062	2711.75
3106.16703824282	2710
3108.16931910432	2721.25
3110.17106084464	2712.75
3112.17226371308	2714.75
3114.17292795872	2724.75
3116.17305383034	2717.5
3118.17264157657	2726.75
3120.17169144571	2718.75
3122.17020368587	2735.5
3124.16817854492	2763.5
3126.16561627044	2734
3128.16251710982	2740
3130.15888131017	2779.5
3132.15470911837	2752.75
3134.15000078104	2760
3136.14475654455	2770
3138.13897665502	2773.5
3140.13266135835	2767.75
3142.12581090015	2776
3144.11842552578	2774.75
3146.11050548036	2756.75
3148.10205100875	2778.5
3150.09306235557	2789.5
3152.08353976515	2762
3154.07348348158	2738.25
3156.06289374869	2784
3158.05177081006	2765.5
3160.04011490899	2776.75
3162.02792628852	2822.75
3164.01520519145	2797.25
3166.00195186029	2782
3167.98816653728	2790.75
3169.97384946442	2761.25
3171.95900088344	2784.25
3173.94362103577	2774.25
3175.9277101626	2796.5
3177.91126850484	2803.5
3179.89429630312	2777.75
3181.87679379782	2766
3183.85876122904	2825
3185.84019883657	2783.5
3187.82110685997	2809.75
3189.80148553851	2782.5
3191.78133511116	2818.5
3193.76065581664	2822
3195.73944789337	2820.75
3197.7177115795	2808.5
3199.6954471129	2798.75
3201.67265473114	2825
3203.64933467153	2803.75
3205.62548717107	2818.75
3207.60111246649	2789.5
3209.57621079422	2819.25
3211.55078239041	2804
3213.52482749093	2797.5
3215.49834633133	2815.5
3217.4713391469	2866.5
3219.44380617262	2797.5
3221.41574764318	2847
3223.38716379296	2803.25
3225.35805485607	2830.75
3227.32842106631	2841.25
3229.29826265718	2845.75
3231.26757986187	2848.75
3233.2363729133	2873
3235.20464204405	2869.25
3237.17238748644	2854.75
3239.13960947243	2838.75
3241.10630823374	2843
3243.07248400174	2850.5
3245.03813700748	2853
3247.00326748177	2872.5
3248.96787565503	2882.5
3250.93196175742	2896.75
3252.89552601877	2863.5
3254.8585686686	2827.5
3256.82108993612	2860.75
3258.78309005022	2887
3260.74456923948	2856
3262.70552773215	2894.25
3264.66596575617	2890.75
3266.62588353916	2879
3268.58528130843	2865.25
3270.54415929094	2850.25
3272.50251771336	2859.25
3274.46035680202	2881.5
3276.4176767829	2919
3278.37447788171	2898
3280.33076032379	2906.5
3282.28652433416	2864.75
3284.24177013751	2902.75
3286.1964979582	2879.5
3288.15070802027	2914.75
3290.10440054741	2880.5
3292.05757576298	2851
3294.01023389001	2885.5
3295.96237515119	2898.25
3297.91399976887	2905
3299.86510796506	2914.75
3301.81569996143	2900.25
3303.76577597932	2885.75
3305.71533623971	2898.75
3307.66438096325	2879.75
3309.61291037024	2917.25
3311.56092468063	2907.5
3313.50842411404	2858.5
3315.45540888971	2904.75
3317.40187922656	2883
3319.34783534315	2893.5
3321.29327745768	2873
3323.23820578801	2857.5
3325.18262055164	2873
3327.1265219657	2865.25
3329.06991024699	2885
3331.01278561194	2858.75
3332.95514827663	2850.25
3334.89699845675	2881.75
3336.83833636766	2899.75
3338.77916222434	2856
3340.71947624143	2895.25
3342.65927863317	2887.5
3344.59856961347	2844
3346.53734939584	2884.25
3348.47561819344	2839.5
3350.41337621907	2856.5
3352.35062368513	2849
3354.28736080368	2811.75
3356.22358778637	2852.75
3358.15930484452	2842.25
3360.09451218904	2841.75
3362.02921003047	2874.75
3363.96339857899	2867
3365.89707804437	2885
3367.83024863603	2831.75
3369.76291056299	2853.5
3371.69506403389	2838
3373.62670925699	2844.5
3375.55784644016	2867.5
3377.4884757909	2876
3379.41859751629	2849.75
3381.34821182305	2874.25
3383.27731891749	2866.25
3385.20591900555	2834.75
3387.13401229276	2893.5
3389.06159898426	2871.5
3390.9886792848	2890.5
3392.91525339872	2908.75
3394.84132152998	2893.25
3396.76688388213	2872.25
3398.69194065834	2863.25
3400.61649206133	2880
3402.54053829348	2869
3404.46407955672	2862.75
3406.3871160526	2862
3408.30964798225	2886.75
3410.23167554639	2875.75
3412.15319894535	2892.75
3414.07421837904	2887
3415.99473404695	2874.25
3417.91474614817	2887.75
3419.83425488136	2889.25
3421.7532604448	2888.25
3423.67176303631	2877
3425.58976285332	2850
3427.50726009283	2858
3429.42425495143	2858.75
3431.34074762528	2885
3433.25673831012	2856
3435.17222720127	2850.5
3437.08721449362	2845.5
3439.00170038164	2834.25
3440.91568505936	2851.75
3442.8291687204	2808.75
3444.74215155792	2854.25
3446.65463376469	2849.5
3448.566615533	2842.25
3450.47809705476	2865.75
3452.3890785214	2843.25
3454.29956012393	2855.25
3456.20954205293	2826.5
3458.11902449853	2854.5
3460.02800765042	2867.5
3461.93649169784	2863
3463.84447682962	2820.5
3465.75196323412	2842.25
3467.65895109925	2851.5
3469.56544061249	2867
3471.47143196086	2799.75
3473.37692533094	2798.5
3475.28192090884	2815
3477.18641888026	2857.75
3479.09041943039	2824
3480.99392274402	2819.75
3482.89692900545	2837.75
3484.79943839853	2827.5
3486.70145110666	2817
3488.60296731277	2847
3490.50398719933	2810.5
3492.40451094836	2813.75
3494.30453874141	2804
3496.20407075956	2825.25
3498.10310718342	2842
3500.00164819315	2805