201.866871357051	5969
204.754250281454	6031.25
207.640596790938	5994.5
210.525911876299	6042.75
213.410196525689	6002.5
216.293451724508	6039.75
219.175678455485	6032.5
222.056877698662	6075
224.937050431388	6085.25
227.816197628363	6143.75
230.694320261602	6090.5
233.571419300504	6164.25
236.447495711764	6178.25
239.322550459507	6262.5
242.196584505182	6257.75
245.069598807626	6245.25
247.941594323078	6251.25
250.812572005154	6308.5
253.682532804884	6314.25
256.551477670699	6315.25
259.419407548456	6368
262.286323381439	6329.75
265.152226110364	6408.75
268.017116673389	6412.5
270.880996006115	6412
273.743865041622	6441.5
276.605724710436	6431.5
279.466575940562	6466.5
282.326419657496	6522
285.1852567842	6474.25
288.043088241157	6561
290.899914946349	6556.5
293.75573781526	6557.75
296.610557760898	6581
299.464375693817	6613.75
302.317192522078	6693.75
305.169009151297	6665.5
308.019826484655	6651.5
310.86964542287	6669.25
313.718466864233	6656.75
316.566291704614	6692.5
319.413120837457	6716.25
322.258955153804	6716.75
325.103795542291	6687.5
327.947642889128	6780
330.79049807819	6667.25
333.632361990927	6712.75
336.473235506444	6711.5
339.31311950145	6780
342.152014850322	6707.75
344.989922425062	6817
347.826843095354	6822.25
350.662777728528	6834
353.497727189577	6928.5
356.331692341195	6899.75
359.164674043732	6979.5
361.996673155267	6960.75
364.827690531536	7057.5
367.65772702602	7004.75
370.486783489887	6937.25
373.314860772047	6970.5
376.14195971912	7032
378.968081175466	6967.75
381.793225983212	6960.5
384.617394982201	6989.25
387.44058901005	6945
390.262808902131	6982
393.08405549161	6924.75
395.904329609395	6910.25
398.723632084213	6964.5
401.541963742569	6975.75
404.359325408779	6971
407.175717904938	6996.5
409.991142050982	7045.25
412.805598664665	6987.5
415.619088561551	7005.25
418.43161255505	7025
421.243171456415	6999.25
424.053766074758	7077.25
426.863397217017	7123
429.672065688024	7060
432.479772290455	7123.5
435.286517824879	7118.25
438.092303089736	7145.75
440.897128881359	7135.25
443.70099599399	7145.75
446.503905219761	7225
449.305857348711	7147
452.106853168796	7149.5
454.906893465919	7112.75
457.705979023885	7108
460.504110624439	7160.25
463.3012890473	7132.75
466.097515070087	7166
468.892789468424	7126.75
471.687113015869	7074
474.48048648395	7146.5
477.272910642198	7139
480.064386258109	7139
482.854914097159	7145.75
485.644494922839	7207
488.433129496636	7251.75
491.220818578047	7251.25
494.007562924584	7243.5
496.793363291785	7284.5
499.578220433217	7313.25
502.362135100473	7301.75
505.145108043209	7318
507.927140009098	7328.75
510.708231743909	7349
513.488383991433	7373.5
516.267597493556	7362.25
519.04587299022	7352
521.82321121946	7367.25
524.599612917398	7397.5
527.375078818233	7401.5
530.149609654287	7335.5
532.923206155967	7338
535.695869051804	7330
538.467599068448	7317.5
541.238396930665	7311
544.008263361364	7222.25
546.777199081578	7333
549.545204810493	7278.75
552.312281265436	7302.25
555.078429161898	7316.5
557.843649213533	7373.25
560.607942132156	7273
563.371308627753	7317
566.133749408495	7274.25
568.895265180756	7413.25
571.655856649064	7419.25
574.415524516189	7394.25
577.174269483075	7424.75
579.932092248884	7462
582.688993510994	7478.25
585.444973965023	7417.5
588.200034304795	7495.75
590.95417522237	7506.5
593.70739740807	7486.75
596.459701550433	7528.25
599.21108833628	7541.25
601.961558450668	7542.5
604.711112576933	7569.5
607.459751396673	7600.25
610.207475589748	7535.75
612.954285834338	7592.5
615.700182806879	7579
618.445167182101	7555.75
621.189239633055	7549.75
623.932400831087	7594.5
626.674651445839	7592
629.415992145303	7584
632.156423595745	7616.25
634.895946461813	7585.75
637.634561406449	7613.5
640.37226909096	7626.25
643.109070174978	7612.25
645.844965316508	7653.75
648.579955171888	7607.5
651.314040395846	7591.25
654.047221641456	7467.75
656.779499560176	7550.25
659.510874801828	7556
662.241348014642	7498
664.97091984524	7571.5
667.699590938606	7538.25
670.427361938164	7566
673.15423348573	7573.75
675.880206221526	7696.25
678.605280784206	7705.5
681.329457810829	7733
684.05273793692	7687.25
686.775121796389	7733.75
689.49661002163	7641.5
692.217203243454	7674
694.936902091144	7749.5
697.655707192425	7719
700.373619173493	7677.25
703.09063865901	7676.75
705.806766272093	7647.5
708.522002634378	7631.75
711.236348365946	7580.25
713.94980408538	7604
716.662370409762	7545.25
719.374047954676	7514.25
722.08483733419	7476
724.794739160909	7527.5
727.503754045949	7505.75
730.21188259892	7537
732.919125427998	7548.5
735.625483139855	7573.5
738.330956339723	7544.75
741.035545631374	7588.75
743.739251617106	7583.5
746.44207489779	7629.75
749.144016072852	7613.25
751.845075740272	7683.5
754.545254496603	7666.5
757.244552936976	7718.25
759.94297165508	7658
762.640511243222	7687.75
765.337172292249	7632.5
768.032955391649	7682.25
770.727861129482	7683.75
773.421890092413	7639.5
776.11504286572	7637.25
778.807320033298	7712.25
781.49872217765	7664.25
784.18924987991	7601.5
786.87890371984	7563.75
789.567684275826	7633.75
792.255592124908	7594.5
794.94262784276	7573
797.628792003703	7620.5
800.314085180715	7508
802.998507945427	7616.75
805.682060868145	7599
808.364744517821	7670
811.046559462105	7681.75
813.727506267311	7636.5
816.407585498422	7664
819.08679771913	7657.75
821.765143491822	7696.5
824.442623377563	7757.5
827.119237936127	7767.25
829.794987726003	7742
832.469873304377	7744.25
835.143895227167	7721.75
837.817054048985	7742
840.489350323205	7760.5
843.160784601892	7803.5
845.831357435894	7825
848.501069374739	7826
851.169920966753	7849.25
853.837912758987	7850.25
856.505045297232	7898.25
859.171319126071	7923
861.836734788823	7845.75
864.501292827579	7905.5
867.164993783208	7864.75
869.827838195361	7800
872.489826602454	7819
875.150959541701	7883.25
877.811237549104	7833.75
880.470661159456	7876.5
883.129230906357	7782.5
885.786947322205	7771.25
888.443810938206	7789.5
891.099822284385	7798.75
893.754981889586	7812.5
896.409290281452	7829.25
899.062747986485	7902.25
901.715355529999	7897.75
904.367113436154	7821
907.01802222793	7882.25
909.668082427172	7836.75
912.317294554574	7887.25
914.965659129659	7929.5
917.613176670835	7922
920.259847695364	7949.5
922.90567271936	7901.25
925.550652257825	7972.5
928.194786824621	7933.5
930.838076932512	7925
933.480523093109	7932.75
936.122125816953	7936.75
938.762885613447	8021.25
941.402802990899	8057.25
944.041878456523	8075
946.680112516428	8065.5
949.31750567563	7972.5
951.954058438081	8058.25
954.589771306633	8072.5
957.224644783048	8075.75
959.858679368044	8047.25
962.491875561238	7997
965.12423386121	8072.5
967.75575476545	8072.25
970.386438770423	8021.75
973.016286371501	8067
975.645298063046	7972
978.273474338355	8058.75
980.900815689674	8041.25
983.527322608243	7995
986.152995584245	8097.75
988.777835106834	8044.25
991.401841664148	8078.5
994.025015743307	8092
996.647357830407	8096.5
999.268868410534	8069.75
1001.88954796777	8096.25
1004.50939698518	8130.25
1007.12841594484	8141
1009.74660532783	8147.75
1012.36396561423	8244
1014.98049728314	8146
1017.59620081267	8125.75
1020.21107667995	8220
1022.82512536112	8194.25
1025.43834733138	8242.25
1028.05074306493	8281.25
1030.66231303501	8242.75
1033.27305771392	8257.25
1035.88297757299	8244.5
1038.49207308257	8308.75
1041.10034471211	8255.75
1043.70779293008	8327.75
1046.31441820402	8343.5
1048.92022100052	8297.75
1051.52520178525	8394.75
1054.12936102295	8356
1056.73269917742	8352.5
1059.33521671154	8382.75
1061.93691408729	8301
1064.53779176571	8337.75
1067.13785020694	8308
1069.73708987022	8346.25
1072.33551121386	8410.5
1074.93311469528	8328.25
1077.52990077103	8321.5
1080.12586989674	8320.75
1082.72102252714	8337.25
1085.31535911611	8337.25
1087.90888011663	8385.75
1090.50158598078	8409
1093.09347715979	8386.5
1095.68455410403	8395.5
1098.27481726296	8359.5
1100.86426708523	8381.25
1103.45290401857	8463
1106.04072850991	8414
1108.6277410053	8411.5
1111.21394194993	8399.75
1113.79933178816	8441.25
1116.3839109635	8461.75
1118.96767991862	8527.25
1121.55063909539	8489.75
1124.13278893477	8531
1126.71412987696	8557.75
1129.29466236132	8542.75
1131.87438682637	8603.5
1134.45330370982	8563.75
1137.03141344858	8590
1139.60871647872	8544.5
1142.18521323554	8566
1144.7609041535	8580.25
1147.33578966629	8554.25
1149.90987020676	8649.5
1152.48314620702	8606
1155.05561809835	8625
1157.62728631125	8597.25
1160.19815127545	8647.25
1162.76821341988	8683.25
1165.33747317271	8646.75
1167.90593096133	8644.25
1170.47358721235	8640.5
1173.04044235163	8650.5
1175.60649680425	8607.5
1178.17175099454	8605
1180.73620534607	8596.5
1183.29986028165	8614.5
1185.86271622336	8597.75
1188.42477359249	8608
1190.98603280964	8541.5
1193.54649429462	8601.75
1196.10615846653	8560.25
1198.66502574372	8572.5
1201.22309654385	8555.75
1203.78037128378	8532.25
1206.33685037971	8593
1208.89253424709	8559.75
1211.44742330063	8536.75
1214.00151795438	8564.75
1216.55481862163	8536
1219.10732571497	8558.25
1221.65903964631	8590
1224.20996082683	8582.25
1226.760089667	8570.5
1229.30942657664	8613.25
1231.85797196483	8638.75
1234.40572623998	8654
1236.95268980981	8662.75
1239.49886308136	8695.75
1242.04424646098	8677.25
1244.58884035435	8734.5
1247.13264516647	8763.75
1249.67566130166	8787.75
1252.21788916358	8713.75
1254.75932915524	8820
1257.29998167896	8859.25
1259.83984713639	8765.75
1262.37892592857	8922.5
1264.91721845586	8912.5
1267.45472511795	8917.75
1269.9914463139	8924
1272.52738244213	8972.75
1275.0625339004	8909.75
1277.59690108587	8986.75
1280.130484395	8964.75
1282.66328422367	8960.75
1285.19530096712	8961.5
1287.72653501993	9024.5
1290.25698677608	8987.5
1292.78665662894	9044.25
1295.31554497125	9008.75
1297.8436521951	8994
1300.37097869203	9005.75
1302.89752485292	9055.25
1305.42329106805	9035
1307.94827772713	9088.75
1310.47248521921	9057
1312.99591393279	9156.75
1315.51856425575	9165.5
1318.04043657536	9089
1320.56153127836	9181.75
1323.08184875083	9171.25
1325.6013893783	9174.25
1328.12015354572	9260.5
1330.63814163744	9253.5
1333.15535403727	9294.25
1335.67179112839	9378.75
1338.18745329347	9386.75
1340.70234091454	9325
1343.21645437314	9361
1345.72979405019	9403.25
1348.24236032607	9397.75
1350.75415358059	9499.5
1353.26517419303	9445.25
1355.7754225421	9465.5
1358.28489900594	9518.5
1360.79360396218	9603.25
1363.30153778787	9569
1365.80870085955	9476
1368.31509355319	9483.25
1370.82071624424	9514.5
1373.32556930762	9481
1375.8296531177	9481.75
1378.33296804832	9457.5
1380.83551447282	9486
1383.33729276399	9478.75
1385.83830329408	9405.25
1388.33854643489	9383
1390.83802255762	9392.5
1393.33673203301	9359.25
1395.83467523128	9385.5
1398.33185252211	9350.75
1400.82826427471	9352.25
1403.32391085777	9342
1405.81879263947	9433.25
1408.31290998752	9377
1410.80626326908	9332.75
1413.29885285087	9315.5
1415.79067909909	9384.25
1418.28174237944	9499.25
1420.77204305717	9505.5
1423.26158149702	9463.75
1425.75035806323	9553.75
1428.2383731196	9601.5
1430.72562702942	9593.75
1433.21212015554	9606.25
1435.69785286028	9656.5
1438.18282550555	9776
1440.66703845275	9776
1443.15049206284	9749.25
1445.6331866963	9743.75
1448.11512271316	9783.25
1450.59630047298	9806.75
1453.07672033486	9832.5
1455.55638265748	9778.75
1458.03528779902	9857.5
1460.51343611725	9827.25
1462.99082796946	9889.5
1465.46746371252	9890.25
1467.94334370285	9957.5
1470.41846829642	9826.75
1472.89283784878	9879.25
1475.36645271503	9932
1477.83931324983	9881.5
1480.31141980743	9884
1482.78277274164	9901.25
1485.25337240583	9861.75
1487.72321915297	9894.5
1490.19231333557	9863.5
1492.66065530578	9887.25
1495.12824541525	9849.5
1497.5950840153	9910.25
1500.06117145678	9824
1502.52650809014	9898
1504.99109426543	9865.75
1507.45493033227	9897.5
1509.91801663992	9809.75
1512.38035353717	9975.5
1514.84194137248	9975.25
1517.30278049386	9971.5
1519.76287124894	9956.5
1522.22221398497	9909.25
1524.68080904876	9964.75
1527.13865678681	9896.25
1529.59575754514	9997.75
1532.05211166945	10072.25
1534.50771950503	10051.25
1536.96258139678	10119.5
1539.41669768924	10162.25
1541.87006872656	10136.5
1544.32269485252	10170
1546.77457641051	10200.75
1549.22571374357	10273.75
1551.67610719434	10318.25
1554.12575710513	10299
1556.57466381785	10267
1559.02282767408	10276.5
1561.47024901499	10395.25
1563.91692818144	10460.5
1566.3628655139	10485
1568.80806135249	10518
1571.252516037	10493.5
1573.6962299068	10642.5
1576.13920330099	10553.25
1578.58143655828	10695.25
1581.02293001704	10699.25
1583.46368401528	10774.75
1585.90369889071	10705.5
1588.34297498065	10705.75
1590.7815126221	10754.25
1593.21931215173	10763.75
1595.65637390588	10771
1598.09269822053	10754.25
1600.52828543135	10773.75
1602.96313587367	10725.25
1605.3972498825	10740.75
1607.83062779252	10707.75
1610.26326993808	10758
1612.69517665322	10709.5
1615.12634827165	10715.25
1617.55678512676	10767.75
1619.98648755163	10756.25
1622.41545587902	10653.5
1624.84369044138	10687.5
1627.27119157085	10798.75
1629.69795959924	10786.5
1632.12399485808	10771.75
1634.54929767859	10797.75
1636.97386839165	10842.5
1639.39770732789	10782.5
1641.8208148176	10835.25
1644.24319119078	10881
1646.66483677715	10873.5
1649.0857519061	10937.25
1651.50593690677	10915.75
1653.92539210795	10962.75
1656.3441178382	10984.25
1658.76211442575	11019.25
1661.17938219855	11070.75
1663.59592148428	11172.5
1666.01173261032	11150
1668.42681590377	11269
1670.84117169145	11315
1673.25480029991	11234.5
1675.66770205541	11334.25
1678.07987728393	11460
1680.49132631119	11408.5
1682.90204946263	11419.25
1685.31204706342	11440.75
1687.72131943846	11637.25
1690.1298669124	11577
1692.53768980957	11656.75
1694.94478845411	11591
1697.35116316982	11592.75
1699.75681428031	11654.25
1702.16174210887	11618.25
1704.56594697858	11685.25
1706.96942921222	11738.25
1709.37218913235	11696
1711.77422706125	11710
1714.17554332098	11676.75
1716.5761382333	11803.5
1718.97601211977	11736
1721.37516530169	11709.25
1723.77359810006	11727.25
1726.17131083572	11720.25
1728.56830382922	11751.5
1730.96457740087	11770
1733.36013187075	11698.75
1735.75496755868	11702.5
1738.14908478428	11681.25
1740.54248386689	11738
1742.93516512565	11699.75
1745.32712887946	11775.75
1747.71837544697	11698
1750.10890514662	11812
1752.49871829661	11748
1754.88781521492	11835.75
1757.27619621929	11819
1759.66386162726	11875.75
1762.05081175612	11865.75
1764.43704692297	11944.25
1766.82256744465	11905
1769.20737363782	12078.25
1771.59146581887	11934.5
1773.97484430405	12113
1776.35750940932	12152.25
1778.73946145048	12094.25
1781.12070074309	12121.75
1783.50122760249	12137.5
1785.88104234385	12222.75
1788.26014528209	12253.25
1790.63853673196	12257
1793.01621700796	12236.5
1795.39318642443	12322.25
1797.76944529549	12298.25
1800.14499393503	12377
1802.51983265681	12313.25
1804.8939617743	12461.75
1807.26738160085	12501.5
1809.64009244957	12475.5
1812.01209463339	12414.5
1814.38338846504	12605.25
1816.75397425706	12486
1819.12385232181	12538
1821.49302297142	12603.5
1823.86148651789	12562.25
1826.22924327299	12505
1828.59629354831	12655.75
1830.96263765526	12546.25
1833.32827590507	12601.25
1835.69320860877	12630
1838.05743607724	12601
1840.42095862113	12688
1842.78377655097	12638.5
1845.14589017707	12536.5
1847.50729980956	12607
1849.86800575843	12598.25
1852.22800833346	12625.25
1854.58730784427	12763.25
1856.94590460032	12765.5
1859.30379891087	12772
1861.66099108503	12803.5
1864.01748143175	12881.75
1866.37327025978	12926.75
1868.72835787773	12850.75
1871.08274459403	12933.75
1873.43643071697	12930.25
1875.78941655464	13103.75
1878.14170241498	12946
1880.4932886058	13114.5
1882.84417543469	13151.75
1885.19436320915	13183.25
1887.54385223646	13134.5
1889.89264282378	13239
1892.24073527809	13288.25
1894.58812990625	13398.5
1896.93482701493	13510.5
1899.28082691067	13441.75
1901.62612989984	13601.25
1903.97073628868	13563.75
1906.31464638326	13546.25
1908.6578604895	13636.75
1911.00037891321	13739.5
1913.34220196	13802.5
1915.68332993537	13870.25
1918.02376314468	13848
1920.36350189311	13748.25
1922.70254648573	13931
1925.04089722744	13925.25
1927.37855442303	13912
1929.71551837715	13928.5
1932.05178939426	13835.75
1934.38736777876	13883.75
1936.72225383484	13921.5
1939.0564478666	14199.75
1941.38995017799	13936
1943.72276107283	14031
1946.05488085479	13887.25
1948.38630982744	13916.75
1950.71704829419	14066.25
1953.04709655832	13950.5
1955.376454923	14047.5
1957.70512369126	14002.75
1960.03310316599	14067
1962.36039364999	14028
1964.68699544589	14020.75
1967.01290885622	14112.75
1969.33813418338	14061.25
1971.66267172965	14137.25
1973.98652179718	14185.5
1976.309684688	14180.75
1978.63216070402	14281
1980.95395014705	14379
1983.27505331873	14254
1985.59547052063	14408.75
1987.9152020542	14407
1990.23424822074	14341.75
1992.55260932146	14427.75
1994.87028565746	14443.75
1997.18727752968	14496.25
1999.503585239	14575.25
2001.81920908618	14538.5
2004.13414937184	14627.25
2006.44840639651	14843.5
2008.7619804606	14837.25
2011.07487186442	14863.75
2013.38708090815	14976.75
2015.6986078919	14967
2018.00945311564	14923.25
2020.31961687923	15192.5
2022.62909948246	15103.75
2024.93790122498	15164
2027.24602240636	15186.75
2029.55346332604	15287.25
2031.86022428337	15291.25
2034.16630557761	15318
2036.47170750791	15367
2038.77643037331	15415.5
2041.08047447275	15455.75
2043.38384010509	15339.25
2045.68652756907	15541
2047.98853716335	15492
2050.28986918648	15530
2052.59052393692	15618.75
2054.89050171302	15584
2057.18980281306	15633.25
2059.4884275352	15696.5
2061.78637617753	15536
2064.08364903802	15690.25
2066.38024641457	15619.5
2068.67616860497	15675.5
2070.97141590694	15679.75
2073.26598861809	15721.25
2075.55988703595	15641.25
2077.85311145796	15662.5
2080.14566218145	15746
2082.43753950371	15803.25
2084.72874372188	15744.75
2087.01927513307	15744.75
2089.30913403428	15732.5
2091.59832072241	15754.25
2093.88683549429	15701
2096.17467864666	15887.5
2098.46185047619	15954.5
2100.74835127944	15966.25
2103.03418135292	15992.75
2105.31934099303	15873.5
2107.6038304961	16078.5
2109.88765015838	16072.5
2112.17080027602	16074.5
2114.45328114513	16093.75
2116.7350930617	16214
2119.01623632165	16162
2121.29671122085	16030
2123.57651805505	16340.5
2125.85565711996	16333.25
2128.13412871117	16387.25
2130.41193312424	16490.25
2132.68907065462	16519.75
2134.96554159771	16435.75
2137.24134624881	16484.5
2139.51648490317	16565.75
2141.79095785593	16629.5
2144.0647654022	16758
2146.33790783698	16746
2148.61038545524	16606.75
2150.88219855182	17007.25
2153.15334742154	16830.5
2155.42383235911	16857.25
2157.6936536592	17034
2159.9628116164	16992.5
2162.23130652522	16932.75
2164.49913868011	17051.5
2166.76630837544	17058.75
2169.03281590552	16968.5
2171.2986615646	17072.75
2173.56384564685	17110.5
2175.82836844637	17063.25
2178.0922302572	17182.5
2180.35543137332	17105.75
2182.61797208862	17158.5
2184.87985269695	17098
2187.14107349208	17117.25
2189.40163476773	17229
2191.66153681753	17304.75
2193.92077993507	17187.75
2196.17936441386	17258.5
2198.43729054735	17326
2200.69455862894	17222
2202.95116895194	17373.25
2205.20712180962	17307.25
2207.46241749519	17317.5
2209.71705630179	17436.25
2211.97103852248	17301
2214.2243644503	17377
2216.47703437819	17479.25
2218.72904859905	17416.25
2220.98040740571	17526.25
2223.23111109095	17516.75
2225.4811599475	17373.5
2227.73055426799	17575.75
2229.97929434504	17496.25
2232.22738047118	17490
2234.47481293889	17623.5
2236.72159204058	17656.5
2238.96771806864	17683.75
2241.21319131536	17630
2243.458012073	17579
2245.70218063374	17607.25
2247.94569728973	17737.5
2250.18856233304	17664.75
2252.4307760557	17586.5
2254.67233874967	17732.25
2256.91325070687	17802.25
2259.15351221915	17800.5
2261.39312357831	17817.25
2263.63208507611	17743.25
2265.87039700422	17815.5
2268.1080596543	17964
2270.34507331792	17873.5
2272.5814382866	17902.25
2274.81715485183	17985.25
2277.05222330502	17993.5
2279.28664393755	18008.75
2281.52041704072	17972
2283.75354290581	18110.25
2285.98602182401	18029.5
2288.21785408648	18065.25
2290.44903998434	18146
2292.67957980862	18175
2294.90947385033	18017.25
2297.1387224004	18077.5
2299.36732574975	18305
2301.59528418921	18240.75
2303.82259800958	18204.5
2306.04926750158	18228
2308.27529295593	18263.5
2310.50067466325	18258.75
2312.72541291412	18439
2314.9495079991	18261.25
2317.17296020866	18314.75
2319.39576983323	18429.5
2321.61793716322	18352.25
2323.83946248894	18415.75
2326.06034610069	18346.25
2328.28058828871	18384.5
2330.50018934317	18411.75
2332.7191495542	18447
2334.93746921192	18411.75
2337.15514860633	18422.75
2339.37218802743	18432
2341.58858776516	18336.5
2343.80434810941	18484.5
2346.01946935001	18511.75
2348.23395177675	18389.5
2350.44779567939	18505
2352.66100134759	18379
2354.87356907101	18464.75
2357.08549913925	18387.25
2359.29679184185	18507
2361.50744746829	18630.75
2363.71746630804	18549.5
2365.92684865048	18409
2368.13559478499	18408.25
2370.34370500083	18629.75
2372.55117958727	18452.5
2374.75801883352	18414.25
2376.96422302874	18389.75
2379.16979246202	18384.25
2381.37472742243	18322
2383.57902819898	18422
2385.78269508063	18345.5
2387.98572835629	18352.5
2390.18812831482	18302.75
2392.38989524505	18470
2394.59102943573	18374.5
2396.79153117559	18432
2398.9914007533	18335.25
2401.19063845748	18391.75
2403.38924457672	18373
2405.58721939951	18421.75
2407.78456321435	18391.25
2409.98127630966	18341.75
2412.17735897382	18402
2414.37281149517	18403.5
2416.56763416198	18406
2418.76182726249	18487.5
2420.95539108487	18388
2423.14832591726	18437.75
2425.34063204776	18303.5
2427.53230976439	18274
2429.72335935513	18412.25
2431.91378110795	18300.25
2434.10357531071	18352.75
2436.29274225125	18458
2438.48128221739	18204.5
2440.66919549683	18325.75
2442.8564823773	18290.5
2445.04314314641	18336
2447.22917809176	18265.5
2449.4145875009	18443.25
2451.59937166131	18238.75
2453.78353086044	18235.5
2455.96706538568	18256
2458.14997552436	18192.75
2460.33226156379	18206
2462.51392379119	18223.5
2464.69496249376	18057.25
2466.87537795862	18068
2469.05517047288	18140.5
2471.23434032357	18070.75
2473.41288779767	18231.25
2475.59081318211	18035.75
2477.76811676378	18124.5
2479.9447988295	18026.75
2482.12085966605	17927
2484.29629956016	17974.25
2486.4711187985	17999.5
2488.64531766769	18170.25
2490.8188964543	18237.25
2492.99185544484	18074.75
2495.16419492579	18040.5
2497.33591518353	17953.25
2499.50701650444	18033
2501.67749917482	18135.75
2503.84736348091	17987.25
2506.01660970891	18070.5
2508.18523814496	18100
2510.35324907514	18016.25
2512.52064278551	18104
2514.68741956201	18137
2516.85357969058	18348.5
2519.01912345709	18270
2521.18405114735	18196.75
2523.34836304711	18126
2525.51205944208	18207.25
2527.6751406179	18194.75
2529.83760686016	18259.5
2531.99945845439	18253.25
2534.16069568606	18309.75
2536.3213188406	18274.75
2538.48132820336	18092.5
2540.64072405965	18282
2542.79950669471	18188
2544.95767639373	18378
2547.11523344184	18296.5
2549.27217812411	18245.5
2551.42851072555	18309.25
2553.58423153111	18366
2555.73934082569	18164
2557.89383889412	18312
2560.04772602118	18216.5
2562.20100249158	18165.5
2564.35366858996	18101.75
2566.50572460093	18187
2568.65717080901	18077
2570.80800749867	18141
2572.95823495433	18073.25
2575.10785346031	18054.75
2577.25686330093	18001.25
2579.40526476038	17765
2581.55305812282	17869
2583.70024367237	17764.25
2585.84682169303	17795
2587.99279246879	17844.75
2590.13815628354	17732.25
2592.28291342112	17772.75
2594.42706416531	17713.5
2596.5706087998	17828
2598.71354760826	17949
2600.85588087425	17936.5
2602.99760888127	17895.5
2605.13873191278	17803.25
2607.27925025214	17775.5
2609.41916418269	17660
2611.55847398764	17841
2613.69717995017	17808.25
2615.83528235339	17998
2617.97278148034	17973.25
2620.10967761398	17831.5
2622.2459710372	17955.75
2624.38166203284	17892
2626.51675088365	17848.25
2628.65123787231	17861.25
2630.78512328145	17893.5
2632.9184073936	17864.75
2635.05109049124	17886
2637.18317285676	17849
2639.31465477248	17986.5
2641.44553652067	17956.75
2643.5758183835	17881.25
2645.70550064309	17888.5
2647.83458358144	17953.25
2649.96306748053	17963.5
2652.09095262223	18111.5
2654.21823928836	18069.25
2656.34492776063	17999.25
2658.47101832071	17853.5
2660.59651125015	18076.25
2662.72140683047	18034.25
2664.84570534309	17931.75
2666.96940706934	17968.5
2669.0925122905	17803.5
2671.21502128773	17964.75
2673.33693434215	17964.75
2675.45825173479	18015.5
2677.57897374658	17977.5
2679.69910065839	17975
2681.818632751	17944
2683.93757030511	18001.25
2686.05591360133	17938.5
2688.17366292021	17883
2690.29081854218	17921.75
2692.40738074762	17921.5
2694.52334981681	17984
2696.63872602995	17893.25
2698.75350966713	18076.25
2700.86770100841	17943.75
2702.98130033371	17893.75
2705.09430792289	17828
2707.20672405571	17889.5
2709.31854901185	18027.5
2711.42978307091	17864.5
2713.54042651238	17920.5
2715.65047961567	17981.75
2717.7599426601	17965
2719.86881592491	17967.5
2721.97709968924	17978.75
2724.08479423213	17945.5
2726.19189983255	18062
2728.29841676934	17960.5
2730.4043453213	18034.25
2732.5096857671	18097.75
2734.61443838532	18003.5
2736.71860345444	18057.25
2738.82218125286	18097.5
2740.92517205889	18108.25
2743.02757615072	18115
2745.12939380646	17955.75
2747.23062530411	18089.5
2749.33127092159	18143.5
2751.4313309367	18014.75
2753.53080562716	18237
2755.62969527058	18198
2757.72800014448	18062.75
2759.82572052625	18143.75
2761.92285669323	18080.25
2764.0194089226	18154.25
2766.11537749147	18141
2768.21076267686	18204
2770.30556475566	18105.5
2772.39978400465	18129.75
2774.49342070054	18168
2776.58647511991	18256
2778.67894753923	18237.5
2780.77083823487	18079.25
2782.8621474831	18144
2784.95287556007	18088.5
2787.04302274184	18060
2789.13258930433	18204.5
2791.22157552338	18038.5
2793.30998167471	18075
2795.39780803392	18235
2797.4850548765	18200.5
2799.57172247786	18123.5
2801.65781111324	18129
2803.74332105781	18094.75
2805.82825258661	18154.5
2807.91260597457	18143.25
2809.9963814965	18171.5
2812.07957942711	18135.25
2814.16220004096	18051.25
2816.24424361252	18053.5
2818.32571041614	18191.5
2820.40660072604	18193.75
2822.48691481631	18300.5
2824.56665296098	18176.5
2826.64581543388	18223.25
2828.72440250876	18297.25
2830.80241445925	18248.5
2832.87985155885	18207
2834.95671408093	18301.5
2837.03300229875	18342.75
2839.10871648544	18360.75
2841.18385691399	18455
2843.25842385729	18501.5
2845.33241758808	18463.75
2847.40583837898	18590
2849.4786865025	18663.5
2851.550962231	18640.75
2853.6226658367	18705
2855.69379759173	18734.5
2857.76435776806	18677.75
2859.83434663753	18722.5
2861.90376447184	18713.25
2863.97261154259	18755
2866.0408881212	18756
2868.10859447901	18842
2870.17573088717	19007.5
2872.24229761673	18788.5
2874.30829493859	18914
2876.37372312352	18821.25
2878.43858244215	18930.75
2880.50287316496	18826.25
2882.56659556231	18897
2884.62974990439	18971.75
2886.69233646129	19018.25
2888.75435550293	18960.5
2890.81580729909	19231.75
2892.87669211941	19161
2894.93701023339	19223.75
2896.99676191039	19287.5
2899.05594741961	19487.75
2901.1145670301	19355
2903.1726210108	19391.75
2905.23010963045	19724.25
2907.28703315768	19748.75
2909.34339186096	20066.25
2911.39918600861	20127.75
2913.45441586879	20040.25
2915.50908170952	19992.5
2917.56318379867	19990.75
2919.61672240395	20028.5
2921.66969779291	19837.25
2923.72211023295	19761.25
2925.77395999134	19768.5
2927.82524733515	19805
2929.87597253132	19799
2931.92613584663	19739.25
2933.97573754769	19649
2936.02477790097	19568.75
2938.07325717276	19504.75
2940.1211756292	19590
2942.16853353626	19522.5
2944.21533115976	19618.25
2946.26156876536	19394.5
2948.30724661853	19280
2950.3523649846	19489.5
2952.39692412872	19308.5
2954.44092431587	19246.5
2956.48436581089	19249.25
2958.52724887843	19265.75
2960.56957378296	19148
2962.6113407888	19283.25
2964.65255016011	19174.25
2966.69320216083	19387.5
2968.73329705479	19266
2970.77283510559	19325.75
2972.81181657671	19304.25
2974.8502417314	19248.5
2976.88811083279	19272.75
2978.92542414378	19294.75
2980.96218192713	19186.75
2982.99838444541	19293
2985.034031961	19349.5
2987.06912473612	19297
2989.1036630328	19228.75
2991.13764711288	19199.25
2993.17107723804	19188.5
2995.20395366974	19246.75
2997.23627666931	19317.25
2999.26804649782	19358.5
3001.29926341624	19407.75
3003.32992768528	19343.5
3005.3600395655	19456.75
3007.38959931726	19514
3009.41860720076	19487.25
3011.44706347595	19702.25
3013.47496840263	19556.25
3015.50232224041	19651
3017.5291252487	19775
3019.5553776867	19628.25
3021.58107981344	19757.5
3023.60623188773	19835.75
3025.63083416822	19883.25
3027.65488691331	19855.25
3029.67839038125	19951.75
3031.70134483007	19899
3033.72375051759	20009.75
3035.74560770144	19970.25
3037.76691663907	19935
3039.78767758768	20131
3041.80789080431	20049.5
3043.82755654577	20034.75
3045.84667506867	20095
3047.8652466294	19989.75
3049.88327148418	20147
3051.90074988899	20027.75
3053.91768209961	20030.75
3055.9340683716	20009.75
3057.94990896033	20070.25
3059.96520412095	20266
3061.97995410838	20204.25
3063.99415917734	20188
3066.00781958234	20062.5
3068.02093557766	20234.25
3070.03350741738	20091.5
3072.04553535535	20166.75
3074.05701964521	20157
3076.06796054036	20094
3078.078358294	20140
3080.08821315912	20177.5
3082.09752538846	20254.75
3084.10629523454	19980.25
3086.11452294967	20142.5
3088.12220878592	20135
3090.12935299515	20253.5
3092.13595582898	20146
3094.1420175388	20142
3096.14753837579	20212.25
3098.15251859088	20169.25
3100.15695843477	20243
3102.16085815793	20236.5
3104.16421801061	20206
3106.16703824282	20250.5
3108.16931910432	20260.75
3110.17106084464	20258
3112.17226371308	20229.75
3114.17292795872	20359.25
3116.17305383034	20446
3118.17264157657	20244.25
3120.17169144571	20454.25
3122.17020368587	20349
3124.16817854492	20447.75
3126.16561627044	20381
3128.16251710982	20632
3130.15888131017	20689.5
3132.15470911837	20686.75
3134.15000078104	20590.25
3136.14475654455	20648.25
3138.13897665502	20766
3140.13266135835	20682
3142.12581090014	20632.5
3144.11842552577	20766
3146.11050548036	20889.5
3148.10205100875	20876
3150.09306235557	20994
3152.08353976515	20811.75
3154.07348348158	20554.25
3156.06289374869	20917.5
3158.05177081006	20714.5
3160.04011490899	20907.25
3162.02792628852	20973.25
3164.01520519145	20890.75
3166.00195186029	20786.25
3167.98816653728	20899.75
3169.97384946442	20855
3171.95900088344	20820.5
3173.94362103577	20964.75
3175.92771016259	20977
3177.91126850484	21044
3179.89429630312	20967.75
3181.87679379782	20726.75
3183.85876122903	21000.25
3185.84019883657	21053.75
3187.82110685997	20998.75
3189.80148553851	20991.5
3191.78133511116	21056
3193.76065581664	21159.5
3195.73944789337	21029.5
3197.7177115795	21080.25
3199.6954471129	21194.5
3201.67265473114	21161.75
3203.64933467153	21096.75
3205.62548717107	21067.25
3207.60111246648	21282.75
3209.57621079421	21215.5
3211.55078239041	21192.25
3213.52482749093	21150.5
3215.49834633133	21276
3217.4713391469	21554.25
3219.44380617262	21372.5
3221.41574764317	21449.75
3223.38716379296	21335.75
3225.35805485607	21518.25
3227.32842106631	21489
3229.29826265718	21628.75
3231.26757986187	21641.75
3233.2363729133	21785.5
3235.20464204405	21682.25
3237.17238748643	21604
3239.13960947243	21652
3241.10630823374	21806.75
3243.07248400174	21813.75
3245.03813700748	21917.25
3247.00326748177	21784.75
3248.96787565503	21862.25
3250.93196175742	21988.5
3252.89552601877	21872
3254.8585686686	21897.75
3256.82108993612	22073
3258.78309005022	22034.75
3260.74456923948	21841.75
3262.70552773215	22014.5
3264.66596575617	22110.5
3266.62588353916	22028.75
3268.58528130843	21884
3270.54415929094	21867.25
3272.50251771336	21917.75
3274.46035680201	22137.75
3276.4176767829	22063.25
3278.37447788171	21970.25
3280.33076032379	22190.25
3282.28652433416	22015.75
3284.24177013751	22035.25
3286.1964979582	22150.75
3288.15070802027	22164.25
3290.10440054741	22095.75
3292.05757576298	22027.5
3294.01023389001	22288.75
3295.96237515119	22225.25
3297.91399976887	22146.75
3299.86510796506	22213
3301.81569996142	22140
3303.76577597932	22209
3305.7153362397	22288.25
3307.66438096324	22186.75
3309.61291037024	22221.5
3311.56092468064	22134.25
3313.50842411404	22093
3315.45540888971	22236.5
3317.40187922656	22084.5
3319.34783534315	22271.75
3321.29327745768	22095
3323.23820578801	21962
3325.18262055164	22178.75
3327.1265219657	22028.5
3329.06991024699	22104.25
3331.01278561194	22095.5
3332.95514827662	21976.5
3334.89699845674	22238.75
3336.83833636766	22187.25
3338.77916222434	21939
3340.71947624143	22112.5
3342.65927863317	22160
3344.59856961346	22066
3346.53734939584	22253
3348.47561819344	22070
3350.41337621906	22007
3352.35062368513	22119.5
3354.28736080368	21981.5
3356.22358778637	22160.5
3358.15930484452	22158
3360.09451218904	22250.5
3362.02921003047	22047.25
3363.96339857898	22267.75
3365.89707804436	22138.5
3367.83024863602	22053
3369.76291056299	22072.5
3371.69506403389	22003.75
3373.62670925699	22271.25
3375.55784644016	22197.75
3377.4884757909	22166.75
3379.41859751629	22248
3381.34821182305	22299.25
3383.27731891749	22367.5
3385.20591900555	22432.25
3387.13401229276	22443.75
3389.06159898426	22414.25
3390.9886792848	22563.5
3392.91525339872	22545.5
3394.84132152998	22474
3396.76688388213	22465.25
3398.69194065833	22531.75
3400.61649206133	22539.75
3402.54053829348	22550.5
3404.46407955672	22481.5
3406.3871160526	22479.75
3408.30964798225	22581.25
3410.23167554639	22710
3412.15319894535	22696.75
3414.07421837904	22566
3415.99473404695	22565.25
3417.91474614817	22668
3419.83425488136	22695.25
3421.75326044479	22723.5
3423.67176303631	22637.75
3425.58976285332	22680.25
3427.50726009282	22625
3429.42425495143	22588
3431.34074762528	22629.75
3433.25673831012	22461
3435.17222720127	22522.75
3437.08721449362	22596.25
3439.00170038164	22364.75
3440.91568505936	22592.25
3442.82916872039	22380.5
3444.74215155791	22484.5
3446.65463376468	22423.25
3448.566615533	22430
3450.47809705476	22470.5
3452.3890785214	22388
3454.29956012393	22534.75
3456.20954205293	22391.5
3458.11902449853	22307.5
3460.02800765041	22329
3461.93649169784	22380.5
3463.84447682962	22263
3465.75196323412	22334
3467.65895109925	22274.25
3469.56544061249	22395.5
3471.47143196086	22202.5
3473.37692533093	22363
3475.28192090884	22221.25
3477.18641888026	22318
3479.09041943039	22276.75
3480.99392274402	22300.75
3482.89692900545	22259
3484.79943839853	22223.5
3486.70145110666	22283.75
3488.60296731277	22247
3490.50398719933	22136.75
3492.40451094836	22010.5
3494.30453874141	22145.25
3496.20407075956	22228.75
3498.10310718342	22215.75
3500.00164819315	22080