201.866871357051	2651.75
204.754250281454	2691.5
207.640596790938	2698
210.525911876299	2701
213.410196525689	2691.5
216.293451724508	2694.75
219.175678455485	2699
222.056877698662	2706.5
224.937050431388	2681.5
227.816197628363	2696
230.694320261602	2694.5
233.571419300504	2719.25
236.447495711764	2718.25
239.322550459507	2727.25
242.196584505182	2764.25
245.069598807626	2779.5
247.941594323078	2774
250.812572005154	2822.25
253.682532804884	2801.5
256.551477670699	2803.25
259.419407548456	2807
262.286323381439	2795.25
265.152226110364	2838.25
268.017116673389	2788
270.880996006115	2829.25
273.743865041622	2835.75
276.605724710436	2811
279.466575940562	2852.25
282.326419657496	2817
285.1852567842	2831.75
288.043088241157	2843.5
290.899914946349	2845.75
293.75573781526	2837.25
296.610557760898	2893.75
299.464375693817	2870
302.317192522078	2890.5
305.169009151297	2857
308.019826484655	2853
310.86964542287	2885.5
313.718466864233	2859.75
316.566291704614	2895.75
319.413120837457	2865.75
322.258955153804	2885.5
325.103795542291	2863.25
327.947642889128	2882.5
330.79049807819	2876.5
333.632361990927	2863.5
336.473235506444	2874.25
339.31311950145	2896.75
342.152014850322	2870.5
344.989922425062	2907.5
347.826843095354	2917.75
350.662777728528	2921
353.497727189577	2913.25
356.331692341195	2939.25
359.164674043732	2940.5
361.996673155267	2930
364.827690531536	2954.25
367.65772702602	2991.75
370.486783489887	2971.25
373.314860772047	2983.5
376.14195971912	2958.25
378.968081175466	2950.75
381.793225983212	2981.75
384.617394982201	2965.25
387.44058901005	2982.5
390.262808902131	2976.5
393.08405549161	2980
395.904329609395	3002.75
398.723632084213	2991.5
401.541963742569	2980.5
404.359325408779	3020.5
407.175717904938	3007
409.991142050982	2982.5
412.805598664665	3034.25
415.619088561551	3000.5
418.43161255505	3031.75
421.243171456415	2999.75
424.053766074758	3042
426.863397217017	3028
429.672065688024	3023
432.479772290455	3045.75
435.286517824879	3057.5
438.092303089736	3076
440.897128881359	3059.5
443.70099599399	3051.75
446.503905219761	3064
449.305857348711	3053
452.106853168796	3091.25
454.906893465919	3029.25
457.705979023885	3027.75
460.504110624439	3067
463.3012890473	3008.25
466.097515070087	3027
468.892789468424	3038.25
471.687113015869	3047.75
474.48048648395	3039
477.272910642198	3020
480.064386258109	3025.75
482.854914097159	3055.5
485.644494922839	3076.5
488.433129496636	3031.25
491.220818578047	3054.75
494.007562924584	3059.25
496.793363291785	3091.25
499.578220433217	3093.25
502.362135100473	3083.75
505.145108043209	3079.25
507.927140009098	3116.5
510.708231743909	3136.25
513.488383991433	3112.25
516.267597493556	3136.5
519.04587299022	3116.5
521.82321121946	3117.25
524.599612917398	3137.75
527.375078818233	3130
530.149609654287	3101.25
532.923206155967	3129.25
535.695869051804	3091.5
538.467599068448	3086.75
541.238396930665	3109
544.008263361364	3074
546.777199081578	3095.25
549.545204810493	3077.5
552.312281265436	3086.5
555.078429161898	3079.5
557.843649213533	3111.75
560.607942132156	3085.5
563.371308627753	3080.5
566.133749408495	3125.5
568.895265180756	3110.75
571.655856649064	3117.25
574.415524516189	3115.75
577.174269483075	3133.25
579.932092248884	3150.75
582.688993510994	3132.75
585.444973965023	3148.25
588.200034304795	3151.5
590.95417522237	3184.5
593.70739740807	3145
596.459701550433	3151
599.21108833628	3177
601.961558450668	3169.25
604.711112576933	3156.75
607.459751396673	3103.5
610.207475589748	3132
612.954285834338	3145.25
615.700182806879	3114.5
618.445167182101	3106.75
621.189239633055	3125
623.932400831087	3090.5
626.674651445839	3109.5
629.415992145303	3099.25
632.156423595745	3111.75
634.895946461813	3078.75
637.634561406449	3089.25
640.37226909096	3092
643.109070174978	3100.25
645.844965316508	3148.5
648.579955171888	3085.5
651.314040395846	3121.25
654.047221641456	3126.25
656.779499560176	3124.75
659.510874801828	3130.75
662.241348014642	3112.75
664.97091984524	3186.5
667.699590938606	3148.25
670.427361938164	3161.25
673.15423348573	3163.75
675.880206221526	3151.5
678.605280784206	3144
681.329457810829	3138.25
684.05273793692	3150.75
686.775121796389	3161.25
689.49661002163	3166.75
692.217203243454	3150
694.936902091144	3131.75
697.655707192425	3176.5
700.373619173493	3145.25
703.09063865901	3134.5
705.806766272093	3143
708.522002634378	3144.75
711.236348365946	3130.25
713.94980408538	3123.75
716.662370409762	3102.25
719.374047954676	3139.5
722.08483733419	3099.5
724.794739160909	3130
727.503754045949	3149.75
730.21188259892	3132.75
732.919125427998	3153.5
735.625483139855	3163.25
738.330956339723	3171.75
741.035545631374	3122.25
743.739251617106	3201.5
746.44207489779	3162.25
749.144016072852	3158
751.845075740272	3169.25
754.545254496603	3195
757.244552936976	3184.75
759.94297165508	3183.75
762.640511243222	3165.5
765.337172292249	3178
768.032955391649	3189
770.727861129482	3187
773.421890092413	3193.25
776.11504286572	3204
778.807320033298	3179.25
781.49872217765	3186.5
784.18924987991	3166
786.87890371984	3148.5
789.567684275826	3173.5
792.255592124908	3188.75
794.94262784276	3121.75
797.628792003703	3145.5
800.314085180715	3154.75
802.998507945427	3159.25
805.682060868145	3231
808.364744517821	3283
811.046559462105	3220.5
813.727506267311	3228.5
816.407585498422	3188
819.08679771913	3174.25
821.765143491822	3174.5
824.442623377563	3211.75
827.119237936127	3231.25
829.794987726003	3216.75
832.469873304377	3199.5
835.143895227167	3211.75
837.817054048985	3203.75
840.489350323205	3216.75
843.160784601892	3247.5
845.831357435894	3243
848.501069374739	3243.25
851.169920966753	3223.25
853.837912758987	3245
856.505045297232	3259.25
859.171319126071	3236.5
861.836734788823	3223.5
864.501292827579	3265.75
867.164993783208	3214.75
869.827838195361	3208.25
872.489826602454	3222.75
875.150959541701	3225.5
877.811237549104	3208.5
880.470661159456	3216.25
883.129230906357	3228.75
885.786947322205	3169
888.443810938206	3189.25
891.099822284385	3199.75
893.754981889586	3203.5
896.409290281452	3189
899.062747986485	3201.75
901.715355529999	3220.5
904.367113436154	3241.75
907.01802222793	3247.25
909.668082427172	3197.25
912.317294554574	3214.75
914.965659129659	3239.25
917.613176670835	3273.5
920.259847695364	3251.25
922.90567271936	3241.75
925.550652257825	3257.75
928.194786824621	3250.25
930.838076932512	3276
933.480523093109	3265.75
936.122125816953	3241.5
938.762885613447	3300.25
941.402802990899	3291
944.041878456523	3281
946.680112516428	3292.75
949.31750567563	3276.5
951.954058438081	3307.5
954.589771306633	3287.75
957.224644783048	3267.5
959.858679368044	3291
962.491875561238	3257.25
965.12423386121	3290.5
967.75575476545	3311
970.386438770423	3340.25
973.016286371501	3342.5
975.645298063046	3313.5
978.273474338355	3249.5
980.900815689674	3294.5
983.527322608243	3310.75
986.152995584245	3267
988.777835106834	3308.5
991.401841664148	3294.5
994.025015743307	3312
996.647357830407	3283
999.268868410534	3288
1001.88954796777	3320.5
1004.50939698518	3287.75
1007.12841594484	3336.5
1009.74660532783	3290
1012.36396561423	3342.5
1014.98049728314	3338.25
1017.59620081267	3303
1020.21107667995	3330.75
1022.82512536112	3310
1025.43834733138	3327.75
1028.05074306493	3370
1030.66231303501	3359
1033.27305771392	3359.25
1035.88297757299	3387.25
1038.49207308257	3353.5
1041.10034471211	3365.75
1043.70779293008	3405.25
1046.31441820402	3345.25
1048.92022100052	3371.5
1051.52520178525	3393.5
1054.12936102295	3397.75
1056.73269917742	3414.25
1059.33521671154	3392.25
1061.93691408729	3363.75
1064.53779176571	3380
1067.13785020694	3408.75
1069.73708987022	3380.75
1072.33551121386	3347.75
1074.93311469528	3359.25
1077.52990077103	3389.5
1080.12586989674	3366
1082.72102252714	3394.25
1085.31535911611	3398.75
1087.90888011663	3395.5
1090.50158598078	3398.5
1093.09347715979	3407
1095.68455410403	3410
1098.27481726296	3385.5
1100.86426708523	3381.25
1103.45290401857	3396.25
1106.04072850991	3391.75
1108.6277410053	3412
1111.21394194993	3399
1113.79933178816	3411.25
1116.3839109635	3422.75
1118.96767991862	3442
1121.55063909539	3441.25
1124.13278893477	3437.5
1126.71412987696	3461
1129.29466236132	3461.25
1131.87438682637	3484
1134.45330370982	3479.5
1137.03141344858	3514.5
1139.60871647872	3485.5
1142.18521323554	3515
1144.7609041535	3484.75
1147.33578966629	3516
1149.90987020676	3509.25
1152.48314620702	3517.5
1155.05561809835	3509.75
1157.62728631125	3535
1160.19815127545	3511.75
1162.76821341988	3566
1165.33747317271	3574.75
1167.90593096133	3559.5
1170.47358721235	3555.75
1173.04044235163	3542.5
1175.60649680425	3514.5
1178.17175099454	3520.5
1180.73620534607	3526.5
1183.29986028165	3491.75
1185.86271622336	3517
1188.42477359249	3515.25
1190.98603280964	3499.25
1193.54649429462	3481.75
1196.10615846653	3474.25
1198.66502574372	3468.5
1201.22309654385	3478.75
1203.78037128378	3455.25
1206.33685037971	3510.25
1208.89253424709	3495.5
1211.44742330063	3491
1214.00151795438	3482
1216.55481862163	3503.5
1219.10732571497	3503
1221.65903964631	3507.25
1224.20996082683	3535.5
1226.760089667	3506
1229.30942657664	3482
1231.85797196483	3552.5
1234.40572623998	3512.5
1236.95268980981	3512.25
1239.49886308136	3577.75
1242.04424646098	3529.25
1244.58884035435	3611.75
1247.13264516647	3613.5
1249.67566130166	3589.25
1252.21788916358	3595.75
1254.75932915524	3606.25
1257.29998167896	3659.25
1259.83984713639	3642.75
1262.37892592857	3635.5
1264.91721845586	3624
1267.45472511795	3596.5
1269.9914463139	3619.75
1272.52738244213	3641
1275.0625339004	3598.5
1277.59690108587	3649.75
1280.130484395	3633.25
1282.66328422367	3647.5
1285.19530096712	3632.25
1287.72653501993	3652.25
1290.25698677608	3688.5
1292.78665662894	3710
1295.31554497125	3703
1297.8436521951	3717
1300.37097869203	3732.5
1302.89752485292	3699.75
1305.42329106805	3687.75
1307.94827772713	3704.75
1310.47248521921	3691.5
1312.99591393279	3738.75
1315.51856425575	3710
1318.04043657536	3740.5
1320.56153127836	3785.25
1323.08184875083	3759.25
1325.6013893783	3784.75
1328.12015354572	3824
1330.63814163744	3820
1333.15535403727	3790.5
1335.67179112839	3830
1338.18745329347	3787.25
1340.70234091454	3825.5
1343.21645437314	3797
1345.72979405019	3868.25
1348.24236032607	3857.25
1350.75415358059	3855.25
1353.26517419303	3863.75
1355.7754225421	3897.5
1358.28489900594	3926
1360.79360396218	3914
1363.30153778787	3947.5
1365.80870085955	3883
1368.31509355319	3922.75
1370.82071624424	3902.25
1373.32556930762	3931.5
1375.8296531177	3899.5
1378.33296804832	3895
1380.83551447282	3935.25
1383.33729276399	3895.5
1385.83830329408	3903.5
1388.33854643489	3899.5
1390.83802255762	3901.75
1393.33673203301	3892
1395.83467523128	3902
1398.33185252211	3912.5
1400.82826427471	3907
1403.32391085777	3920
1405.81879263947	3904
1408.31290998752	3905.75
1410.80626326908	3894
1413.29885285087	3902.25
1415.79067909909	3868
1418.28174237944	3919.5
1420.77204305717	3943.75
1423.26158149702	3895.25
1425.75035806323	3955.25
1428.2383731196	3902
1430.72562702942	3983.75
1433.21212015554	3934.25
1435.69785286028	4007.5
1438.18282550555	4060.25
1440.66703845275	4011.5
1443.15049206284	4042.25
1445.6331866963	4069
1448.11512271316	4066.75
1450.59630047298	4099.25
1453.07672033486	4089.5
1455.55638265748	4144.25
1458.03528779902	4138.5
1460.51343611725	4134.75
1462.99082796946	4149.5
1465.46746371252	4129.25
1467.94334370285	4132
1470.41846829642	4106.5
1472.89283784878	4128.25
1475.36645271503	4143.75
1477.83931324983	4111.5
1480.31141980743	4129.25
1482.78277274164	4205
1485.25337240583	4120.25
1487.72321915297	4078
1490.19231333557	4145.5
1492.66065530578	4093.25
1495.12824541525	4152
1497.5950840153	4137
1500.06117145678	4129
1502.52650809014	4141.5
1504.99109426543	4134.25
1507.45493033227	4142.75
1509.91801663992	4141.5
1512.38035353717	4188.25
1514.84194137248	4169
1517.30278049386	4188.25
1519.76287124894	4210
1522.22221398497	4166.25
1524.68080904876	4151.5
1527.13865678681	4142
1529.59575754514	4191.5
1532.05211166945	4239.5
1534.50771950503	4190.75
1536.96258139678	4245.5
1539.41669768924	4242
1541.87006872656	4257
1544.32269485252	4263.75
1546.77457641051	4280
1549.22571374357	4334.5
1551.67610719434	4332.25
1554.12575710513	4383.75
1556.57466381785	4328.5
1559.02282767408	4349.5
1561.47024901499	4389.25
1563.91692818144	4413.5
1566.3628655139	4418.5
1568.80806135249	4460.5
1571.252516037	4413.75
1573.6962299068	4502.75
1576.13920330099	4499.25
1578.58143655828	4484.5
1581.02293001704	4497.75
1583.46368401528	4513.5
1585.90369889071	4549.5
1588.34297498065	4581.5
1590.7815126221	4622.75
1593.21931215173	4695
1595.65637390588	4734.5
1598.09269822053	4701.5
1600.52828543135	4652.75
1602.96313587367	4660
1605.3972498825	4613.25
1607.83062779252	4589.25
1610.26326993808	4611
1612.69517665322	4577.5
1615.12634827165	4555.75
1617.55678512676	4558.5
1619.98648755163	4522.5
1622.41545587902	4528.75
1624.84369044138	4504.25
1627.27119157085	4554.5
1629.69795959924	4521.5
1632.12399485808	4553.75
1634.54929767859	4510.5
1636.97386839165	4556.75
1639.39770732789	4529.25
1641.8208148176	4567.5
1644.24319119078	4567.25
1646.66483677715	4586.5
1649.0857519061	4619
1651.50593690677	4613
1653.92539210795	4641.5
1656.3441178382	4632.75
1658.76211442575	4633.75
1661.17938219855	4655.75
1663.59592148428	4703.75
1666.01173261032	4661.25
1668.42681590377	4708.75
1670.84117169145	4743.25
1673.25480029991	4723
1675.66770205541	4732.25
1678.07987728393	4750.5
1680.49132631119	4771.5
1682.90204946263	4789.75
1685.31204706342	4814
1687.72131943846	4803
1690.1298669124	4859.25
1692.53768980957	4906
1694.94478845411	4816
1697.35116316982	4820.5
1699.75681428031	4847.75
1702.16174210887	4837.25
1704.56594697858	4835.25
1706.96942921222	4873.75
1709.37218913235	4878.5
1711.77422706125	4867.5
1714.17554332098	4900.25
1716.5761382333	4882.5
1718.97601211977	4851.5
1721.37516530169	4887.75
1723.77359810006	4840.75
1726.17131083572	4857
1728.56830382922	4887.75
1730.96457740087	4874
1733.36013187075	4799.75
1735.75496755868	4901
1738.14908478428	4874
1740.54248386689	4890
1742.93516512565	4856.5
1745.32712887946	4903.75
1747.71837544697	4892.25
1750.10890514662	4895
1752.49871829661	4889.5
1754.88781521492	4884.75
1757.27619621929	4901
1759.66386162726	4931.25
1762.05081175612	4898
1764.43704692297	4914.5
1766.82256744465	4981.25
1769.20737363782	4969
1771.59146581887	4953.5
1773.97484430405	5002.75
1776.35750940932	5026
1778.73946145048	5019.25
1781.12070074309	5014
1783.50122760249	5071.25
1785.88104234385	5114.75
1788.26014528209	5089.75
1790.63853673196	5079.25
1793.01621700796	5113
1795.39318642443	5122.5
1797.76944529549	5090.5
1800.14499393503	5116.5
1802.51983265681	5099.75
1804.8939617743	5160.75
1807.26738160085	5190.5
1809.64009244957	5177.5
1812.01209463339	5154.75
1814.38338846504	5227.25
1816.75397425706	5189
1819.12385232181	5188.75
1821.49302297142	5174.75
1823.86148651789	5186.25
1826.22924327299	5169
1828.59629354831	5229.75
1830.96263765526	5193.75
1833.32827590507	5195.5
1835.69320860877	5247
1838.05743607724	5203.75
1840.42095862113	5201.25
1842.78377655097	5279
1845.14589017707	5239.5
1847.50729980956	5263
1849.86800575843	5248.25
1852.22800833346	5237
1854.58730784427	5235.75
1856.94590460032	5249
1859.30379891087	5298.25
1861.66099108503	5306.25
1864.01748143175	5339
1866.37327025978	5340.25
1868.72835787773	5316.25
1871.08274459403	5353.25
1873.43643071697	5394.5
1875.78941655464	5402.25
1878.14170241498	5382.25
1880.4932886058	5464
1882.84417543469	5436
1885.19436320915	5437
1887.54385223646	5430.75
1889.89264282378	5446.5
1892.24073527809	5464.25
1894.58812990625	5519.25
1896.93482701493	5608
1899.28082691067	5562.75
1901.62612989984	5609.75
1903.97073628868	5567.75
1906.31464638326	5625
1908.6578604895	5646.5
1911.00037891321	5662.5
1913.34220196	5711.5
1915.68332993537	5664.25
1918.02376314468	5682.5
1920.36350189311	5675.25
1922.70254648573	5666
1925.04089722744	5697.25
1927.37855442303	5694.5
1929.71551837715	5715.75
1932.05178939426	5705.5
1934.38736777876	5725
1936.72225383484	5730
1939.0564478666	5828
1941.38995017799	5734.5
1943.72276107283	5778
1946.05488085479	5773.5
1948.38630982744	5727.5
1950.71704829419	5783.75
1953.04709655832	5755
1955.376454923	5789
1957.70512369126	5734.5
1960.03310316599	5799.5
1962.36039364999	5742.75
1964.68699544589	5784.5
1967.01290885622	5776.75
1969.33813418338	5813.75
1971.66267172965	5783
1973.98652179718	5813.5
1976.309684688	5824.75
1978.63216070402	5911.5
1980.95395014705	5947
1983.27505331873	5851.5
1985.59547052063	5911.5
1987.9152020542	5917.5
1990.23424822074	5956.75
1992.55260932146	5926.75
1994.87028565746	5923
1997.18727752968	5983.75
1999.503585239	6028.5
2001.81920908618	5996.5
2004.13414937184	6028.5
2006.44840639651	6062.25
2008.7619804606	6070
2011.07487186442	6102
2013.38708090815	6178.75
2015.6986078919	6170
2018.00945311564	6187
2020.31961687923	6137
2022.62909948246	6227.5
2024.93790122498	6220.25
2027.24602240636	6253
2029.55346332604	6260
2031.86022428337	6281.25
2034.16630557761	6271.5
2036.47170750791	6266
2038.77643037331	6310.25
2041.08047447275	6308.75
2043.38384010509	6258.75
2045.68652756907	6337.5
2047.98853716335	6321
2050.28986918648	6347.75
2052.59052393692	6346.5
2054.89050171302	6373
2057.18980281306	6354.75
2059.4884275352	6404.75
2061.78637617753	6354.25
2064.08364903802	6384
2066.38024641457	6380.75
2068.67616860497	6395.25
2070.97141590694	6347.25
2073.26598861809	6390
2075.55988703595	6362
2077.85311145796	6352.25
2080.14566218145	6429
2082.43753950371	6403.75
2084.72874372188	6411.75
2087.01927513307	6433.25
2089.30913403428	6366.5
2091.59832072241	6404.5
2093.88683549429	6405.5
2096.17467864666	6465.25
2098.46185047619	6481.75
2100.74835127944	6436.75
2103.03418135292	6506.25
2105.31934099303	6432
2107.6038304961	6493
2109.88765015838	6481.5
2112.17080027602	6450.5
2114.45328114513	6507.75
2116.7350930617	6520.75
2119.01623632165	6565.5
2121.29671122085	6506.5
2123.57651805505	6583.75
2125.85565711996	6596.5
2128.13412871117	6610.25
2130.41193312424	6592.25
2132.68907065462	6611.25
2134.96554159771	6583.75
2137.24134624881	6591
2139.51648490317	6595
2141.79095785593	6678.75
2144.0647654022	6677.25
2146.33790783698	6654.75
2148.61038545524	6596
2150.88219855182	6724.25
2153.15334742154	6703.25
2155.42383235911	6782
2157.6936536592	6722
2159.9628116164	6694
2162.23130652522	6707.75
2164.49913868011	6743.75
2166.76630837544	6708.25
2169.03281590552	6792.75
2171.2986615646	6717
2173.56384564685	6775.5
2175.82836844637	6762.5
2178.0922302572	6767.5
2180.35543137332	6730.75
2182.61797208862	6770.75
2184.87985269695	6719.5
2187.14107349208	6751.75
2189.40163476773	6754
2191.66153681753	6718
2193.92077993507	6650.25
2196.17936441386	6677
2198.43729054735	6652.75
2200.69455862894	6683.25
2202.95116895194	6740.5
2205.20712180962	6699.25
2207.46241749519	6674.25
2209.71705630179	6683.25
2211.97103852248	6669
2214.2243644503	6658.75
2216.47703437819	6674.25
2218.72904859905	6646.25
2220.98040740571	6698
2223.23111109095	6696
2225.4811599475	6693.5
2227.73055426799	6678.75
2229.97929434504	6689.75
2232.22738047118	6630.75
2234.47481293889	6666.5
2236.72159204058	6692.75
2238.96771806864	6707.5
2241.21319131536	6645.25
2243.458012073	6615.25
2245.70218063374	6643.5
2247.94569728973	6686.75
2250.18856233304	6635
2252.4307760557	6543.75
2254.67233874967	6608.75
2256.91325070687	6588
2259.15351221915	6585.75
2261.39312357831	6656.75
2263.63208507611	6600.75
2265.87039700422	6592
2268.1080596543	6675.75
2270.34507331792	6609.5
2272.5814382866	6609
2274.81715485183	6612.25
2277.05222330502	6590
2279.28664393755	6610.25
2281.52041704072	6543.5
2283.75354290581	6631
2285.98602182401	6546.5
2288.21785408648	6526.5
2290.44903998434	6623.25
2292.67957980862	6599
2294.90947385033	6526.25
2297.1387224004	6558.25
2299.36732574975	6592.75
2301.59528418921	6522.75
2303.82259800958	6563
2306.04926750158	6567
2308.27529295593	6509
2310.50067466325	6541
2312.72541291412	6573.25
2314.9495079991	6526
2317.17296020866	6482.25
2319.39576983323	6537.5
2321.61793716322	6515.75
2323.83946248894	6483.25
2326.06034610069	6542.5
2328.28058828871	6505.25
2330.50018934317	6501.25
2332.7191495542	6511.25
2334.93746921192	6494.25
2337.15514860633	6462.25
2339.37218802743	6501
2341.58858776516	6433.5
2343.80434810941	6408
2346.01946935001	6463
2348.23395177675	6472
2350.44779567939	6476
2352.66100134759	6363.25
2354.87356907101	6439
2357.08549913925	6437.5
2359.29679184185	6389.75
2361.50744746829	6388.75
2363.71746630804	6430.75
2365.92684865048	6373.25
2368.13559478499	6378.5
2370.34370500083	6398
2372.55117958727	6399
2374.75801883352	6331.25
2376.96422302874	6322
2379.16979246202	6323
2381.37472742243	6339
2383.57902819898	6355.25
2385.78269508063	6292.25
2387.98572835629	6281.25
2390.18812831482	6248
2392.38989524505	6290.5
2394.59102943573	6309.75
2396.79153117559	6275.5
2398.9914007533	6231.5
2401.19063845748	6231.5
2403.38924457672	6228
2405.58721939951	6273.75
2407.78456321435	6228.25
2409.98127630966	6190.25
2412.17735897382	6264.25
2414.37281149517	6161
2416.56763416198	6227.25
2418.76182726249	6226.5
2420.95539108487	6182.75
2423.14832591726	6133.75
2425.34063204776	6120
2427.53230976439	6138.5
2429.72335935513	6165.25
2431.91378110795	6106.75
2434.10357531071	6116.75
2436.29274225125	6068.25
2438.48128221739	6085.25
2440.66919549683	6060
2442.8564823773	6096.5
2445.04314314641	6144
2447.22917809176	6082.25
2449.4145875009	6108.25
2451.59937166131	6075
2453.78353086044	6073.75
2455.96706538568	6019.25
2458.14997552436	6055.75
2460.33226156379	6027.25
2462.51392379119	6023.5
2464.69496249376	5951.25
2466.87537795862	6002.25
2469.05517047288	6004.5
2471.23434032357	5944
2473.41288779767	6035
2475.59081318211	5942.25
2477.76811676378	5951.5
2479.9447988295	5900.75
2482.12085966605	5895.25
2484.29629956016	5889.5
2486.4711187985	5953.75
2488.64531766769	5885.25
2490.8188964543	5980.5
2492.99185544484	5878
2495.16419492579	5833
2497.33591518353	5872.25
2499.50701650444	5854.25
2501.67749917482	5912.5
2503.84736348091	5824.25
2506.01660970891	5825.75
2508.18523814496	5833.75
2510.35324907514	5849.75
2512.52064278551	5870
2514.68741956201	5842.25
2516.85357969058	5914.75
2519.01912345709	5910
2521.18405114735	5836.5
2523.34836304711	5851
2525.51205944208	5902.25
2527.6751406179	5852.25
2529.83760686016	5876.75
2531.99945845439	5862
2534.16069568606	5861.75
2536.3213188406	5837.25
2538.48132820336	5818
2540.64072405965	5884.75
2542.79950669471	5844.5
2544.95767639373	5925.5
2547.11523344184	5854.5
2549.27217812411	5824
2551.42851072555	5843.5
2553.58423153111	5834.75
2555.73934082569	5785.25
2557.89383889412	5813.75
2560.04772602118	5808.25
2562.20100249158	5763.75
2564.35366858996	5719.25
2566.50572460093	5790.75
2568.65717080901	5737.75
2570.80800749867	5761
2572.95823495433	5752
2575.10785346031	5717.5
2577.25686330093	5637
2579.40526476038	5629.75
2581.55305812282	5671
2583.70024367237	5657.25
2585.84682169303	5648
2587.99279246879	5653.25
2590.13815628354	5665.25
2592.28291342112	5619.75
2594.42706416531	5640.75
2596.5706087998	5602
2598.71354760826	5666.5
2600.85588087425	5629.5
2602.99760888127	5608.25
2605.13873191278	5558
2607.27925025214	5582.75
2609.41916418269	5605.25
2611.55847398764	5596.5
2613.69717995017	5605
2615.83528235339	5657.25
2617.97278148034	5598.75
2620.10967761398	5585.5
2622.2459710372	5592
2624.38166203284	5619.75
2626.51675088365	5623.75
2628.65123787231	5572
2630.78512328145	5581
2632.9184073936	5566.5
2635.05109049124	5598.5
2637.18317285676	5629
2639.31465477248	5588
2641.44553652067	5624.5
2643.5758183835	5604
2645.70550064309	5546.5
2647.83458358144	5594.75
2649.96306748053	5606.25
2652.09095262223	5594.25
2654.21823928836	5608.5
2656.34492776063	5586.5
2658.47101832071	5586
2660.59651125015	5590.5
2662.72140683047	5582
2664.84570534309	5586
2666.96940706934	5626.25
2669.0925122905	5519.25
2671.21502128773	5579.25
2673.33693434215	5598
2675.45825173479	5576.75
2677.57897374658	5529
2679.69910065839	5588.5
2681.818632751	5571
2683.93757030511	5543.25
2686.05591360133	5522.25
2688.17366292021	5542
2690.29081854218	5506.25
2692.40738074762	5533
2694.52334981681	5487.5
2696.63872602995	5455
2698.75350966713	5484.5
2700.86770100841	5533.75
2702.98130033371	5479.75
2705.09430792289	5492.25
2707.20672405571	5527.75
2709.31854901185	5519
2711.42978307091	5566.5
2713.54042651238	5516
2715.65047961567	5517.5
2717.7599426601	5545.75
2719.86881592491	5520.25
2721.97709968924	5595.5
2724.08479423213	5530.5
2726.19189983255	5512.75
2728.29841676934	5491.75
2730.4043453213	5517.5
2732.5096857671	5536.5
2734.61443838532	5488.5
2736.71860345444	5510.75
2738.82218125286	5498.25
2740.92517205889	5563.25
2743.02757615072	5560.25
2745.12939380646	5477
2747.23062530411	5517.75
2749.33127092159	5533.75
2751.4313309367	5470.25
2753.53080562716	5549
2755.62969527058	5548
2757.72800014448	5522
2759.82572052625	5517.75
2761.92285669323	5537.25
2764.0194089226	5540
2766.11537749147	5524.75
2768.21076267686	5558.75
2770.30556475566	5519.25
2772.39978400465	5541.5
2774.49342070054	5500.5
2776.58647511991	5533.5
2778.67894753923	5547.5
2780.77083823487	5576
2782.8621474831	5492.25
2784.95287556007	5531.75
2787.04302274184	5533.5
2789.13258930433	5501.75
2791.22157552338	5471
2793.30998167471	5485.25
2795.39780803392	5531.25
2797.4850548765	5531.75
2799.57172247786	5504
2801.65781111324	5541.5
2803.74332105781	5552.25
2805.82825258661	5480.25
2807.91260597457	5532.5
2809.9963814965	5494
2812.07957942711	5474.5
2814.16220004096	5459.5
2816.24424361252	5513.75
2818.32571041614	5535.25
2820.40660072604	5517.5
2822.48691481631	5529.25
2824.56665296098	5515.75
2826.64581543388	5495
2828.72440250876	5569.75
2830.80241445925	5556.5
2832.87985155885	5598.25
2834.95671408093	5622.75
2837.03300229875	5664.25
2839.10871648544	5661.5
2841.18385691399	5759
2843.25842385729	5708.75
2845.33241758808	5625.75
2847.40583837898	5720
2849.4786865025	5695.5
2851.550962231	5663.75
2853.6226658367	5703.25
2855.69379759173	5676.75
2857.76435776806	5752.25
2859.83434663753	5726.75
2861.90376447184	5746
2863.97261154259	5828.25
2866.0408881212	5895
2868.10859447901	5857.75
2870.17573088717	5872.25
2872.24229761673	5912.75
2874.30829493859	5879.75
2876.37372312352	5880.75
2878.43858244215	5948.75
2880.50287316496	6022
2882.56659556231	5974.5
2884.62974990439	6030.25
2886.69233646129	5971.25
2888.75435550293	5932
2890.81580729909	5967.5
2892.87669211941	5898.5
2894.93701023339	5906.75
2896.99676191039	5905.5
2899.05594741961	5941.5
2901.1145670301	5919.75
2903.1726210108	5890.25
2905.23010963045	5921.5
2907.28703315768	5909
2909.34339186096	5948.25
2911.39918600861	5940
2913.45441586879	5832
2915.50908170952	5921.25
2917.56318379867	5865.75
2919.61672240395	5896.25
2921.66969779291	5884.5
2923.72211023295	5837.5
2925.77395999134	5848
2927.82524733515	5873.25
2929.87597253132	5866
2931.92613584663	5768.5
2933.97573754769	5792.75
2936.02477790097	5743
2938.07325717276	5766.75
2940.1211756292	5769.25
2942.16853353626	5757.5
2944.21533115976	5754.25
2946.26156876536	5727.5
2948.30724661853	5814.75
2950.3523649846	5805.75
2952.39692412872	5810.5
2954.44092431587	5833.75
2956.48436581089	5866.75
2958.52724887843	5951.25
2960.56957378296	5988.25
2962.6113407888	6012.25
2964.65255016011	5901.75
2966.69320216083	5922.75
2968.73329705479	5797.5
2970.77283510559	5773
2972.81181657671	5752.25
2974.8502417314	5764.25
2976.88811083279	5707.75
2978.92542414378	5710.25
2980.96218192713	5671
2982.99838444541	5692.25
2985.034031961	5699.5
2987.06912473612	5705.5
2989.1036630328	5708.5
2991.13764711288	5667.5
2993.17107723804	5634.75
2995.20395366974	5666.5
2997.23627666931	5682.25
2999.26804649782	5713
3001.29926341624	5747.5
3003.32992768528	5713.5
3005.3600395655	5710
3007.38959931726	5743.25
3009.41860720076	5733.5
3011.44706347595	5759.25
3013.47496840263	5750.75
3015.50232224041	5799.5
3017.5291252487	5879.5
3019.5553776867	5780.5
3021.58107981344	5833.5
3023.60623188773	5821.75
3025.63083416822	5855.25
3027.65488691331	5881.25
3029.67839038125	5858.75
3031.70134483007	5788
3033.72375051759	5934.5
3035.74560770144	5875.25
3037.76691663907	5928.75
3039.78767758768	5920.75
3041.80789080431	5910.5
3043.82755654577	5933.25
3045.84667506867	5900.75
3047.8652466294	5945.25
3049.88327148418	5910.5
3051.90074988899	5873
3053.91768209961	5931
3055.9340683716	5889
3057.94990896033	5910
3059.96520412095	5929
3061.97995410838	5914.25
3063.99415917734	5898
3066.00781958234	5872.75
3068.02093557766	5902.5
3070.03350741738	5891.25
3072.04553535535	5927.75
3074.05701964521	5916
3076.06796054036	5878.75
3078.078358294	5892
3080.08821315912	5924
3082.09752538846	5951.25
3084.10629523454	5813
3086.11452294967	5925.5
3088.12220878592	5923.25
3090.12935299515	5885
3092.13595582898	5934.75
3094.1420175388	5905.25
3096.14753837579	5891.5
3098.15251859088	5863.25
3100.15695843477	5911.75
3102.16085815793	5890.75
3104.16421801061	5853.25
3106.16703824282	5904.5
3108.16931910432	5965
3110.17106084464	5880.75
3112.17226371308	5903
3114.17292795872	5904.5
3116.17305383034	5953.25
3118.17264157657	5909
3120.17169144571	5919.75
3122.17020368587	5871.25
3124.16817854492	5939
3126.16561627044	5900.75
3128.16251710982	6000.5
3130.15888131017	5963.75
3132.15470911837	6028.5
3134.15000078104	5984
3136.14475654455	5976.75
3138.13897665502	6000.5
3140.13266135835	5972
3142.12581090014	5987.75
3144.11842552577	5993.75
3146.11050548036	6029
3148.10205100875	6042
3150.09306235557	6070
3152.08353976515	6005.5
3154.07348348158	5957
3156.06289374869	6003.5
3158.05177081006	6018.25
3160.04011490899	5994
3162.02792628852	6057.5
3164.01520519145	6017.25
3166.00195186029	6041.75
3167.98816653728	6025.25
3169.97384946442	6028.5
3171.95900088344	6030.25
3173.94362103577	6044
3175.92771016259	6080
3177.91126850484	6075.25
3179.89429630312	6040.25
3181.87679379782	6023.25
3183.85876122903	6091
3185.84019883657	6060.25
3187.82110685997	6061.75
3189.80148553851	6060.25
3191.78133511116	6115
3193.76065581664	6094.5
3195.73944789337	6091
3197.7177115795	6096.5
3199.6954471129	6100.25
3201.67265473114	6071.5
3203.64933467153	6097.75
3205.62548717107	6131
3207.60111246648	6121.75
3209.57621079421	6157.5
3211.55078239041	6167.75
3213.52482749093	6118.75
3215.49834633133	6164
3217.4713391469	6220
3219.44380617262	6167.25
3221.41574764317	6181.5
3223.38716379296	6157.75
3225.35805485607	6178.5
3227.32842106631	6217.75
3229.29826265718	6256.5
3231.26757986187	6214.5
3233.2363729133	6244.5
3235.20464204405	6228
3237.17238748643	6244.75
3239.13960947243	6242.25
3241.10630823374	6237.5
3243.07248400174	6279.5
3245.03813700748	6305.75
3247.00326748177	6247.75
3248.96787565503	6319.75
3250.93196175742	6332.25
3252.89552601877	6301.75
3254.8585686686	6269.5
3256.82108993612	6359
3258.78309005022	6355
3260.74456923948	6296
3262.70552773215	6316
3264.66596575617	6330.75
3266.62588353916	6321.75
3268.58528130843	6278
3270.54415929094	6300.5
3272.50251771336	6319
3274.46035680201	6338.75
3276.4176767829	6307
3278.37447788171	6361.25
3280.33076032379	6288
3282.28652433416	6327.25
3284.24177013751	6361.75
3286.1964979582	6355.25
3288.15070802027	6306.25
3290.10440054741	6345.75
3292.05757576298	6324.25
3294.01023389001	6330
3295.96237515119	6396.5
3297.91399976887	6308.5
3299.86510796506	6345
3301.81569996142	6348.5
3303.76577597932	6290
3305.7153362397	6321.5
3307.66438096324	6329.5
3309.61291037024	6385.75
3311.56092468064	6358
3313.50842411404	6307.25
3315.45540888971	6349.75
3317.40187922656	6313.75
3319.34783534315	6302.75
3321.29327745768	6256.5
3323.23820578801	6289.25
3325.18262055164	6314.5
3327.1265219657	6297
3329.06991024699	6317.5
3331.01278561194	6291
3332.95514827662	6253
3334.89699845674	6304.5
3336.83833636766	6292.5
3338.77916222434	6256.25
3340.71947624143	6269.25
3342.65927863317	6333.75
3344.59856961346	6305.25
3346.53734939584	6315.5
3348.47561819344	6306.75
3350.41337621906	6278.5
3352.35062368513	6289.5
3354.28736080368	6272.5
3356.22358778637	6275
3358.15930484452	6274.25
3360.09451218904	6351.25
3362.02921003047	6302.25
3363.96339857898	6335.75
3365.89707804436	6308
3367.83024863602	6294.75
3369.76291056299	6286.25
3371.69506403389	6272.75
3373.62670925699	6313.75
3375.55784644016	6277.75
3377.4884757909	6279
3379.41859751629	6342.5
3381.34821182305	6305.25
3383.27731891749	6352.25
3385.20591900555	6331
3387.13401229276	6360.25
3389.06159898426	6415.25
3390.9886792848	6364.5
3392.91525339872	6377.5
3394.84132152998	6368.5
3396.76688388213	6362
3398.69194065833	6357.25
3400.61649206133	6399
3402.54053829348	6447.5
3404.46407955672	6330.75
3406.3871160526	6362
3408.30964798225	6404.75
3410.23167554639	6363
3412.15319894535	6412.5
3414.07421837904	6386.75
3415.99473404695	6419.75
3417.91474614817	6364.25
3419.83425488136	6379.75
3421.75326044479	6417
3423.67176303631	6374.25
3425.58976285332	6379
3427.50726009282	6358
3429.42425495143	6400
3431.34074762528	6440
3433.25673831012	6398.75
3435.17222720127	6343.75
3437.08721449362	6358.75
3439.00170038164	6342.5
3440.91568505936	6365.75
3442.82916872039	6298
3444.74215155791	6350
3446.65463376468	6326.25
3448.566615533	6316.75
3450.47809705476	6352.25
3452.3890785214	6356.5
3454.29956012393	6370
3456.20954205293	6336
3458.11902449853	6318.25
3460.02800765041	6328.75
3461.93649169784	6289.25
3463.84447682962	6335.5
3465.75196323412	6267.25
3467.65895109925	6272.5
3469.56544061249	6316
3471.47143196086	6245
3473.37692533093	6308.75
3475.28192090884	6254
3477.18641888026	6264.25
3479.09041943039	6208.25
3480.99392274402	6254
3482.89692900545	6241.25
3484.79943839853	6253.25
3486.70145110666	6240.75
3488.60296731277	6250.5
3490.50398719933	6204.5
3492.40451094836	6193
3494.30453874141	6232
3496.20407075956	6223
3498.10310718342	6263.5
3500.00164819315	6182.5