201.866871357051	2186
204.754250281454	2208.75
207.640596790938	2192.25
210.525911876299	2195.25
213.410196525689	2213.25
216.293451724508	2200.5
219.175678455485	2186.25
222.056877698662	2208.5
224.937050431388	2190.5
227.816197628363	2225.75
230.694320261602	2223.5
233.571419300504	2212.75
236.447495711764	2245.25
239.322550459507	2235.75
242.196584505182	2269.5
245.069598807626	2265.75
247.941594323078	2261.25
250.812572005154	2271.5
253.682532804884	2272.25
256.551477670699	2271.75
259.419407548456	2274
262.286323381439	2288.75
265.152226110364	2322.25
268.017116673389	2292.5
270.880996006115	2306.5
273.743865041622	2292.25
276.605724710436	2305.5
279.466575940562	2308.5
282.326419657496	2316
285.1852567842	2303.5
288.043088241157	2348.25
290.899914946349	2320
293.75573781526	2353.5
296.610557760898	2332.5
299.464375693817	2323.25
302.317192522078	2329
305.169009151297	2289
308.019826484655	2329.75
310.86964542287	2328.25
313.718466864233	2286.25
316.566291704614	2331.75
319.413120837457	2316.75
322.258955153804	2315.25
325.103795542291	2343.5
327.947642889128	2325.25
330.79049807819	2331.25
333.632361990927	2320.5
336.473235506444	2302.5
339.31311950145	2336.5
342.152014850322	2326
344.989922425062	2372
347.826843095354	2336.75
350.662777728528	2380.75
353.497727189577	2380
356.331692341195	2382
359.164674043732	2376.25
361.996673155267	2373.25
364.827690531536	2423.75
367.65772702602	2401.25
370.486783489887	2383.25
373.314860772047	2374
376.14195971912	2390.5
378.968081175466	2418.5
381.793225983212	2367.25
384.617394982201	2424.25
387.44058901005	2442
390.262808902131	2411.25
393.08405549161	2401.5
395.904329609395	2380.25
398.723632084213	2397.5
401.541963742569	2419.5
404.359325408779	2388.25
407.175717904938	2435.5
409.991142050982	2427
412.805598664665	2412.75
415.619088561551	2435
418.43161255505	2436
421.243171456415	2412.75
424.053766074758	2467
426.863397217017	2444.25
429.672065688024	2498.5
432.479772290455	2442.5
435.286517824879	2471.25
438.092303089736	2487
440.897128881359	2451.5
443.70099599399	2459.25
446.503905219761	2508
449.305857348711	2471.5
452.106853168796	2486.25
454.906893465919	2462.25
457.705979023885	2477
460.504110624439	2498
463.3012890473	2475.75
466.097515070087	2461.75
468.892789468424	2459
471.687113015869	2476.75
474.48048648395	2471
477.272910642198	2460.5
480.064386258109	2489.25
482.854914097159	2480.75
485.644494922839	2471.75
488.433129496636	2496
491.220818578047	2503.75
494.007562924584	2492
496.793363291785	2502.5
499.578220433217	2535.5
502.362135100473	2520.75
505.145108043209	2517.75
507.927140009098	2514
510.708231743909	2529.75
513.488383991433	2529.25
516.267597493556	2541.25
519.04587299022	2538
521.82321121946	2587.75
524.599612917398	2560.25
527.375078818233	2574.75
530.149609654287	2572
532.923206155967	2539.75
535.695869051804	2537.5
538.467599068448	2541.25
541.238396930665	2549.5
544.008263361364	2535.5
546.777199081578	2562.25
549.545204810493	2559.5
552.312281265436	2556
555.078429161898	2565.75
557.843649213533	2565
560.607942132156	2567.25
563.371308627753	2596
566.133749408495	2569
568.895265180756	2630.5
571.655856649064	2576.75
574.415524516189	2575
577.174269483075	2615
579.932092248884	2636.5
582.688993510994	2645.5
585.444973965023	2656.25
588.200034304795	2659.75
590.95417522237	2634
593.70739740807	2625
596.459701550433	2659
599.21108833628	2648.25
601.961558450668	2641.5
604.711112576933	2625.5
607.459751396673	2603
610.207475589748	2631
612.954285834338	2644
615.700182806879	2595
618.445167182101	2613
621.189239633055	2608.75
623.932400831087	2623.5
626.674651445839	2708.75
629.415992145303	2761.5
632.156423595745	2818.75
634.895946461813	2692.5
637.634561406449	2681.25
640.37226909096	2631.75
643.109070174978	2627
645.844965316508	2649.5
648.579955171888	2659.25
651.314040395846	2648.25
654.047221641456	2618.25
656.779499560176	2620.25
659.510874801828	2635
662.241348014642	2657.25
664.97091984524	2622.25
667.699590938606	2658.5
670.427361938164	2655.5
673.15423348573	2634.25
675.880206221526	2682
678.605280784206	2671.5
681.329457810829	2651.75
684.05273793692	2666.75
686.775121796389	2683.5
689.49661002163	2656
692.217203243454	2713
694.936902091144	2647.5
697.655707192425	2664.25
700.373619173493	2704.25
703.09063865901	2693.5
705.806766272093	2701.5
708.522002634378	2678.75
711.236348365946	2649.25
713.94980408538	2636.5
716.662370409762	2641.5
719.374047954676	2627.75
722.08483733419	2663.5
724.794739160909	2646.25
727.503754045949	2647
730.21188259892	2670.75
732.919125427998	2646
735.625483139855	2670.75
738.330956339723	2677.25
741.035545631374	2662
743.739251617106	2675.5
746.44207489779	2716
749.144016072852	2701.25
751.845075740272	2718.75
754.545254496603	2697
757.244552936976	2722.75
759.94297165508	2697.25
762.640511243222	2695
765.337172292249	2716.25
768.032955391649	2695.75
770.727861129482	2726.25
773.421890092413	2728.75
776.11504286572	2716.75
778.807320033298	2714.75
781.49872217765	2702.25
784.18924987991	2680.5
786.87890371984	2708.5
789.567684275826	2709.75
792.255592124908	2758
794.94262784276	2729.75
797.628792003703	2715
800.314085180715	2678
802.998507945427	2710.5
805.682060868145	2727.5
808.364744517821	2744.5
811.046559462105	2758.25
813.727506267311	2717.75
816.407585498422	2747.75
819.08679771913	2746.5
821.765143491822	2736.5
824.442623377563	2752.25
827.119237936127	2791.75
829.794987726003	2741
832.469873304377	2826
835.143895227167	2790.75
837.817054048985	2802.5
840.489350323205	2811.75
843.160784601892	2837.5
845.831357435894	2874.75
848.501069374739	2905.25
851.169920966753	2937.75
853.837912758987	3028.5
856.505045297232	3092.5
859.171319126071	3092.5
861.836734788823	3024.75
864.501292827579	2926.25
867.164993783208	2896.5
869.827838195361	2820.25
872.489826602454	2818.25
875.150959541701	2808.5
877.811237549104	2808
880.470661159456	2817.75
883.129230906357	2799.25
885.786947322205	2774
888.443810938206	2759
891.099822284385	2780.5
893.754981889586	2749.5
896.409290281452	2748
899.062747986485	2796
901.715355529999	2774.5
904.367113436154	2798.25
907.01802222793	2767.5
909.668082427172	2760.5
912.317294554574	2784
914.965659129659	2779.5
917.613176670835	2779.25
920.259847695364	2775.25
922.90567271936	2758
925.550652257825	2786.5
928.194786824621	2797.5
930.838076932512	2796
933.480523093109	2793.75
936.122125816953	2801.25
938.762885613447	2796.75
941.402802990899	2796
944.041878456523	2800.5
946.680112516428	2790.75
949.31750567563	2818.25
951.954058438081	2854
954.589771306633	2812.75
957.224644783048	2838.25
959.858679368044	2766.75
962.491875561238	2799.5
965.12423386121	2770.5
967.75575476545	2808
970.386438770423	2819.5
973.016286371501	2801.75
975.645298063046	2827.5
978.273474338355	2795.25
980.900815689674	2821.5
983.527322608243	2801.25
986.152995584245	2830.5
988.777835106834	2834
991.401841664148	2840.5
994.025015743307	2851.75
996.647357830407	2867
999.268868410534	2820.75
1001.88954796777	2880.25
1004.50939698518	2874.5
1007.12841594484	2863.5
1009.74660532783	2876.5
1012.36396561423	2879.25
1014.98049728314	2831
1017.59620081267	2859.5
1020.21107667995	2834.75
1022.82512536112	2854.25
1025.43834733138	2864.75
1028.05074306493	2878.75
1030.66231303501	2882.25
1033.27305771392	2870.5
1035.88297757299	2887
1038.49207308257	2885.5
1041.10034471211	2894.75
1043.70779293008	2912
1046.31441820402	2904.25
1048.92022100052	2883
1051.52520178525	2896.25
1054.12936102295	2901.25
1056.73269917742	2918.5
1059.33521671154	2909
1061.93691408729	2915
1064.53779176571	2903.75
1067.13785020694	2903.5
1069.73708987022	2919.5
1072.33551121386	2935.5
1074.93311469528	2894
1077.52990077103	2921.75
1080.12586989674	2919.25
1082.72102252714	2957.5
1085.31535911611	2966.5
1087.90888011663	2983.5
1090.50158598078	3034.75
1093.09347715979	3063.75
1095.68455410403	3055.75
1098.27481726296	3024.5
1100.86426708523	3024.5
1103.45290401857	3006.5
1106.04072850991	3021
1108.6277410053	2985.25
1111.21394194993	3002
1113.79933178816	3009.5
1116.3839109635	3065.5
1118.96767991862	3045.75
1121.55063909539	2998.5
1124.13278893477	3018.25
1126.71412987696	3004
1129.29466236132	2982
1131.87438682637	3003.5
1134.45330370982	2979
1137.03141344858	2979.5
1139.60871647872	2954.75
1142.18521323554	2941.5
1144.7609041535	2982.75
1147.33578966629	2996.5
1149.90987020676	2993.25
1152.48314620702	2995.25
1155.05561809835	2977.5
1157.62728631125	2953.25
1160.19815127545	2960
1162.76821341988	3000.25
1165.33747317271	2982.25
1167.90593096133	2964.25
1170.47358721235	2985.5
1173.04044235163	3037.75
1175.60649680425	3004
1178.17175099454	3020.75
1180.73620534607	3029.5
1183.29986028165	3000.75
1185.86271622336	3029.25
1188.42477359249	3004.5
1190.98603280964	2987.5
1193.54649429462	2986
1196.10615846653	2997
1198.66502574372	2952.75
1201.22309654385	2955.5
1203.78037128378	2935.5
1206.33685037971	2974.75
1208.89253424709	2952
1211.44742330063	2926
1214.00151795438	2933
1216.55481862163	2924.5
1219.10732571497	2930
1221.65903964631	2962
1224.20996082683	2944.25
1226.760089667	3013.25
1229.30942657664	2984.75
1231.85797196483	3003.5
1234.40572623998	3001
1236.95268980981	3036.75
1239.49886308136	3031.5
1242.04424646098	3019.5
1244.58884035435	3055.75
1247.13264516647	3025.25
1249.67566130166	3041.75
1252.21788916358	3027.75
1254.75932915524	3042.25
1257.29998167896	3105.25
1259.83984713639	3097.25
1262.37892592857	3123.25
1264.91721845586	3105.5
1267.45472511795	3141.75
1269.9914463139	3178.75
1272.52738244213	3232.25
1275.0625339004	3237.5
1277.59690108587	3338
1280.130484395	3340
1282.66328422367	3339.25
1285.19530096712	3341.25
1287.72653501993	3422.25
1290.25698677608	3366
1292.78665662894	3405
1295.31554497125	3326.5
1297.8436521951	3336.5
1300.37097869203	3255.75
1302.89752485292	3222.25
1305.42329106805	3217.5
1307.94827772713	3249
1310.47248521921	3237.25
1312.99591393279	3215.5
1315.51856425575	3223.25
1318.04043657536	3200
1320.56153127836	3172.5
1323.08184875083	3161
1325.6013893783	3152.5
1328.12015354572	3212.25
1330.63814163744	3164.25
1333.15535403727	3197.5
1335.67179112839	3214.25
1338.18745329347	3177.75
1340.70234091454	3242.5
1343.21645437314	3213.75
1345.72979405019	3235
1348.24236032607	3243.5
1350.75415358059	3271.5
1353.26517419303	3246.5
1355.7754225421	3226
1358.28489900594	3283
1360.79360396218	3267.5
1363.30153778787	3255
1365.80870085955	3277.5
1368.31509355319	3276
1370.82071624424	3266.5
1373.32556930762	3276.75
1375.8296531177	3224.25
1378.33296804832	3287.25
1380.83551447282	3248
1383.33729276399	3251.25
1385.83830329408	3217.75
1388.33854643489	3211.75
1390.83802255762	3225.5
1393.33673203301	3219.25
1395.83467523128	3196.75
1398.33185252211	3157
1400.82826427471	3192.25
1403.32391085777	3197.5
1405.81879263947	3250
1408.31290998752	3247.5
1410.80626326908	3234.25
1413.29885285087	3271.25
1415.79067909909	3265.25
1418.28174237944	3264.75
1420.77204305717	3272.25
1423.26158149702	3255
1425.75035806323	3259.25
1428.2383731196	3244.5
1430.72562702942	3257.25
1433.21212015554	3282.75
1435.69785286028	3289.75
1438.18282550555	3309
1440.66703845275	3276.5
1443.15049206284	3291.75
1445.6331866963	3335.75
1448.11512271316	3332.75
1450.59630047298	3325
1453.07672033486	3365
1455.55638265748	3357
1458.03528779902	3371
1460.51343611725	3367
1462.99082796946	3362.25
1465.46746371252	3389.75
1467.94334370285	3359.75
1470.41846829642	3360
1472.89283784878	3352
1475.36645271503	3385.75
1477.83931324983	3387.25
1480.31141980743	3411.25
1482.78277274164	3377.25
1485.25337240583	3368.75
1487.72321915297	3340.5
1490.19231333557	3364.5
1492.66065530578	3376.75
1495.12824541525	3332.75
1497.5950840153	3363
1500.06117145678	3326
1502.52650809014	3370
1504.99109426543	3333.25
1507.45493033227	3363
1509.91801663992	3353.25
1512.38035353717	3374.5
1514.84194137248	3378
1517.30278049386	3380
1519.76287124894	3363.75
1522.22221398497	3389.5
1524.68080904876	3384.5
1527.13865678681	3326
1529.59575754514	3404.25
1532.05211166945	3431.25
1534.50771950503	3414.25
1536.96258139678	3408.5
1539.41669768924	3452.75
1541.87006872656	3443.5
1544.32269485252	3486
1546.77457641051	3453.25
1549.22571374357	3507.75
1551.67610719434	3490.25
1554.12575710513	3505.75
1556.57466381785	3498.75
1559.02282767408	3545.25
1561.47024901499	3505.25
1563.91692818144	3539.75
1566.3628655139	3580
1568.80806135249	3536.75
1571.252516037	3548.5
1573.6962299068	3575.75
1576.13920330099	3588
1578.58143655828	3611.75
1581.02293001704	3644
1583.46368401528	3589.75
1585.90369889071	3614.75
1588.34297498065	3648.25
1590.7815126221	3591.25
1593.21931215173	3651.25
1595.65637390588	3625.75
1598.09269822053	3688.5
1600.52828543135	3737.75
1602.96313587367	3862.75
1605.3972498825	3986.5
1607.83062779252	4179.75
1610.26326993808	4445.5
1612.69517665322	4679.75
1615.12634827165	4686
1617.55678512676	4363.75
1619.98648755163	3952.75
1622.41545587902	3737.25
1624.84369044138	3652.5
1627.27119157085	3573
1629.69795959924	3541.75
1632.12399485808	3539.5
1634.54929767859	3524.5
1636.97386839165	3507.5
1639.39770732789	3491
1641.8208148176	3504.5
1644.24319119078	3474.75
1646.66483677715	3484.5
1649.0857519061	3499
1651.50593690677	3483
1653.92539210795	3464.75
1656.3441178382	3460.25
1658.76211442575	3494.75
1661.17938219855	3515.75
1663.59592148428	3532.25
1666.01173261032	3518
1668.42681590377	3541.25
1670.84117169145	3560
1673.25480029991	3537.75
1675.66770205541	3527
1678.07987728393	3592.5
1680.49132631119	3599.75
1682.90204946263	3563.5
1685.31204706342	3612
1687.72131943846	3612
1690.1298669124	3610.75
1692.53768980957	3649
1694.94478845411	3634.25
1697.35116316982	3609.75
1699.75681428031	3678.5
1702.16174210887	3655.5
1704.56594697858	3647.75
1706.96942921222	3671.5
1709.37218913235	3747.75
1711.77422706125	3740.75
1714.17554332098	3823.5
1716.5761382333	3948.75
1718.97601211977	3999.25
1721.37516530169	4127.25
1723.77359810006	4352
1726.17131083572	4379.75
1728.56830382922	4311
1730.96457740087	4200.75
1733.36013187075	4043.75
1735.75496755868	3933.5
1738.14908478428	3861.75
1740.54248386689	3807.25
1742.93516512565	3748
1745.32712887946	3714.5
1747.71837544697	3734
1750.10890514662	3661.25
1752.49871829661	3648.75
1754.88781521492	3664.5
1757.27619621929	3646.25
1759.66386162726	3633.75
1762.05081175612	3653
1764.43704692297	3657.75
1766.82256744465	3632
1769.20737363782	3615.5
1771.59146581887	3641.75
1773.97484430405	3671.5
1776.35750940932	3639
1778.73946145048	3631.25
1781.12070074309	3649.25
1783.50122760249	3677.25
1785.88104234385	3660.5
1788.26014528209	3699
1790.63853673196	3630
1793.01621700796	3667.25
1795.39318642443	3705.25
1797.76944529549	3687.25
1800.14499393503	3701
1802.51983265681	3693.75
1804.8939617743	3734.5
1807.26738160085	3737
1809.64009244957	3755.25
1812.01209463339	3654.75
1814.38338846504	3715.75
1816.75397425706	3711.25
1819.12385232181	3688.5
1821.49302297142	3727
1823.86148651789	3721.75
1826.22924327299	3691
1828.59629354831	3725
1830.96263765526	3733.5
1833.32827590507	3730
1835.69320860877	3730.5
1838.05743607724	3747.75
1840.42095862113	3680
1842.78377655097	3702.25
1845.14589017707	3703.5
1847.50729980956	3730
1849.86800575843	3763
1852.22800833346	3704.25
1854.58730784427	3709
1856.94590460032	3746.5
1859.30379891087	3756
1861.66099108503	3718.25
1864.01748143175	3751
1866.37327025978	3754.75
1868.72835787773	3734
1871.08274459403	3774.5
1873.43643071697	3730.75
1875.78941655464	3802
1878.14170241498	3764
1880.4932886058	3824
1882.84417543469	3813
1885.19436320915	3818.25
1887.54385223646	3832.25
1889.89264282378	3836
1892.24073527809	3824.25
1894.58812990625	3880.75
1896.93482701493	3891
1899.28082691067	3896.75
1901.62612989984	3882.25
1903.97073628868	3906.75
1906.31464638326	3928.25
1908.6578604895	3893.25
1911.00037891321	3970.75
1913.34220196	3948.25
1915.68332993537	3932.25
1918.02376314468	3971.25
1920.36350189311	3955.25
1922.70254648573	3989.25
1925.04089722744	3959.75
1927.37855442303	3953.75
1929.71551837715	3970.25
1932.05178939426	3941.5
1934.38736777876	3995.5
1936.72225383484	3950.5
1939.0564478666	4023.5
1941.38995017799	3977.25
1943.72276107283	3967.5
1946.05488085479	3978.25
1948.38630982744	3963
1950.71704829419	4010.75
1953.04709655832	3934.25
1955.376454923	3961.75
1957.70512369126	4004
1960.03310316599	3967.75
1962.36039364999	3935.75
1964.68699544589	3937
1967.01290885622	3968
1969.33813418338	3988.25
1971.66267172965	3978.5
1973.98652179718	4021
1976.309684688	4007.25
1978.63216070402	3994.5
1980.95395014705	4033.5
1983.27505331873	4003.5
1985.59547052063	4019.25
1987.9152020542	4055.25
1990.23424822074	4053.5
1992.55260932146	4052.5
1994.87028565746	4059.25
1997.18727752968	4062
1999.503585239	4058.5
2001.81920908618	4091.25
2004.13414937184	4095.5
2006.44840639651	4144.25
2008.7619804606	4146
2011.07487186442	4134.75
2013.38708090815	4129
2015.6986078919	4150.5
2018.00945311564	4177.5
2020.31961687923	4175
2022.62909948246	4198.75
2024.93790122498	4204.25
2027.24602240636	4215.25
2029.55346332604	4230
2031.86022428337	4225.75
2034.16630557761	4260.25
2036.47170750791	4296
2038.77643037331	4230.25
2041.08047447275	4280
2043.38384010509	4246.5
2045.68652756907	4263.5
2047.98853716335	4275.5
2050.28986918648	4288.75
2052.59052393692	4302.75
2054.89050171302	4301.25
2057.18980281306	4284
2059.4884275352	4312.25
2061.78637617753	4261
2064.08364903802	4287.5
2066.38024641457	4283.25
2068.67616860497	4313.75
2070.97141590694	4299
2073.26598861809	4324.25
2075.55988703595	4292
2077.85311145796	4301
2080.14566218145	4269.25
2082.43753950371	4314.25
2084.72874372188	4308.5
2087.01927513307	4308
2089.30913403428	4349.25
2091.59832072241	4302
2093.88683549429	4259
2096.17467864666	4313.75
2098.46185047619	4351.75
2100.74835127944	4385.75
2103.03418135292	4373.5
2105.31934099303	4336
2107.6038304961	4405.5
2109.88765015838	4389.5
2112.17080027602	4379.25
2114.45328114513	4370.5
2116.7350930617	4416.5
2119.01623632165	4425
2121.29671122085	4385.5
2123.57651805505	4454.5
2125.85565711996	4419
2128.13412871117	4442.25
2130.41193312424	4485
2132.68907065462	4447.75
2134.96554159771	4476.75
2137.24134624881	4500.25
2139.51648490317	4501.25
2141.79095785593	4505.5
2144.0647654022	4525.5
2146.33790783698	4517
2148.61038545524	4496.25
2150.88219855182	4575
2153.15334742154	4510.25
2155.42383235911	4588
2157.6936536592	4595
2159.9628116164	4575
2162.23130652522	4595.5
2164.49913868011	4606.25
2166.76630837544	4616.5
2169.03281590552	4572.5
2171.2986615646	4579
2173.56384564685	4610
2175.82836844637	4621
2178.0922302572	4616.5
2180.35543137332	4594.25
2182.61797208862	4612
2184.87985269695	4654.25
2187.14107349208	4654.5
2189.40163476773	4652.5
2191.66153681753	4658
2193.92077993507	4606.5
2196.17936441386	4681.5
2198.43729054735	4634.75
2200.69455862894	4691
2202.95116895194	4648.75
2205.20712180962	4637.75
2207.46241749519	4680
2209.71705630179	4675
2211.97103852248	4689.25
2214.2243644503	4711
2216.47703437819	4696.25
2218.72904859905	4673.5
2220.98040740571	4705
2223.23111109095	4725.25
2225.4811599475	4682.5
2227.73055426799	4715.25
2229.97929434504	4716.25
2232.22738047118	4663.75
2234.47481293889	4706.25
2236.72159204058	4727.25
2238.96771806864	4732.25
2241.21319131536	4684.5
2243.458012073	4694.25
2245.70218063374	4715.25
2247.94569728973	4737
2250.18856233304	4717.75
2252.4307760557	4696.25
2254.67233874967	4709.5
2256.91325070687	4771
2259.15351221915	4723.25
2261.39312357831	4737
2263.63208507611	4731.25
2265.87039700422	4819.25
2268.1080596543	4783.5
2270.34507331792	4779.25
2272.5814382866	4758.75
2274.81715485183	4791.25
2277.05222330502	4798.5
2279.28664393755	4796
2281.52041704072	4849.25
2283.75354290581	4884.75
2285.98602182401	4801
2288.21785408648	4794.25
2290.44903998434	4796.25
2292.67957980862	4861.5
2294.90947385033	4806.25
2297.1387224004	4847.5
2299.36732574975	4872.75
2301.59528418921	4871.5
2303.82259800958	4889.75
2306.04926750158	4856
2308.27529295593	4863.25
2310.50067466325	4893
2312.72541291412	4892
2314.9495079991	4899.25
2317.17296020866	4888.25
2319.39576983323	4911.5
2321.61793716322	4880.5
2323.83946248894	4880
2326.06034610069	4895.25
2328.28058828871	4939.25
2330.50018934317	4924.5
2332.7191495542	4912.5
2334.93746921192	4920
2337.15514860633	4943.5
2339.37218802743	4919.75
2341.58858776516	4913.25
2343.80434810941	4925
2346.01946935001	4901
2348.23395177675	4897.75
2350.44779567939	4932.25
2352.66100134759	4911.5
2354.87356907101	4931
2357.08549913925	4920.25
2359.29679184185	4901.5
2361.50744746829	5001.25
2363.71746630804	4928.75
2365.92684865048	4910.5
2368.13559478499	4945.5
2370.34370500083	4949.25
2372.55117958727	4900.25
2374.75801883352	4989.25
2376.96422302874	4927.75
2379.16979246202	4950.75
2381.37472742243	4966
2383.57902819898	4969.5
2385.78269508063	4933.25
2387.98572835629	4946.25
2390.18812831482	4963.25
2392.38989524505	4962.25
2394.59102943573	4925.5
2396.79153117559	4918.5
2398.9914007533	4939
2401.19063845748	4931.5
2403.38924457672	4915
2405.58721939951	4904.5
2407.78456321435	4916
2409.98127630966	4953.25
2412.17735897382	4931.75
2414.37281149517	4920
2416.56763416198	4898.25
2418.76182726249	4934.25
2420.95539108487	4909.25
2423.14832591726	4881
2425.34063204776	4909.5
2427.53230976439	4891
2429.72335935513	4960.25
2431.91378110795	4904
2434.10357531071	4886
2436.29274225125	4927.5
2438.48128221739	4916.75
2440.66919549683	4878.75
2442.8564823773	4926
2445.04314314641	4894.25
2447.22917809176	4882.5
2449.4145875009	4895.25
2451.59937166131	4928.25
2453.78353086044	4886.25
2455.96706538568	4913.25
2458.14997552436	4919
2460.33226156379	4892.75
2462.51392379119	4873
2464.69496249376	4891
2466.87537795862	4842.75
2469.05517047288	4891.5
2471.23434032357	4856.5
2473.41288779767	4896.75
2475.59081318211	4867.25
2477.76811676378	4891.5
2479.9447988295	4901.5
2482.12085966605	4846.75
2484.29629956016	4898.25
2486.4711187985	4875.25
2488.64531766769	4879.25
2490.8188964543	4888
2492.99185544484	4861.75
2495.16419492579	4919
2497.33591518353	4894.5
2499.50701650444	4856.25
2501.67749917482	4888
2503.84736348091	4840.25
2506.01660970891	4871
2508.18523814496	4843.75
2510.35324907514	4900.75
2512.52064278551	4956.75
2514.68741956201	4935.25
2516.85357969058	4954.5
2519.01912345709	4957.75
2521.18405114735	4947.75
2523.34836304711	4909.5
2525.51205944208	4937.75
2527.6751406179	4939.75
2529.83760686016	4932.75
2531.99945845439	4975
2534.16069568606	4954.5
2536.3213188406	4958.25
2538.48132820336	4893.25
2540.64072405965	4944.75
2542.79950669471	4920.5
2544.95767639373	5001.75
2547.11523344184	4931.5
2549.27217812411	4937.25
2551.42851072555	4954
2553.58423153111	4998.75
2555.73934082569	4929.25
2557.89383889412	4916
2560.04772602118	4951
2562.20100249158	4978
2564.35366858996	4912
2566.50572460093	4890.5
2568.65717080901	4955.5
2570.80800749867	4944
2572.95823495433	4921.25
2575.10785346031	4962.5
2577.25686330093	4873.25
2579.40526476038	4890
2581.55305812282	4905.5
2583.70024367237	4879.5
2585.84682169303	4900.75
2587.99279246879	4887
2590.13815628354	4861.25
2592.28291342112	4902.25
2594.42706416531	4837.75
2596.5706087998	4867
2598.71354760826	4909.5
2600.85588087425	4937
2602.99760888127	4893.5
2605.13873191278	4852.5
2607.27925025214	4817
2609.41916418269	4861.5
2611.55847398764	4885.75
2613.69717995017	4876.5
2615.83528235339	4959.75
2617.97278148034	4908
2620.10967761398	4882.75
2622.2459710372	4927.75
2624.38166203284	4919
2626.51675088365	4916.75
2628.65123787231	4878.25
2630.78512328145	4890.75
2632.9184073936	4908.75
2635.05109049124	4896.75
2637.18317285676	4877
2639.31465477248	4931.25
2641.44553652067	4891
2643.5758183835	4915.25
2645.70550064309	4892
2647.83458358144	4948
2649.96306748053	4939.25
2652.09095262223	4899.75
2654.21823928836	4967.25
2656.34492776063	4908.5
2658.47101832071	4912.5
2660.59651125015	4925.25
2662.72140683047	4912.25
2664.84570534309	4897.75
2666.96940706934	4933.5
2669.0925122905	4903
2671.21502128773	4891.75
2673.33693434215	4898.5
2675.45825173479	4899.25
2677.57897374658	4897.75
2679.69910065839	4906.75
2681.818632751	4904.75
2683.93757030511	4903.5
2686.05591360133	4902.25
2688.17366292021	4911.25
2690.29081854218	4920.25
2692.40738074762	4868.5
2694.52334981681	4890.5
2696.63872602995	4875
2698.75350966713	4893.75
2700.86770100841	4923.75
2702.98130033371	4859.25
2705.09430792289	4881
2707.20672405571	4898
2709.31854901185	4921.75
2711.42978307091	4936
2713.54042651238	4876.75
2715.65047961567	4895
2717.7599426601	4932.75
2719.86881592491	4912.75
2721.97709968924	4908.25
2724.08479423213	4900.25
2726.19189983255	4907.5
2728.29841676934	4935.5
2730.4043453213	4919.5
2732.5096857671	4971.25
2734.61443838532	4961.5
2736.71860345444	4904.25
2738.82218125286	4966.5
2740.92517205889	4952.25
2743.02757615072	4961.5
2745.12939380646	4920.75
2747.23062530411	4940.5
2749.33127092159	4989.75
2751.4313309367	4892.75
2753.53080562716	5003.75
2755.62969527058	4990
2757.72800014448	4950.5
2759.82572052625	4952
2761.92285669323	4943.5
2764.0194089226	4974.5
2766.11537749147	4966.75
2768.21076267686	4980.75
2770.30556475566	4969
2772.39978400465	4972
2774.49342070054	4957.75
2776.58647511991	4999
2778.67894753923	4964
2780.77083823487	4990.5
2782.8621474831	4992.25
2784.95287556007	4990.5
2787.04302274184	4977.25
2789.13258930433	4998.25
2791.22157552338	4985.5
2793.30998167471	4953.75
2795.39780803392	5005
2797.4850548765	5025.25
2799.57172247786	5000
2801.65781111324	4986.75
2803.74332105781	5010.25
2805.82825258661	5016.5
2807.91260597457	5053.75
2809.9963814965	4960.5
2812.07957942711	5021
2814.16220004096	4976
2816.24424361252	4988.5
2818.32571041614	4957.25
2820.40660072604	4969.5
2822.48691481631	5032
2824.56665296098	4994.5
2826.64581543388	5005.75
2828.72440250876	5043
2830.80241445925	5026.25
2832.87985155885	4998.5
2834.95671408093	5008
2837.03300229875	5042
2839.10871648544	5060.5
2841.18385691399	5047.25
2843.25842385729	5037.5
2845.33241758808	5068.25
2847.40583837898	5119
2849.4786865025	5078.75
2851.550962231	5089
2853.6226658367	5104.25
2855.69379759173	5093
2857.76435776806	5118
2859.83434663753	5070.75
2861.90376447184	5077.75
2863.97261154259	5133
2866.0408881212	5149.25
2868.10859447901	5164.5
2870.17573088717	5162
2872.24229761673	5131
2874.30829493859	5128
2876.37372312352	5124.5
2878.43858244215	5140.5
2880.50287316496	5142
2882.56659556231	5179.75
2884.62974990439	5182.5
2886.69233646129	5207.75
2888.75435550293	5161
2890.81580729909	5187.5
2892.87669211941	5246
2894.93701023339	5236
2896.99676191039	5232.25
2899.05594741961	5206.75
2901.1145670301	5229.25
2903.1726210108	5217.5
2905.23010963045	5225
2907.28703315768	5207
2909.34339186096	5280.5
2911.39918600861	5254.75
2913.45441586879	5226.5
2915.50908170952	5199
2917.56318379867	5213.25
2919.61672240395	5207.75
2921.66969779291	5213
2923.72211023295	5216.75
2925.77395999134	5218
2927.82524733515	5260.5
2929.87597253132	5283
2931.92613584663	5268
2933.97573754769	5244.75
2936.02477790097	5254.5
2938.07325717276	5211.75
2940.1211756292	5250
2942.16853353626	5201
2944.21533115976	5288.75
2946.26156876536	5256.5
2948.30724661853	5268
2950.3523649846	5288
2952.39692412872	5295.5
2954.44092431587	5304.25
2956.48436581089	5268
2958.52724887843	5277
2960.56957378296	5308.5
2962.6113407888	5374
2964.65255016011	5302
2966.69320216083	5384.75
2968.73329705479	5366
2970.77283510559	5295.75
2972.81181657671	5313
2974.8502417314	5309.5
2976.88811083279	5319.25
2978.92542414378	5341.5
2980.96218192713	5274.25
2982.99838444541	5321.25
2985.034031961	5306.5
2987.06912473612	5363.75
2989.1036630328	5320.75
2991.13764711288	5319.75
2993.17107723804	5320.75
2995.20395366974	5340.25
2997.23627666931	5367.25
2999.26804649782	5365
3001.29926341624	5395
3003.32992768528	5392.5
3005.3600395655	5399
3007.38959931726	5363.5
3009.41860720076	5396.75
3011.44706347595	5419.75
3013.47496840263	5416.75
3015.50232224041	5455
3017.5291252487	5424.75
3019.5553776867	5378
3021.58107981344	5419.25
3023.60623188773	5414.5
3025.63083416822	5434.75
3027.65488691331	5451.5
3029.67839038125	5453.75
3031.70134483007	5380.5
3033.72375051759	5461.5
3035.74560770144	5453.25
3037.76691663907	5465.5
3039.78767758768	5498.75
3041.80789080431	5483
3043.82755654577	5472
3045.84667506867	5469
3047.8652466294	5475
3049.88327148418	5491.25
3051.90074988899	5527.75
3053.91768209961	5508.5
3055.9340683716	5432.25
3057.94990896033	5522.25
3059.96520412095	5542
3061.97995410838	5566
3063.99415917734	5607.5
3066.00781958234	5651
3068.02093557766	5650.25
3070.03350741738	5680.75
3072.04553535535	5721
3074.05701964521	5749.25
3076.06796054036	5833.25
3078.078358294	5923
3080.08821315912	6171.5
3082.09752538846	6203.25
3084.10629523454	5954.25
3086.11452294967	5888
3088.12220878592	5749.75
3090.12935299515	5696.75
3092.13595582898	5632.5
3094.1420175388	5571
3096.14753837579	5531.25
3098.15251859088	5517.25
3100.15695843477	5474
3102.16085815793	5526
3104.16421801061	5498.25
3106.16703824282	5518
3108.16931910432	5518.5
3110.17106084464	5492.5
3112.17226371308	5552
3114.17292795872	5513.75
3116.17305383034	5543
3118.17264157657	5472.5
3120.17169144571	5501.25
3122.17020368587	5463
3124.16817854492	5520
3126.16561627044	5518.5
3128.16251710982	5568.75
3130.15888131017	5567.75
3132.15470911837	5575.25
3134.15000078104	5527.25
3136.14475654455	5606.25
3138.13897665502	5584
3140.13266135835	5593.5
3142.12581090014	5573
3144.11842552577	5557.5
3146.11050548036	5610.75
3148.10205100875	5587.75
3150.09306235557	5633.75
3152.08353976515	5590.25
3154.07348348158	5536.75
3156.06289374869	5606.25
3158.05177081006	5568.25
3160.04011490899	5566.5
3162.02792628852	5601.5
3164.01520519145	5563
3166.00195186029	5609.5
3167.98816653728	5618.75
3169.97384946442	5596.75
3171.95900088344	5609.25
3173.94362103577	5604.25
3175.92771016259	5616.25
3177.91126850484	5610.75
3179.89429630312	5598.25
3181.87679379782	5584
3183.85876122903	5636
3185.84019883657	5634
3187.82110685997	5574.25
3189.80148553851	5591
3191.78133511116	5658.5
3193.76065581664	5652
3195.73944789337	5641.75
3197.7177115795	5615.25
3199.6954471129	5632
3201.67265473114	5617.75
3203.64933467153	5604.25
3205.62548717107	5623.5
3207.60111246648	5672.75
3209.57621079421	5698.5
3211.55078239041	5686.75
3213.52482749093	5677.5
3215.49834633133	5682
3217.4713391469	5749.5
3219.44380617262	5728.5
3221.41574764317	5721.75
3223.38716379296	5726
3225.35805485607	5733.25
3227.32842106631	5735.75
3229.29826265718	5795.75
3231.26757986187	5791.5
3233.2363729133	5758.5
3235.20464204405	5774.75
3237.17238748643	5769.25
3239.13960947243	5785.5
3241.10630823374	5810.75
3243.07248400174	5779.5
3245.03813700748	5846.75
3247.00326748177	5826
3248.96787565503	5802.25
3250.93196175742	5813
3252.89552601877	5833.25
3254.8585686686	5840.25
3256.82108993612	5854
3258.78309005022	5853
3260.74456923948	5798.25
3262.70552773215	5856.25
3264.66596575617	5791.25
3266.62588353916	5841.25
3268.58528130843	5825.75
3270.54415929094	5808.5
3272.50251771336	5820.5
3274.46035680201	5887.25
3276.4176767829	5858.25
3278.37447788171	5863
3280.33076032379	5907
3282.28652433416	5865
3284.24177013751	5896.5
3286.1964979582	5904.5
3288.15070802027	5918.75
3290.10440054741	5920.75
3292.05757576298	5852
3294.01023389001	5890
3295.96237515119	5909.75
3297.91399976887	5897.5
3299.86510796506	5924
3301.81569996142	5884.25
3303.76577597932	5945
3305.7153362397	5891.25
3307.66438096324	5900.75
3309.61291037024	5947.75
3311.56092468064	5861.75
3313.50842411404	5887.5
3315.45540888971	5855
3317.40187922656	5843.5
3319.34783534315	5878.25
3321.29327745768	5833.5
3323.23820578801	5799.25
3325.18262055164	5913.25
3327.1265219657	5882.5
3329.06991024699	5877.75
3331.01278561194	5886.25
3332.95514827662	5854
3334.89699845674	5871.5
3336.83833636766	5928.25
3338.77916222434	5794.25
3340.71947624143	5881.75
3342.65927863317	5876.5
3344.59856961346	5862.5
3346.53734939584	5938.25
3348.47561819344	5901.75
3350.41337621906	5874.75
3352.35062368513	5848.5
3354.28736080368	5859.5
3356.22358778637	5901.75
3358.15930484452	5879.75
3360.09451218904	5918.5
3362.02921003047	5876.5
3363.96339857898	5913.5
3365.89707804436	5876
3367.83024863602	5883.5
3369.76291056299	5898.5
3371.69506403389	5865.25
3373.62670925699	5879.25
3375.55784644016	5908.75
3377.4884757909	5915.5
3379.41859751629	5929
3381.34821182305	5936
3383.27731891749	5922.25
3385.20591900555	5930
3387.13401229276	5981.5
3389.06159898426	5971.5
3390.9886792848	5991.25
3392.91525339872	5975.5
3394.84132152998	5984.75
3396.76688388213	5997
3398.69194065833	6024
3400.61649206133	6044.25
3402.54053829348	6015
3404.46407955672	5952.75
3406.3871160526	5948.5
3408.30964798225	5993.25
3410.23167554639	5998.75
3412.15319894535	6075
3414.07421837904	6016.5
3415.99473404695	5968
3417.91474614817	6031.5
3419.83425488136	6061.25
3421.75326044479	6062.25
3423.67176303631	6079
3425.58976285332	6114
3427.50726009282	6044.5
3429.42425495143	5969
3431.34074762528	5989.75
3433.25673831012	5998.25
3435.17222720127	6018.25
3437.08721449362	6046.25
3439.00170038164	5992.75
3440.91568505936	6007.75
3442.82916872039	5936.25
3444.74215155791	6071
3446.65463376468	5981.25
3448.566615533	5975
3450.47809705476	5953.25
3452.3890785214	6019.5
3454.29956012393	6023.5
3456.20954205293	6006.75
3458.11902449853	5983.75
3460.02800765041	5946.25
3461.93649169784	5981.25
3463.84447682962	5981
3465.75196323412	5942.75
3467.65895109925	6021.5
3469.56544061249	5962.75
3471.47143196086	5956.75
3473.37692533093	6001.25
3475.28192090884	5972.75
3477.18641888026	5988.5
3479.09041943039	6032
3480.99392274402	5985.25
3482.89692900545	5972.75
3484.79943839853	5959.5
3486.70145110666	5953.75
3488.60296731277	5969.5
3490.50398719933	5988.75
3492.40451094836	5922.75
3494.30453874141	5951.75
3496.20407075956	6035
3498.10310718342	5976.5
3500.00164819315	5923.75