201.866871357051	996.25
204.754250281454	998.25
207.640596790938	996.5
210.525911876299	1007.25
213.410196525689	1000.25
216.293451724508	1020.25
219.175678455485	1007.5
222.056877698662	1006.5
224.937050431388	1013
227.816197628363	1014.75
230.694320261602	1003.75
233.571419300504	1014
236.447495711764	1005.5
239.322550459507	994.75
242.196584505182	1000.75
245.069598807626	1023.25
247.941594323078	1006
250.812572005154	1024.5
253.682532804884	1045
256.551477670699	1035
259.419407548456	1051.75
262.286323381439	1060
265.152226110364	1080.75
268.017116673389	1091.25
270.880996006115	1091.25
273.743865041622	1091.5
276.605724710436	1093
279.466575940562	1104.5
282.326419657496	1082
285.1852567842	1052.75
288.043088241157	1032
290.899914946349	1018.75
293.75573781526	999
296.610557760898	985.75
299.464375693817	999.5
302.317192522078	970.25
305.169009151297	974.5
308.019826484655	960
310.86964542287	953.75
313.718466864233	953.25
316.566291704614	957.5
319.413120837457	946.75
322.258955153804	940.5
325.103795542291	948.75
327.947642889128	941.75
330.79049807819	937.75
333.632361990927	949.5
336.473235506444	945.5
339.31311950145	944.25
342.152014850322	937
344.989922425062	943
347.826843095354	950.75
350.662777728528	956.25
353.497727189577	945.25
356.331692341195	946.75
359.164674043732	955.75
361.996673155267	958.75
364.827690531536	945.5
367.65772702602	949.75
370.486783489887	946.75
373.314860772047	957.75
376.14195971912	943.5
378.968081175466	953.75
381.793225983212	946.5
384.617394982201	950
387.44058901005	942.75
390.262808902131	953.75
393.08405549161	934.75
395.904329609395	947.25
398.723632084213	946.5
401.541963742569	953.75
404.359325408779	963.5
407.175717904938	960.25
409.991142050982	975.25
412.805598664665	959.5
415.619088561551	945.75
418.43161255505	946.25
421.243171456415	952.25
424.053766074758	949.5
426.863397217017	959.5
429.672065688024	961.5
432.479772290455	954
435.286517824879	966
438.092303089736	956.5
440.897128881359	962.5
443.70099599399	964.5
446.503905219761	955.5
449.305857348711	950.25
452.106853168796	946.75
454.906893465919	960.5
457.705979023885	962.75
460.504110624439	969.5
463.3012890473	950.5
466.097515070087	953.5
468.892789468424	954
471.687113015869	949.5
474.48048648395	948.25
477.272910642198	943.5
480.064386258109	946.5
482.854914097159	960.5
485.644494922839	951.5
488.433129496636	953.75
491.220818578047	951
494.007562924584	942.25
496.793363291785	968
499.578220433217	952.75
502.362135100473	960
505.145108043209	957
507.927140009098	970.75
510.708231743909	960.25
513.488383991433	954
516.267597493556	960.75
519.04587299022	964.25
521.82321121946	949.25
524.599612917398	951.25
527.375078818233	963.5
530.149609654287	950.75
532.923206155967	967.25
535.695869051804	954.5
538.467599068448	946.25
541.238396930665	961.75
544.008263361364	960.75
546.777199081578	953
549.545204810493	951.75
552.312281265436	964.5
555.078429161898	979.5
557.843649213533	966.5
560.607942132156	965.75
563.371308627753	973
566.133749408495	979.25
568.895265180756	977.25
571.655856649064	978
574.415524516189	964.25
577.174269483075	963
579.932092248884	960.5
582.688993510994	960.5
585.444973965023	954.5
588.200034304795	966
590.95417522237	967.25
593.70739740807	968
596.459701550433	953.5
599.21108833628	960
601.961558450668	969.25
604.711112576933	961.25
607.459751396673	964.25
610.207475589748	960.5
612.954285834338	965.25
615.700182806879	959
618.445167182101	969
621.189239633055	986
623.932400831087	1042.75
626.674651445839	1155.75
629.415992145303	1314
632.156423595745	1392.75
634.895946461813	1280.75
637.634561406449	1112.25
640.37226909096	1014.75
643.109070174978	973.25
645.844965316508	970.5
648.579955171888	948.5
651.314040395846	967.75
654.047221641456	965
656.779499560176	967
659.510874801828	965
662.241348014642	963.75
664.97091984524	954
667.699590938606	958.75
670.427361938164	963.25
673.15423348573	963.5
675.880206221526	969
678.605280784206	977
681.329457810829	979.5
684.05273793692	983.5
686.775121796389	963.5
689.49661002163	964
692.217203243454	976.5
694.936902091144	1001
697.655707192425	1048.25
700.373619173493	1080
703.09063865901	1087
705.806766272093	1078.25
708.522002634378	1047.25
711.236348365946	1012
713.94980408538	975
716.662370409762	958.75
719.374047954676	965.5
722.08483733419	969.25
724.794739160909	968
727.503754045949	953.75
730.21188259892	964.5
732.919125427998	968.25
735.625483139855	957.25
738.330956339723	981
741.035545631374	965.75
743.739251617106	967.5
746.44207489779	963.25
749.144016072852	962.75
751.845075740272	962.75
754.545254496603	954.25
757.244552936976	963.5
759.94297165508	966.25
762.640511243222	975.75
765.337172292249	959
768.032955391649	975
770.727861129482	969
773.421890092413	975.75
776.11504286572	974
778.807320033298	1001.25
781.49872217765	996.75
784.18924987991	1016.75
786.87890371984	1033.25
789.567684275826	1076.75
792.255592124908	1115.75
794.94262784276	1140.25
797.628792003703	1100.5
800.314085180715	1081.5
802.998507945427	1075.25
805.682060868145	1074.75
808.364744517821	1069.75
811.046559462105	1085.75
813.727506267311	1085.5
816.407585498422	1097.5
819.08679771913	1089.5
821.765143491822	1096.5
824.442623377563	1108.75
827.119237936127	1110.25
829.794987726003	1106.25
832.469873304377	1099.25
835.143895227167	1115.5
837.817054048985	1136
840.489350323205	1157.75
843.160784601892	1208.25
845.831357435894	1264
848.501069374739	1341.75
851.169920966753	1471
853.837912758987	1562.25
856.505045297232	1646.5
859.171319126071	1615.5
861.836734788823	1490
864.501292827579	1356
867.164993783208	1233
869.827838195361	1180.25
872.489826602454	1145.75
875.150959541701	1138.25
877.811237549104	1135
880.470661159456	1134.25
883.129230906357	1134.5
885.786947322205	1130.5
888.443810938206	1121.5
891.099822284385	1103.5
893.754981889586	1094
896.409290281452	1085.75
899.062747986485	1075.25
901.715355529999	1070.5
904.367113436154	1038
907.01802222793	1017.25
909.668082427172	1024.5
912.317294554574	1003.25
914.965659129659	1001.25
917.613176670835	1011.75
920.259847695364	996.75
922.90567271936	997
925.550652257825	999.5
928.194786824621	1010
930.838076932512	1001.5
933.480523093109	991.5
936.122125816953	986.75
938.762885613447	996
941.402802990899	996.5
944.041878456523	999.25
946.680112516428	998.5
949.31750567563	1000.25
951.954058438081	1000.25
954.589771306633	1001
957.224644783048	1003.5
959.858679368044	1000.5
962.491875561238	1013.25
965.12423386121	1016.25
967.75575476545	1014
970.386438770423	1023
973.016286371501	1015.5
975.645298063046	1027.75
978.273474338355	1022.25
980.900815689674	1019
983.527322608243	1050.25
986.152995584245	1037.25
988.777835106834	1045.75
991.401841664148	1056.5
994.025015743307	1082.25
996.647357830407	1099
999.268868410534	1096.75
1001.88954796777	1105.75
1004.50939698518	1079
1007.12841594484	1075.75
1009.74660532783	1046
1012.36396561423	1073
1014.98049728314	1047.5
1017.59620081267	1052.25
1020.21107667995	1064.25
1022.82512536112	1060.75
1025.43834733138	1065.5
1028.05074306493	1095.25
1030.66231303501	1075.75
1033.27305771392	1087.5
1035.88297757299	1080.75
1038.49207308257	1070
1041.10034471211	1064.25
1043.70779293008	1067
1046.31441820402	1053
1048.92022100052	1055.5
1051.52520178525	1056.25
1054.12936102295	1050
1056.73269917742	1042.5
1059.33521671154	1058
1061.93691408729	1045
1064.53779176571	1061
1067.13785020694	1060
1069.73708987022	1056
1072.33551121386	1062.5
1074.93311469528	1069.75
1077.52990077103	1079.5
1080.12586989674	1085
1082.72102252714	1122
1085.31535911611	1151.75
1087.90888011663	1180.25
1090.50158598078	1245.25
1093.09347715979	1292
1095.68455410403	1288.25
1098.27481726296	1287.25
1100.86426708523	1270
1103.45290401857	1277
1106.04072850991	1279.5
1108.6277410053	1288.5
1111.21394194993	1308.75
1113.79933178816	1321.25
1116.3839109635	1365.75
1118.96767991862	1337
1121.55063909539	1322
1124.13278893477	1294.25
1126.71412987696	1259
1129.29466236132	1221.25
1131.87438682637	1189.75
1134.45330370982	1146.5
1137.03141344858	1144.25
1139.60871647872	1117.75
1142.18521323554	1097.25
1144.7609041535	1088.25
1147.33578966629	1074
1149.90987020676	1070.5
1152.48314620702	1076.5
1155.05561809835	1067.75
1157.62728631125	1059.5
1160.19815127545	1080.5
1162.76821341988	1086.5
1165.33747317271	1099.75
1167.90593096133	1131.25
1170.47358721235	1172.25
1173.04044235163	1201.5
1175.60649680425	1213.75
1178.17175099454	1218.5
1180.73620534607	1206.75
1183.29986028165	1161.25
1185.86271622336	1144.75
1188.42477359249	1111.25
1190.98603280964	1093.25
1193.54649429462	1089.5
1196.10615846653	1083
1198.66502574372	1066.75
1201.22309654385	1048.75
1203.78037128378	1067
1206.33685037971	1060.25
1208.89253424709	1057
1211.44742330063	1052
1214.00151795438	1052.75
1216.55481862163	1049.5
1219.10732571497	1063.5
1221.65903964631	1061.25
1224.20996082683	1068
1226.760089667	1073.25
1229.30942657664	1083.25
1231.85797196483	1074.5
1234.40572623998	1100.25
1236.95268980981	1101.25
1239.49886308136	1112.75
1242.04424646098	1127.25
1244.58884035435	1100.5
1247.13264516647	1139.25
1249.67566130166	1132
1252.21788916358	1153.5
1254.75932915524	1177.75
1257.29998167896	1199.75
1259.83984713639	1239.75
1262.37892592857	1283.5
1264.91721845586	1334.5
1267.45472511795	1370.25
1269.9914463139	1421.75
1272.52738244213	1494
1275.0625339004	1590.25
1277.59690108587	1686.75
1280.130484395	1742.5
1282.66328422367	1792.75
1285.19530096712	1869.5
1287.72653501993	1902
1290.25698677608	1867.25
1292.78665662894	1816.75
1295.31554497125	1722.75
1297.8436521951	1603.25
1300.37097869203	1525.25
1302.89752485292	1452
1305.42329106805	1424.75
1307.94827772713	1404.75
1310.47248521921	1363.75
1312.99591393279	1314
1315.51856425575	1286
1318.04043657536	1231.5
1320.56153127836	1223
1323.08184875083	1202
1325.6013893783	1174.75
1328.12015354572	1160.75
1330.63814163744	1161
1333.15535403727	1152.5
1335.67179112839	1155.25
1338.18745329347	1132.75
1340.70234091454	1148.5
1343.21645437314	1125.75
1345.72979405019	1133.75
1348.24236032607	1136
1350.75415358059	1130
1353.26517419303	1134.25
1355.7754225421	1131.5
1358.28489900594	1150.25
1360.79360396218	1164
1363.30153778787	1166.5
1365.80870085955	1161.25
1368.31509355319	1177
1370.82071624424	1182.25
1373.32556930762	1182
1375.8296531177	1170
1378.33296804832	1171.75
1380.83551447282	1147.5
1383.33729276399	1141.5
1385.83830329408	1147.5
1388.33854643489	1148.5
1390.83802255762	1139.75
1393.33673203301	1150.75
1395.83467523128	1141.75
1398.33185252211	1158.75
1400.82826427471	1158.75
1403.32391085777	1183.5
1405.81879263947	1199.5
1408.31290998752	1230.25
1410.80626326908	1255.25
1413.29885285087	1266.25
1415.79067909909	1261.25
1418.28174237944	1217
1420.77204305717	1197
1423.26158149702	1174.5
1425.75035806323	1161.75
1428.2383731196	1151.5
1430.72562702942	1155.25
1433.21212015554	1171.5
1435.69785286028	1176.5
1438.18282550555	1207.5
1440.66703845275	1221.25
1443.15049206284	1220.75
1445.6331866963	1227.25
1448.11512271316	1221.5
1450.59630047298	1252
1453.07672033486	1263.25
1455.55638265748	1243.25
1458.03528779902	1254.25
1460.51343611725	1234.25
1462.99082796946	1211.5
1465.46746371252	1192.25
1467.94334370285	1189.75
1470.41846829642	1180.25
1472.89283784878	1172.25
1475.36645271503	1168.75
1477.83931324983	1153
1480.31141980743	1145.75
1482.78277274164	1145.75
1485.25337240583	1149
1487.72321915297	1139
1490.19231333557	1146.25
1492.66065530578	1136
1495.12824541525	1141.5
1497.5950840153	1149.75
1500.06117145678	1138.5
1502.52650809014	1148.5
1504.99109426543	1158.5
1507.45493033227	1157.25
1509.91801663992	1141
1512.38035353717	1153.5
1514.84194137248	1152
1517.30278049386	1139
1519.76287124894	1140.5
1522.22221398497	1138.5
1524.68080904876	1147
1527.13865678681	1149
1529.59575754514	1153.5
1532.05211166945	1159
1534.50771950503	1159.25
1536.96258139678	1157.25
1539.41669768924	1163.5
1541.87006872656	1161
1544.32269485252	1163
1546.77457641051	1168.75
1549.22571374357	1180.5
1551.67610719434	1165.5
1554.12575710513	1187.5
1556.57466381785	1171.5
1559.02282767408	1186
1561.47024901499	1198.25
1563.91692818144	1177.5
1566.3628655139	1208.75
1568.80806135249	1216.25
1571.252516037	1206.75
1573.6962299068	1232
1576.13920330099	1232.75
1578.58143655828	1261.75
1581.02293001704	1263.25
1583.46368401528	1249.5
1585.90369889071	1252.5
1588.34297498065	1289.5
1590.7815126221	1323.5
1593.21931215173	1343
1595.65637390588	1411.5
1598.09269822053	1520.25
1600.52828543135	1698
1602.96313587367	1974
1605.3972498825	2399.25
1607.83062779252	3049
1610.26326993808	3908.5
1612.69517665322	4604
1615.12634827165	4558.5
1617.55678512676	3625
1619.98648755163	2579.75
1622.41545587902	1921.75
1624.84369044138	1585
1627.27119157085	1428
1629.69795959924	1367
1632.12399485808	1300.5
1634.54929767859	1282.5
1636.97386839165	1274.5
1639.39770732789	1249.5
1641.8208148176	1240.75
1644.24319119078	1233.25
1646.66483677715	1220.25
1649.0857519061	1227.25
1651.50593690677	1225.25
1653.92539210795	1236.5
1656.3441178382	1213.25
1658.76211442575	1215
1661.17938219855	1199.75
1663.59592148428	1233.5
1666.01173261032	1228.5
1668.42681590377	1225.75
1670.84117169145	1247
1673.25480029991	1229.75
1675.66770205541	1250.75
1678.07987728393	1259.25
1680.49132631119	1274.25
1682.90204946263	1277
1685.31204706342	1273.25
1687.72131943846	1268
1690.1298669124	1292.5
1692.53768980957	1292.25
1694.94478845411	1303
1697.35116316982	1312.25
1699.75681428031	1331
1702.16174210887	1355.75
1704.56594697858	1422.25
1706.96942921222	1499.25
1709.37218913235	1659.75
1711.77422706125	1811.75
1714.17554332098	2068.25
1716.5761382333	2317
1718.97601211977	2582.25
1721.37516530169	2824.5
1723.77359810006	2998.25
1726.17131083572	3087
1728.56830382922	3019.25
1730.96457740087	2758.25
1733.36013187075	2531
1735.75496755868	2316.25
1738.14908478428	2113.25
1740.54248386689	1939
1742.93516512565	1759.5
1745.32712887946	1603.75
1747.71837544697	1519.75
1750.10890514662	1435
1752.49871829661	1374
1754.88781521492	1354.75
1757.27619621929	1319.75
1759.66386162726	1305.75
1762.05081175612	1310.75
1764.43704692297	1293.25
1766.82256744465	1264.75
1769.20737363782	1285.75
1771.59146581887	1264
1773.97484430405	1270.5
1776.35750940932	1261.25
1778.73946145048	1269.25
1781.12070074309	1276.5
1783.50122760249	1267.5
1785.88104234385	1263.75
1788.26014528209	1283.75
1790.63853673196	1269.75
1793.01621700796	1271.75
1795.39318642443	1280
1797.76944529549	1276
1800.14499393503	1262.75
1802.51983265681	1257.25
1804.8939617743	1269.25
1807.26738160085	1270.25
1809.64009244957	1268.5
1812.01209463339	1264.5
1814.38338846504	1269.25
1816.75397425706	1256.5
1819.12385232181	1261
1821.49302297142	1267.75
1823.86148651789	1272.5
1826.22924327299	1264.75
1828.59629354831	1283.5
1830.96263765526	1261.5
1833.32827590507	1268.75
1835.69320860877	1277.5
1838.05743607724	1271.75
1840.42095862113	1258.75
1842.78377655097	1246.5
1845.14589017707	1253.25
1847.50729980956	1262.5
1849.86800575843	1265.25
1852.22800833346	1269.25
1854.58730784427	1270.25
1856.94590460032	1250
1859.30379891087	1259.25
1861.66099108503	1265
1864.01748143175	1274.5
1866.37327025978	1275.75
1868.72835787773	1267
1871.08274459403	1274.5
1873.43643071697	1269.25
1875.78941655464	1292.25
1878.14170241498	1273
1880.4932886058	1278.25
1882.84417543469	1273.5
1885.19436320915	1280
1887.54385223646	1272.5
1889.89264282378	1290
1892.24073527809	1280.25
1894.58812990625	1289.5
1896.93482701493	1309.5
1899.28082691067	1297.75
1901.62612989984	1294
1903.97073628868	1288.5
1906.31464638326	1274.75
1908.6578604895	1302
1911.00037891321	1290.5
1913.34220196	1317
1915.68332993537	1327.5
1918.02376314468	1293.5
1920.36350189311	1324
1922.70254648573	1316
1925.04089722744	1329.75
1927.37855442303	1321.25
1929.71551837715	1324.75
1932.05178939426	1311.75
1934.38736777876	1328.75
1936.72225383484	1321
1939.0564478666	1329.75
1941.38995017799	1323
1943.72276107283	1318
1946.05488085479	1305.75
1948.38630982744	1320.75
1950.71704829419	1319.25
1953.04709655832	1315
1955.376454923	1313.5
1957.70512369126	1331.5
1960.03310316599	1328
1962.36039364999	1325.75
1964.68699544589	1315.75
1967.01290885622	1322.75
1969.33813418338	1310.25
1971.66267172965	1340.75
1973.98652179718	1324.75
1976.309684688	1343.25
1978.63216070402	1330.75
1980.95395014705	1344
1983.27505331873	1332.25
1985.59547052063	1346.5
1987.9152020542	1347.75
1990.23424822074	1352.25
1992.55260932146	1341.75
1994.87028565746	1339.25
1997.18727752968	1348.75
1999.503585239	1357.25
2001.81920908618	1329.5
2004.13414937184	1357.75
2006.44840639651	1369.5
2008.7619804606	1374.25
2011.07487186442	1361.25
2013.38708090815	1385
2015.6986078919	1364.25
2018.00945311564	1356
2020.31961687923	1383
2022.62909948246	1369.5
2024.93790122498	1397.25
2027.24602240636	1374.5
2029.55346332604	1399.75
2031.86022428337	1394.75
2034.16630557761	1409.5
2036.47170750791	1400
2038.77643037331	1394.5
2041.08047447275	1399.75
2043.38384010509	1400.75
2045.68652756907	1406.25
2047.98853716335	1402.5
2050.28986918648	1399
2052.59052393692	1409
2054.89050171302	1431.25
2057.18980281306	1397.25
2059.4884275352	1424.25
2061.78637617753	1401
2064.08364903802	1416.75
2066.38024641457	1415.5
2068.67616860497	1428
2070.97141590694	1401.5
2073.26598861809	1415
2075.55988703595	1398
2077.85311145796	1411
2080.14566218145	1411
2082.43753950371	1436
2084.72874372188	1423.5
2087.01927513307	1421.5
2089.30913403428	1426.5
2091.59832072241	1416.25
2093.88683549429	1440
2096.17467864666	1409.75
2098.46185047619	1438.25
2100.74835127944	1437
2103.03418135292	1442.5
2105.31934099303	1421.25
2107.6038304961	1437.25
2109.88765015838	1426.25
2112.17080027602	1442.25
2114.45328114513	1454.5
2116.7350930617	1440.75
2119.01623632165	1464.75
2121.29671122085	1462.5
2123.57651805505	1461.5
2125.85565711996	1467
2128.13412871117	1478.75
2130.41193312424	1454.5
2132.68907065462	1468.5
2134.96554159771	1452.25
2137.24134624881	1459.5
2139.51648490317	1479.75
2141.79095785593	1463.75
2144.0647654022	1481.25
2146.33790783698	1492.75
2148.61038545524	1487.25
2150.88219855182	1504
2153.15334742154	1513
2155.42383235911	1501
2157.6936536592	1508
2159.9628116164	1492.75
2162.23130652522	1511.25
2164.49913868011	1490.5
2166.76630837544	1532
2169.03281590552	1513.25
2171.2986615646	1524
2173.56384564685	1527.25
2175.82836844637	1524.25
2178.0922302572	1519.75
2180.35543137332	1526
2182.61797208862	1545.25
2184.87985269695	1498.75
2187.14107349208	1516.75
2189.40163476773	1527.25
2191.66153681753	1529.75
2193.92077993507	1523.75
2196.17936441386	1515.75
2198.43729054735	1519.5
2200.69455862894	1523
2202.95116895194	1552
2205.20712180962	1536.25
2207.46241749519	1519.75
2209.71705630179	1536
2211.97103852248	1528
2214.2243644503	1537.75
2216.47703437819	1554
2218.72904859905	1555.75
2220.98040740571	1551.25
2223.23111109095	1543.5
2225.4811599475	1550.75
2227.73055426799	1545
2229.97929434504	1545
2232.22738047118	1550.5
2234.47481293889	1537
2236.72159204058	1551
2238.96771806864	1565.75
2241.21319131536	1557
2243.458012073	1558.5
2245.70218063374	1557.25
2247.94569728973	1575.5
2250.18856233304	1583.5
2252.4307760557	1570
2254.67233874967	1563
2256.91325070687	1570.5
2259.15351221915	1577.5
2261.39312357831	1578.5
2263.63208507611	1580.25
2265.87039700422	1576.75
2268.1080596543	1600.75
2270.34507331792	1582.25
2272.5814382866	1596
2274.81715485183	1596.5
2277.05222330502	1599.75
2279.28664393755	1612
2281.52041704072	1597.75
2283.75354290581	1615.25
2285.98602182401	1601.75
2288.21785408648	1607.75
2290.44903998434	1615.5
2292.67957980862	1618.75
2294.90947385033	1618
2297.1387224004	1634.5
2299.36732574975	1643.5
2301.59528418921	1630.5
2303.82259800958	1624.5
2306.04926750158	1641
2308.27529295593	1640.25
2310.50067466325	1630
2312.72541291412	1631.5
2314.9495079991	1659
2317.17296020866	1647.5
2319.39576983323	1648.5
2321.61793716322	1630
2323.83946248894	1645.5
2326.06034610069	1640.5
2328.28058828871	1652.25
2330.50018934317	1662.5
2332.7191495542	1645.25
2334.93746921192	1673
2337.15514860633	1675.5
2339.37218802743	1645
2341.58858776516	1654.75
2343.80434810941	1648.5
2346.01946935001	1662.25
2348.23395177675	1654.25
2350.44779567939	1649
2352.66100134759	1653
2354.87356907101	1685.25
2357.08549913925	1672.75
2359.29679184185	1661.5
2361.50744746829	1687.5
2363.71746630804	1675
2365.92684865048	1661
2368.13559478499	1658.5
2370.34370500083	1683.5
2372.55117958727	1678.25
2374.75801883352	1680.25
2376.96422302874	1661.75
2379.16979246202	1679.25
2381.37472742243	1667.5
2383.57902819898	1680.75
2385.78269508063	1686.25
2387.98572835629	1680
2390.18812831482	1664.25
2392.38989524505	1666.75
2394.59102943573	1688.5
2396.79153117559	1698
2398.9914007533	1650.5
2401.19063845748	1698.5
2403.38924457672	1684.75
2405.58721939951	1696
2407.78456321435	1686.25
2409.98127630966	1671
2412.17735897382	1695.75
2414.37281149517	1713.5
2416.56763416198	1717.25
2418.76182726249	1710.75
2420.95539108487	1685.75
2423.14832591726	1682
2425.34063204776	1688.5
2427.53230976439	1711.75
2429.72335935513	1743.5
2431.91378110795	1700
2434.10357531071	1703
2436.29274225125	1697
2438.48128221739	1706.5
2440.66919549683	1719.75
2442.8564823773	1715.25
2445.04314314641	1730
2447.22917809176	1718.5
2449.4145875009	1724.25
2451.59937166131	1704.5
2453.78353086044	1711.25
2455.96706538568	1704.25
2458.14997552436	1725
2460.33226156379	1721.25
2462.51392379119	1734.75
2464.69496249376	1724.25
2466.87537795862	1735.75
2469.05517047288	1741.5
2471.23434032357	1735.5
2473.41288779767	1728.75
2475.59081318211	1723.75
2477.76811676378	1722.75
2479.9447988295	1712.5
2482.12085966605	1705.5
2484.29629956016	1736.25
2486.4711187985	1734
2488.64531766769	1738.25
2490.8188964543	1735
2492.99185544484	1738.75
2495.16419492579	1756
2497.33591518353	1756
2499.50701650444	1747.25
2501.67749917482	1750.75
2503.84736348091	1749.5
2506.01660970891	1749.25
2508.18523814496	1767.5
2510.35324907514	1751.5
2512.52064278551	1766
2514.68741956201	1771
2516.85357969058	1788.75
2519.01912345709	1784.25
2521.18405114735	1773.75
2523.34836304711	1787.25
2525.51205944208	1796
2527.6751406179	1776.5
2529.83760686016	1786.25
2531.99945845439	1823.25
2534.16069568606	1803.25
2536.3213188406	1780.75
2538.48132820336	1792.5
2540.64072405965	1806.25
2542.79950669471	1785.5
2544.95767639373	1806.5
2547.11523344184	1812.75
2549.27217812411	1818
2551.42851072555	1815
2553.58423153111	1812.75
2555.73934082569	1821
2557.89383889412	1833
2560.04772602118	1819.5
2562.20100249158	1827.75
2564.35366858996	1811
2566.50572460093	1829
2568.65717080901	1839.5
2570.80800749867	1832.5
2572.95823495433	1826.25
2575.10785346031	1814.75
2577.25686330093	1830
2579.40526476038	1822.25
2581.55305812282	1804.75
2583.70024367237	1808.25
2585.84682169303	1846.25
2587.99279246879	1821.75
2590.13815628354	1830.75
2592.28291342112	1834.25
2594.42706416531	1852.5
2596.5706087998	1850
2598.71354760826	1852
2600.85588087425	1848.25
2602.99760888127	1863
2605.13873191278	1859.5
2607.27925025214	1863.5
2609.41916418269	1883.75
2611.55847398764	1888.5
2613.69717995017	1865.75
2615.83528235339	1912
2617.97278148034	1870.25
2620.10967761398	1894.75
2622.2459710372	1913.25
2624.38166203284	1911.25
2626.51675088365	1882.25
2628.65123787231	1875.25
2630.78512328145	1893.75
2632.9184073936	1908.75
2635.05109049124	1875
2637.18317285676	1874.75
2639.31465477248	1878.5
2641.44553652067	1901.75
2643.5758183835	1854
2645.70550064309	1868.5
2647.83458358144	1893.25
2649.96306748053	1889.75
2652.09095262223	1864
2654.21823928836	1891.5
2656.34492776063	1877.5
2658.47101832071	1876.75
2660.59651125015	1886.25
2662.72140683047	1872
2664.84570534309	1894
2666.96940706934	1885.5
2669.0925122905	1890.5
2671.21502128773	1904.25
2673.33693434215	1902.25
2675.45825173479	1896.75
2677.57897374658	1917.5
2679.69910065839	1908.25
2681.818632751	1910
2683.93757030511	1902.5
2686.05591360133	1896.25
2688.17366292021	1912.25
2690.29081854218	1929.75
2692.40738074762	1892
2694.52334981681	1926.5
2696.63872602995	1905.75
2698.75350966713	1904.5
2700.86770100841	1907.75
2702.98130033371	1902.25
2705.09430792289	1910.25
2707.20672405571	1922.75
2709.31854901185	1928.25
2711.42978307091	1921.5
2713.54042651238	1947.25
2715.65047961567	1956.5
2717.7599426601	1948.5
2719.86881592491	1920
2721.97709968924	1950.75
2724.08479423213	1926.75
2726.19189983255	1960.5
2728.29841676934	1941.25
2730.4043453213	1969
2732.5096857671	1959.75
2734.61443838532	1959.25
2736.71860345444	1963.75
2738.82218125286	1962.25
2740.92517205889	1959.25
2743.02757615072	1982.25
2745.12939380646	1965
2747.23062530411	1962.5
2749.33127092159	1990
2751.4313309367	1967.5
2753.53080562716	1981.75
2755.62969527058	2010.25
2757.72800014448	1978.75
2759.82572052625	2008.25
2761.92285669323	1988.25
2764.0194089226	2009.25
2766.11537749147	1987.25
2768.21076267686	2020.75
2770.30556475566	2010
2772.39978400465	2001.75
2774.49342070054	2014.5
2776.58647511991	2023.5
2778.67894753923	2050.25
2780.77083823487	2017.25
2782.8621474831	2046.75
2784.95287556007	2020
2787.04302274184	2032
2789.13258930433	2034.5
2791.22157552338	2033.5
2793.30998167471	2031.5
2795.39780803392	2052
2797.4850548765	2065.75
2799.57172247786	2057.5
2801.65781111324	2037
2803.74332105781	2032.25
2805.82825258661	2048.5
2807.91260597457	2044.75
2809.9963814965	2028.25
2812.07957942711	2041
2814.16220004096	2034.75
2816.24424361252	2080.25
2818.32571041614	2062
2820.40660072604	2063
2822.48691481631	2062
2824.56665296098	2060.25
2826.64581543388	2082.75
2828.72440250876	2075.25
2830.80241445925	2056
2832.87985155885	2055.75
2834.95671408093	2078.75
2837.03300229875	2068.5
2839.10871648544	2065.75
2841.18385691399	2082.25
2843.25842385729	2089.25
2845.33241758808	2085.75
2847.40583837898	2081.5
2849.4786865025	2119
2851.550962231	2111.75
2853.6226658367	2125
2855.69379759173	2103.25
2857.76435776806	2132.25
2859.83434663753	2124
2861.90376447184	2111.5
2863.97261154259	2143
2866.0408881212	2144.25
2868.10859447901	2132.75
2870.17573088717	2152.75
2872.24229761673	2168
2874.30829493859	2182
2876.37372312352	2173.25
2878.43858244215	2207
2880.50287316496	2191.75
2882.56659556231	2219.25
2884.62974990439	2256.5
2886.69233646129	2266.5
2888.75435550293	2273.75
2890.81580729909	2288.75
2892.87669211941	2299.75
2894.93701023339	2288.25
2896.99676191039	2283.25
2899.05594741961	2325.25
2901.1145670301	2328
2903.1726210108	2322.75
2905.23010963045	2335.5
2907.28703315768	2319.25
2909.34339186096	2336.5
2911.39918600861	2309.5
2913.45441586879	2313.5
2915.50908170952	2307.5
2917.56318379867	2289.5
2919.61672240395	2282.5
2921.66969779291	2283
2923.72211023295	2297.5
2925.77395999134	2285.5
2927.82524733515	2316.5
2929.87597253132	2309
2931.92613584663	2333.75
2933.97573754769	2334.25
2936.02477790097	2316.5
2938.07325717276	2360.5
2940.1211756292	2412.25
2942.16853353626	2426.5
2944.21533115976	2487
2946.26156876536	2547.5
2948.30724661853	2612.5
2950.3523649846	2696
2952.39692412872	2728.25
2954.44092431587	2798.25
2956.48436581089	2852.5
2958.52724887843	2902.75
2960.56957378296	2932.5
2962.6113407888	2974.75
2964.65255016011	2943.25
2966.69320216083	2920.5
2968.73329705479	2915.5
2970.77283510559	2863.25
2972.81181657671	2796
2974.8502417314	2749
2976.88811083279	2705.25
2978.92542414378	2682.75
2980.96218192713	2615.5
2982.99838444541	2642.25
2985.034031961	2605.25
2987.06912473612	2598.75
2989.1036630328	2572.75
2991.13764711288	2606.25
2993.17107723804	2604
2995.20395366974	2628.5
2997.23627666931	2619.25
2999.26804649782	2615
3001.29926341624	2626.25
3003.32992768528	2617.25
3005.3600395655	2563.5
3007.38959931726	2562
3009.41860720076	2553
3011.44706347595	2562.75
3013.47496840263	2522.25
3015.50232224041	2528.25
3017.5291252487	2498.75
3019.5553776867	2488
3021.58107981344	2486.5
3023.60623188773	2490.25
3025.63083416822	2482.25
3027.65488691331	2494
3029.67839038125	2472.25
3031.70134483007	2434.75
3033.72375051759	2463.75
3035.74560770144	2469.75
3037.76691663907	2432.5
3039.78767758768	2468.25
3041.80789080431	2452
3043.82755654577	2457.25
3045.84667506867	2473.5
3047.8652466294	2503.25
3049.88327148418	2504.75
3051.90074988899	2519.25
3053.91768209961	2551.25
3055.9340683716	2565.5
3057.94990896033	2583.25
3059.96520412095	2636.25
3061.97995410838	2726.5
3063.99415917734	2774
3066.00781958234	2863
3068.02093557766	2915.5
3070.03350741738	3005
3072.04553535535	3043.5
3074.05701964521	3155.25
3076.06796054036	3239.75
3078.078358294	3345.75
3080.08821315912	3462
3082.09752538846	3494.25
3084.10629523454	3341.25
3086.11452294967	3240
3088.12220878592	3079.25
3090.12935299515	2903
3092.13595582898	2851
3094.1420175388	2781.25
3096.14753837579	2704.5
3098.15251859088	2644.75
3100.15695843477	2621.75
3102.16085815793	2617.25
3104.16421801061	2619.25
3106.16703824282	2571.75
3108.16931910432	2581
3110.17106084464	2536.5
3112.17226371308	2544.25
3114.17292795872	2543.75
3116.17305383034	2515
3118.17264157657	2493.75
3120.17169144571	2506.5
3122.17020368587	2532.5
3124.16817854492	2492.5
3126.16561627044	2509.5
3128.16251710982	2518.5
3130.15888131017	2527
3132.15470911837	2540
3134.15000078104	2529.75
3136.14475654455	2556
3138.13897665502	2529
3140.13266135835	2556.5
3142.12581090014	2539.75
3144.11842552577	2571.75
3146.11050548036	2533.25
3148.10205100875	2532.25
3150.09306235557	2552.75
3152.08353976515	2535.75
3154.07348348158	2526.75
3156.06289374869	2551.5
3158.05177081006	2532.25
3160.04011490899	2543
3162.02792628852	2561.75
3164.01520519145	2565
3166.00195186029	2583.25
3167.98816653728	2571.5
3169.97384946442	2544.75
3171.95900088344	2557
3173.94362103577	2554.75
3175.92771016259	2558.75
3177.91126850484	2558.75
3179.89429630312	2527.5
3181.87679379782	2542.5
3183.85876122903	2555.25
3185.84019883657	2575.25
3187.82110685997	2585.5
3189.80148553851	2583.25
3191.78133511116	2577.25
3193.76065581664	2586.75
3195.73944789337	2558.25
3197.7177115795	2604.75
3199.6954471129	2614
3201.67265473114	2566
3203.64933467153	2627.25
3205.62548717107	2601.5
3207.60111246648	2633.75
3209.57621079421	2642.25
3211.55078239041	2633.5
3213.52482749093	2652.75
3215.49834633133	2651.25
3217.4713391469	2694.5
3219.44380617262	2695
3221.41574764317	2726.25
3223.38716379296	2661.75
3225.35805485607	2699.25
3227.32842106631	2731.25
3229.29826265718	2721.75
3231.26757986187	2696.5
3233.2363729133	2701.25
3235.20464204405	2690.25
3237.17238748643	2692.75
3239.13960947243	2674.5
3241.10630823374	2666.75
3243.07248400174	2684.25
3245.03813700748	2732.75
3247.00326748177	2721
3248.96787565503	2669
3250.93196175742	2692.25
3252.89552601877	2713.5
3254.8585686686	2700.5
3256.82108993612	2721
3258.78309005022	2697.5
3260.74456923948	2685.25
3262.70552773215	2692.75
3264.66596575617	2704
3266.62588353916	2700.25
3268.58528130843	2689
3270.54415929094	2687.75
3272.50251771336	2741.25
3274.46035680201	2736.5
3276.4176767829	2735.5
3278.37447788171	2716
3280.33076032379	2737.75
3282.28652433416	2696.75
3284.24177013751	2735.5
3286.1964979582	2738.25
3288.15070802027	2738.25
3290.10440054741	2727
3292.05757576298	2728.75
3294.01023389001	2735.5
3295.96237515119	2747.25
3297.91399976887	2766.5
3299.86510796506	2746.75
3301.81569996142	2755
3303.76577597932	2778.5
3305.7153362397	2761.5
3307.66438096324	2737.75
3309.61291037024	2763
3311.56092468064	2732
3313.50842411404	2780.75
3315.45540888971	2763.75
3317.40187922656	2735.75
3319.34783534315	2766.5
3321.29327745768	2750.25
3323.23820578801	2753.25
3325.18262055164	2753
3327.1265219657	2745.5
3329.06991024699	2769.5
3331.01278561194	2732.25
3332.95514827662	2752
3334.89699845674	2819
3336.83833636766	2821
3338.77916222434	2773.5
3340.71947624143	2778.75
3342.65927863317	2802.25
3344.59856961346	2790.5
3346.53734939584	2786
3348.47561819344	2800.25
3350.41337621906	2782.5
3352.35062368513	2747.5
3354.28736080368	2748
3356.22358778637	2798.75
3358.15930484452	2781
3360.09451218904	2795
3362.02921003047	2802.25
3363.96339857898	2804.75
3365.89707804436	2803.75
3367.83024863602	2803.5
3369.76291056299	2777.25
3371.69506403389	2764
3373.62670925699	2795.75
3375.55784644016	2792.75
3377.4884757909	2801.25
3379.41859751629	2816
3381.34821182305	2835.75
3383.27731891749	2822.25
3385.20591900555	2838.5
3387.13401229276	2839.5
3389.06159898426	2820.5
3390.9886792848	2863.75
3392.91525339872	2857.25
3394.84132152998	2853.75
3396.76688388213	2858.75
3398.69194065833	2840.75
3400.61649206133	2856.25
3402.54053829348	2866
3404.46407955672	2871
3406.3871160526	2869.75
3408.30964798225	2849.25
3410.23167554639	2875.5
3412.15319894535	2908.5
3414.07421837904	2853.5
3415.99473404695	2903.25
3417.91474614817	2892.5
3419.83425488136	2901
3421.75326044479	2910
3423.67176303631	2885
3425.58976285332	2881
3427.50726009282	2880.25
3429.42425495143	2912.5
3431.34074762528	2900.5
3433.25673831012	2849.5
3435.17222720127	2888.25
3437.08721449362	2902.75
3439.00170038164	2877
3440.91568505936	2909
3442.82916872039	2892
3444.74215155791	2883.5
3446.65463376468	2896.5
3448.566615533	2898.5
3450.47809705476	2919.5
3452.3890785214	2901.75
3454.29956012393	2913.5
3456.20954205293	2893.75
3458.11902449853	2910
3460.02800765041	2908
3461.93649169784	2941
3463.84447682962	2928
3465.75196323412	2905.25
3467.65895109925	2886.5
3469.56544061249	2926.25
3471.47143196086	2917.5
3473.37692533093	2914.75
3475.28192090884	2901
3477.18641888026	2902.25
3479.09041943039	2876.25
3480.99392274402	2899.5
3482.89692900545	2947.5
3484.79943839853	2931.5
3486.70145110666	2901.75
3488.60296731277	2905
3490.50398719933	2929.75
3492.40451094836	2866
3494.30453874141	2870.5
3496.20407075956	2886.5
3498.10310718342	2938.5
3500.00164819315	2913.25