201.866871357051	1017
204.754250281454	1016.25
207.640596790938	1034.75
210.525911876299	1037.25
213.410196525689	1024
216.293451724508	1027.25
219.175678455485	1032.25
222.056877698662	1034.75
224.937050431388	1027.5
227.816197628363	1039.75
230.694320261602	1050.25
233.571419300504	1032
236.447495711764	1039.25
239.322550459507	1038
242.196584505182	1041
245.069598807626	1049.25
247.941594323078	1053.5
250.812572005154	1053.5
253.682532804884	1049.75
256.551477670699	1075.25
259.419407548456	1070.75
262.286323381439	1068.25
265.152226110364	1072.75
268.017116673389	1070
270.880996006115	1073
273.743865041622	1074
276.605724710436	1091.25
279.466575940562	1098.25
282.326419657496	1108
285.1852567842	1119.75
288.043088241157	1103.25
290.899914946349	1106.5
293.75573781526	1115.5
296.610557760898	1138.5
299.464375693817	1109.25
302.317192522078	1126.5
305.169009151297	1154.25
308.019826484655	1195.5
310.86964542287	1261.75
313.718466864233	1302.5
316.566291704614	1278.75
319.413120837457	1238.75
322.258955153804	1189.75
325.103795542291	1136.5
327.947642889128	1126
330.79049807819	1117
333.632361990927	1102.25
336.473235506444	1092
339.31311950145	1095.25
342.152014850322	1105.5
344.989922425062	1091.75
347.826843095354	1102.5
350.662777728528	1107.75
353.497727189577	1115.5
356.331692341195	1111
359.164674043732	1111.75
361.996673155267	1114.5
364.827690531536	1111.75
367.65772702602	1126.5
370.486783489887	1142
373.314860772047	1131
376.14195971912	1128
378.968081175466	1129
381.793225983212	1135
384.617394982201	1132.25
387.44058901005	1129.5
390.262808902131	1131.25
393.08405549161	1146
395.904329609395	1153.25
398.723632084213	1145.75
401.541963742569	1157.75
404.359325408779	1165
407.175717904938	1147.75
409.991142050982	1186.5
412.805598664665	1196.5
415.619088561551	1206.75
418.43161255505	1212
421.243171456415	1190.75
424.053766074758	1185.5
426.863397217017	1157.75
429.672065688024	1185
432.479772290455	1170.25
435.286517824879	1172.25
438.092303089736	1189.75
440.897128881359	1189
443.70099599399	1194.25
446.503905219761	1186.75
449.305857348711	1180.5
452.106853168796	1179.75
454.906893465919	1194.25
457.705979023885	1191.5
460.504110624439	1192
463.3012890473	1200.75
466.097515070087	1213.75
468.892789468424	1206
471.687113015869	1203
474.48048648395	1232.75
477.272910642198	1229
480.064386258109	1257.25
482.854914097159	1288.75
485.644494922839	1283
488.433129496636	1278.5
491.220818578047	1221
494.007562924584	1212.75
496.793363291785	1213.25
499.578220433217	1196
502.362135100473	1205.5
505.145108043209	1205.75
507.927140009098	1216.25
510.708231743909	1199.75
513.488383991433	1218.5
516.267597493556	1226
519.04587299022	1220.5
521.82321121946	1272.25
524.599612917398	1302
527.375078818233	1319.25
530.149609654287	1296.75
532.923206155967	1284.5
535.695869051804	1244.75
538.467599068448	1244
541.238396930665	1221
544.008263361364	1209.75
546.777199081578	1218.25
549.545204810493	1213.25
552.312281265436	1198.75
555.078429161898	1227.25
557.843649213533	1227.25
560.607942132156	1219.75
563.371308627753	1238.25
566.133749408495	1257.5
568.895265180756	1277.5
571.655856649064	1270
574.415524516189	1266.5
577.174269483075	1274.25
579.932092248884	1285.25
582.688993510994	1314.75
585.444973965023	1360.75
588.200034304795	1407.75
590.95417522237	1432.25
593.70739740807	1393.25
596.459701550433	1346.25
599.21108833628	1304.25
601.961558450668	1309.5
604.711112576933	1294.25
607.459751396673	1290.75
610.207475589748	1318.25
612.954285834338	1357
615.700182806879	1386.25
618.445167182101	1417.25
621.189239633055	1362
623.932400831087	1330.75
626.674651445839	1300
629.415992145303	1267.75
632.156423595745	1272.75
634.895946461813	1276
637.634561406449	1273.25
640.37226909096	1276.75
643.109070174978	1295.5
645.844965316508	1288.25
648.579955171888	1286
651.314040395846	1279.5
654.047221641456	1287
656.779499560176	1297
659.510874801828	1311
662.241348014642	1329.75
664.97091984524	1354.25
667.699590938606	1390.5
670.427361938164	1400.25
673.15423348573	1379.5
675.880206221526	1356.25
678.605280784206	1367.75
681.329457810829	1347.75
684.05273793692	1329
686.775121796389	1318.75
689.49661002163	1316.5
692.217203243454	1308.25
694.936902091144	1299.5
697.655707192425	1307.25
700.373619173493	1305.75
703.09063865901	1289
705.806766272093	1296.25
708.522002634378	1327.25
711.236348365946	1308
713.94980408538	1340
716.662370409762	1335.75
719.374047954676	1330
722.08483733419	1326.75
724.794739160909	1325.5
727.503754045949	1330
730.21188259892	1323.25
732.919125427998	1309.25
735.625483139855	1338
738.330956339723	1328.75
741.035545631374	1325.75
743.739251617106	1318
746.44207489779	1353
749.144016072852	1353.5
751.845075740272	1357.25
754.545254496603	1354.75
757.244552936976	1355
759.94297165508	1358
762.640511243222	1373.75
765.337172292249	1374
768.032955391649	1368
770.727861129482	1392.25
773.421890092413	1378.25
776.11504286572	1376.25
778.807320033298	1382
781.49872217765	1366.25
784.18924987991	1357.75
786.87890371984	1363.75
789.567684275826	1381
792.255592124908	1390.5
794.94262784276	1360.5
797.628792003703	1380.25
800.314085180715	1368.5
802.998507945427	1386.25
805.682060868145	1407.5
808.364744517821	1420.25
811.046559462105	1412.5
813.727506267311	1410.75
816.407585498422	1415
819.08679771913	1410.5
821.765143491822	1432.25
824.442623377563	1414.25
827.119237936127	1442
829.794987726003	1442.75
832.469873304377	1452
835.143895227167	1454.25
837.817054048985	1453
840.489350323205	1474.75
843.160784601892	1460.5
845.831357435894	1466.25
848.501069374739	1467
851.169920966753	1443
853.837912758987	1463.25
856.505045297232	1481
859.171319126071	1490.75
861.836734788823	1466.5
864.501292827579	1472.25
867.164993783208	1473.75
869.827838195361	1464.75
872.489826602454	1492
875.150959541701	1477.5
877.811237549104	1469.5
880.470661159456	1492.5
883.129230906357	1486.5
885.786947322205	1468.25
888.443810938206	1485
891.099822284385	1469.5
893.754981889586	1490.5
896.409290281452	1498.5
899.062747986485	1515.5
901.715355529999	1518
904.367113436154	1534.75
907.01802222793	1522.5
909.668082427172	1548
912.317294554574	1546
914.965659129659	1600
917.613176670835	1613.25
920.259847695364	1642.75
922.90567271936	1612.75
925.550652257825	1598.25
928.194786824621	1592.75
930.838076932512	1602.75
933.480523093109	1610
936.122125816953	1623.25
938.762885613447	1611.5
941.402802990899	1598.5
944.041878456523	1617
946.680112516428	1601
949.31750567563	1632
951.954058438081	1635.5
954.589771306633	1621.25
957.224644783048	1627.25
959.858679368044	1617.75
962.491875561238	1631
965.12423386121	1609.5
967.75575476545	1626
970.386438770423	1669.25
973.016286371501	1635
975.645298063046	1653
978.273474338355	1647.75
980.900815689674	1640.25
983.527322608243	1645.5
986.152995584245	1657
988.777835106834	1672.25
991.401841664148	1685.5
994.025015743307	1691
996.647357830407	1686.25
999.268868410534	1685.5
1001.88954796777	1725.5
1004.50939698518	1693.75
1007.12841594484	1706.75
1009.74660532783	1737.25
1012.36396561423	1734.5
1014.98049728314	1745.5
1017.59620081267	1751
1020.21107667995	1745.25
1022.82512536112	1744.5
1025.43834733138	1765.25
1028.05074306493	1780.75
1030.66231303501	1777.25
1033.27305771392	1793.25
1035.88297757299	1806.75
1038.49207308257	1813.75
1041.10034471211	1817.75
1043.70779293008	1826
1046.31441820402	1842.75
1048.92022100052	1852.25
1051.52520178525	1841.5
1054.12936102295	1846
1056.73269917742	1859.75
1059.33521671154	1882.25
1061.93691408729	1886.5
1064.53779176571	1911.25
1067.13785020694	1900
1069.73708987022	1908.5
1072.33551121386	1917.25
1074.93311469528	1925.75
1077.52990077103	1946
1080.12586989674	1947.25
1082.72102252714	1967.5
1085.31535911611	1966.5
1087.90888011663	1973.25
1090.50158598078	1967.5
1093.09347715979	1975.5
1095.68455410403	2002.25
1098.27481726296	2004.5
1100.86426708523	2035
1103.45290401857	2089.25
1106.04072850991	2121.75
1108.6277410053	2121
1111.21394194993	2118.25
1113.79933178816	2129
1116.3839109635	2119.75
1118.96767991862	2152
1121.55063909539	2135.5
1124.13278893477	2171.75
1126.71412987696	2192
1129.29466236132	2224.75
1131.87438682637	2232.75
1134.45330370982	2238.25
1137.03141344858	2250.5
1139.60871647872	2288.5
1142.18521323554	2318
1144.7609041535	2386.25
1147.33578966629	2406.25
1149.90987020676	2432
1152.48314620702	2448.5
1155.05561809835	2458.25
1157.62728631125	2511
1160.19815127545	2549.25
1162.76821341988	2600.5
1165.33747317271	2587.5
1167.90593096133	2574.5
1170.47358721235	2539.25
1173.04044235163	2524
1175.60649680425	2502.75
1178.17175099454	2554.25
1180.73620534607	2590.25
1183.29986028165	2630
1185.86271622336	2676.5
1188.42477359249	2636.75
1190.98603280964	2649.25
1193.54649429462	2635.5
1196.10615846653	2666.25
1198.66502574372	2768.5
1201.22309654385	2921
1203.78037128378	3036.25
1206.33685037971	3056
1208.89253424709	3011.25
1211.44742330063	2859.75
1214.00151795438	2796.25
1216.55481862163	2722.5
1219.10732571497	2722.5
1221.65903964631	2675.75
1224.20996082683	2680.75
1226.760089667	2697
1229.30942657664	2717.75
1231.85797196483	2728.25
1234.40572623998	2727.5
1236.95268980981	2786.75
1239.49886308136	2772.75
1242.04424646098	2816
1244.58884035435	2885
1247.13264516647	2947.75
1249.67566130166	3021.5
1252.21788916358	3010
1254.75932915524	3063
1257.29998167896	3094.25
1259.83984713639	3005.25
1262.37892592857	3026
1264.91721845586	3014.75
1267.45472511795	3050.25
1269.9914463139	3050
1272.52738244213	3095.25
1275.0625339004	3112.25
1277.59690108587	3146.25
1280.130484395	3209
1282.66328422367	3202.5
1285.19530096712	3196.75
1287.72653501993	3230.25
1290.25698677608	3242.75
1292.78665662894	3286.25
1295.31554497125	3301.75
1297.8436521951	3373
1300.37097869203	3383.75
1302.89752485292	3428.5
1305.42329106805	3394.25
1307.94827772713	3444.75
1310.47248521921	3515
1312.99591393279	3573.25
1315.51856425575	3610
1318.04043657536	3594.75
1320.56153127836	3731.5
1323.08184875083	3732
1325.6013893783	3828.5
1328.12015354572	3987
1330.63814163744	4100.25
1333.15535403727	4221.25
1335.67179112839	4313.25
1338.18745329347	4447.5
1340.70234091454	4617.5
1343.21645437314	4714
1345.72979405019	4723
1348.24236032607	4567.25
1350.75415358059	4449.25
1353.26517419303	4386.75
1355.7754225421	4469.75
1358.28489900594	4475.25
1360.79360396218	4457.5
1363.30153778787	4444
1365.80870085955	4467.75
1368.31509355319	4561.75
1370.82071624424	4610.25
1373.32556930762	4762
1375.8296531177	5021.75
1378.33296804832	5302
1380.83551447282	5756.5
1383.33729276399	6227
1385.83830329408	6658
1388.33854643489	7078.75
1390.83802255762	7082.5
1393.33673203301	6571.5
1395.83467523128	5941.25
1398.33185252211	5468.5
1400.82826427471	5243.25
1403.32391085777	5058
1405.81879263947	5130.25
1408.31290998752	5095.75
1410.80626326908	5089.75
1413.29885285087	5127.25
1415.79067909909	5235
1418.28174237944	5284.75
1420.77204305717	5395.5
1423.26158149702	5582.75
1425.75035806323	5813.5
1428.2383731196	5898.25
1430.72562702942	5934.25
1433.21212015554	5909.5
1435.69785286028	5858.25
1438.18282550555	5900
1440.66703845275	5924.5
1443.15049206284	5953.25
1445.6331866963	6024
1448.11512271316	6023.25
1450.59630047298	6058.75
1453.07672033486	6018.75
1455.55638265748	6069.75
1458.03528779902	6050.25
1460.51343611725	6108.75
1462.99082796946	6183.75
1465.46746371252	6148
1467.94334370285	6234
1470.41846829642	6253
1472.89283784878	6346.75
1475.36645271503	6366.5
1477.83931324983	6406.5
1480.31141980743	6480
1482.78277274164	6486
1485.25337240583	6522.25
1487.72321915297	6539.5
1490.19231333557	6624
1492.66065530578	6689.25
1495.12824541525	6717
1497.5950840153	6774.75
1500.06117145678	6816
1502.52650809014	6862.75
1504.99109426543	6870.75
1507.45493033227	6994.5
1509.91801663992	6990
1512.38035353717	7059.75
1514.84194137248	7080.75
1517.30278049386	7266
1519.76287124894	7265.75
1522.22221398497	7358
1524.68080904876	7499.25
1527.13865678681	7490.75
1529.59575754514	7589
1532.05211166945	7619
1534.50771950503	7602.5
1536.96258139678	7684.5
1539.41669768924	7804
1541.87006872656	7864.25
1544.32269485252	7912.25
1546.77457641051	7949.25
1549.22571374357	8093
1551.67610719434	8169.5
1554.12575710513	8276
1556.57466381785	8261
1559.02282767408	8409.25
1561.47024901499	8436.75
1563.91692818144	8521.25
1566.3628655139	8629.5
1568.80806135249	8708.5
1571.252516037	8786.25
1573.6962299068	8892.75
1576.13920330099	8902.75
1578.58143655828	9052.5
1581.02293001704	9140.75
1583.46368401528	9183.75
1585.90369889071	9360
1588.34297498065	9407.5
1590.7815126221	9452
1593.21931215173	9467.25
1595.65637390588	9502.5
1598.09269822053	9485.5
1600.52828543135	9580
1602.96313587367	9662
1605.3972498825	9688.75
1607.83062779252	9687.5
1610.26326993808	9793.75
1612.69517665322	9821
1615.12634827165	9900.25
1617.55678512676	9922.5
1619.98648755163	9899.75
1622.41545587902	9910.75
1624.84369044138	9989.75
1627.27119157085	10090
1629.69795959924	10114.5
1632.12399485808	10178.75
1634.54929767859	10275.75
1636.97386839165	10345
1639.39770732789	10405
1641.8208148176	10432.25
1644.24319119078	10503.25
1646.66483677715	10579.75
1649.0857519061	10642.5
1651.50593690677	10786.25
1653.92539210795	10823
1656.3441178382	10834.75
1658.76211442575	10899.5
1661.17938219855	11042.25
1663.59592148428	11204.75
1666.01173261032	11249.5
1668.42681590377	11371.5
1670.84117169145	11390.25
1673.25480029991	11405.25
1675.66770205541	11531
1678.07987728393	11647.25
1680.49132631119	11812.5
1682.90204946263	11849
1685.31204706342	11983
1687.72131943846	12065.25
1690.1298669124	12178
1692.53768980957	12323.5
1694.94478845411	12265.25
1697.35116316982	12417.25
1699.75681428031	12471.75
1702.16174210887	12467.25
1704.56594697858	12624.25
1706.96942921222	12767.5
1709.37218913235	12706
1711.77422706125	12718.25
1714.17554332098	12836
1716.5761382333	12950.75
1718.97601211977	12858.75
1721.37516530169	12910.5
1723.77359810006	13036.25
1726.17131083572	13135
1728.56830382922	13094.25
1730.96457740087	13199.75
1733.36013187075	13169
1735.75496755868	13356.25
1738.14908478428	13356.75
1740.54248386689	13452.25
1742.93516512565	13504.75
1745.32712887946	13517.25
1747.71837544697	13574.25
1750.10890514662	13767.5
1752.49871829661	13763.5
1754.88781521492	13918.5
1757.27619621929	13945.5
1759.66386162726	14038.25
1762.05081175612	14067.25
1764.43704692297	14187
1766.82256744465	14179.75
1769.20737363782	14387
1771.59146581887	14305.5
1773.97484430405	14476
1776.35750940932	14697.75
1778.73946145048	14693.75
1781.12070074309	14786.75
1783.50122760249	14948.5
1785.88104234385	14980.75
1788.26014528209	15081.75
1790.63853673196	15150.75
1793.01621700796	15228
1795.39318642443	15420.75
1797.76944529549	15458.5
1800.14499393503	15483.5
1802.51983265681	15476.5
1804.8939617743	15744.25
1807.26738160085	15835.75
1809.64009244957	15833
1812.01209463339	15852
1814.38338846504	16000.25
1816.75397425706	15982.75
1819.12385232181	16087.75
1821.49302297142	16245.75
1823.86148651789	16171.25
1826.22924327299	16186.5
1828.59629354831	16470.75
1830.96263765526	16380
1833.32827590507	16477.25
1835.69320860877	16409.5
1838.05743607724	16599.75
1840.42095862113	16617.75
1842.78377655097	16628
1845.14589017707	16772.5
1847.50729980956	16694
1849.86800575843	16917.25
1852.22800833346	16947
1854.58730784427	17069.25
1856.94590460032	17137.25
1859.30379891087	17227.75
1861.66099108503	17296.5
1864.01748143175	17358
1866.37327025978	17502
1868.72835787773	17448.5
1871.08274459403	17693.75
1873.43643071697	17604
1875.78941655464	17899.5
1878.14170241498	17848.75
1880.4932886058	17912.5
1882.84417543469	18116.25
1885.19436320915	18158
1887.54385223646	18182.25
1889.89264282378	18357
1892.24073527809	18344.5
1894.58812990625	18386
1896.93482701493	18737.5
1899.28082691067	18712.75
1901.62612989984	18937
1903.97073628868	18964.25
1906.31464638326	19027
1908.6578604895	19121
1911.00037891321	19309.75
1913.34220196	19425.5
1915.68332993537	19446.25
1918.02376314468	19495
1920.36350189311	19506.25
1922.70254648573	19598
1925.04089722744	19574
1927.37855442303	19604
1929.71551837715	19729.25
1932.05178939426	19737.25
1934.38736777876	19691.25
1936.72225383484	19779
1939.0564478666	20158.5
1941.38995017799	19834.5
1943.72276107283	20048.75
1946.05488085479	19811.5
1948.38630982744	19765.75
1950.71704829419	20087.75
1953.04709655832	19983
1955.376454923	20007.75
1957.70512369126	20078.25
1960.03310316599	20161.25
1962.36039364999	20022.75
1964.68699544589	19969.75
1967.01290885622	20173
1969.33813418338	20249.75
1971.66267172965	20181.25
1973.98652179718	20373.75
1976.309684688	20509.25
1978.63216070402	20539.25
1980.95395014705	20810.75
1983.27505331873	20527.5
1985.59547052063	20648.5
1987.9152020542	20719.25
1990.23424822074	20736
1992.55260932146	20762.25
1994.87028565746	20884.75
1997.18727752968	20840
1999.503585239	21186
2001.81920908618	20941.5
2004.13414937184	21178.25
2006.44840639651	21421.75
2008.7619804606	21391
2011.07487186442	21627
2013.38708090815	21729.5
2015.6986078919	21701
2018.00945311564	21700.75
2020.31961687923	21834.75
2022.62909948246	21979.75
2024.93790122498	21914.5
2027.24602240636	21994
2029.55346332604	22071.5
2031.86022428337	22064.75
2034.16630557761	22301.5
2036.47170750791	22252.25
2038.77643037331	22337.5
2041.08047447275	22512
2043.38384010509	22229
2045.68652756907	22464.75
2047.98853716335	22422.5
2050.28986918648	22478
2052.59052393692	22604.5
2054.89050171302	22617.25
2057.18980281306	22677.5
2059.4884275352	22770
2061.78637617753	22463.25
2064.08364903802	22611.75
2066.38024641457	22560
2068.67616860497	22623.5
2070.97141590694	22638.5
2073.26598861809	22756.75
2075.55988703595	22525.75
2077.85311145796	22582
2080.14566218145	22588.75
2082.43753950371	22641.25
2084.72874372188	22701.5
2087.01927513307	22553.75
2089.30913403428	22631
2091.59832072241	22653.5
2093.88683549429	22510
2096.17467864666	22694.5
2098.46185047619	22758
2100.74835127944	22932.25
2103.03418135292	22832.5
2105.31934099303	22762
2107.6038304961	22761.75
2109.88765015838	22745.5
2112.17080027602	22823
2114.45328114513	22989.75
2116.7350930617	22836
2119.01623632165	22914.25
2121.29671122085	22851.25
2123.57651805505	22979.75
2125.85565711996	23051
2128.13412871117	23021.5
2130.41193312424	23073.25
2132.68907065462	23027.75
2134.96554159771	23102.25
2137.24134624881	23143.25
2139.51648490317	23064.75
2141.79095785593	23157.25
2144.0647654022	23113.5
2146.33790783698	23173.75
2148.61038545524	22960
2150.88219855182	23256.25
2153.15334742154	23146
2155.42383235911	23273.5
2157.6936536592	23224
2159.9628116164	23117.5
2162.23130652522	23065
2164.49913868011	23088.25
2166.76630837544	23107.25
2169.03281590552	23107.75
2171.2986615646	23058.75
2173.56384564685	23061
2175.82836844637	23028.25
2178.0922302572	22887.75
2180.35543137332	22979.5
2182.61797208862	22911.5
2184.87985269695	22740.75
2187.14107349208	22708
2189.40163476773	22779
2191.66153681753	22828.75
2193.92077993507	22537.5
2196.17936441386	22541
2198.43729054735	22588.5
2200.69455862894	22520
2202.95116895194	22484.75
2205.20712180962	22459.75
2207.46241749519	22399.25
2209.71705630179	22329
2211.97103852248	22265.25
2214.2243644503	22254
2216.47703437819	22217
2218.72904859905	22124.25
2220.98040740571	22097
2223.23111109095	22175.75
2225.4811599475	21890.5
2227.73055426799	21923
2229.97929434504	21933.75
2232.22738047118	21750.25
2234.47481293889	21881.75
2236.72159204058	21901.75
2238.96771806864	21843.25
2241.21319131536	21568.75
2243.458012073	21463.25
2245.70218063374	21648.75
2247.94569728973	21759.75
2250.18856233304	21380.25
2252.4307760557	21285.25
2254.67233874967	21342
2256.91325070687	21372.75
2259.15351221915	21244.75
2261.39312357831	21210
2263.63208507611	21024.25
2265.87039700422	21021.5
2268.1080596543	21081
2270.34507331792	21060.75
2272.5814382866	20938.25
2274.81715485183	20978.25
2277.05222330502	20960
2279.28664393755	20879.75
2281.52041704072	20723.5
2283.75354290581	20838
2285.98602182401	20787.75
2288.21785408648	20640.75
2290.44903998434	20602
2292.67957980862	20669.75
2294.90947385033	20470.75
2297.1387224004	20428.75
2299.36732574975	20560.5
2301.59528418921	20497.25
2303.82259800958	20357.5
2306.04926750158	20308
2308.27529295593	20230.5
2310.50067466325	20268.75
2312.72541291412	20234
2314.9495079991	20160.25
2317.17296020866	20077.5
2319.39576983323	20211
2321.61793716322	20001.75
2323.83946248894	19991.75
2326.06034610069	19944.25
2328.28058828871	19845.25
2330.50018934317	19813
2332.7191495542	19728
2334.93746921192	19706.25
2337.15514860633	19610.25
2339.37218802743	19562.5
2341.58858776516	19513.5
2343.80434810941	19508.5
2346.01946935001	19437.25
2348.23395177675	19319
2350.44779567939	19368
2352.66100134759	19080.75
2354.87356907101	19191.5
2357.08549913925	19097.75
2359.29679184185	18992.5
2361.50744746829	19218
2363.71746630804	19028.5
2365.92684865048	18813.75
2368.13559478499	18839.5
2370.34370500083	18796
2372.55117958727	18716
2374.75801883352	18689
2376.96422302874	18432.5
2379.16979246202	18481.5
2381.37472742243	18390
2383.57902819898	18360
2385.78269508063	18210.5
2387.98572835629	18299.75
2390.18812831482	18187
2392.38989524505	18147.5
2394.59102943573	18100
2396.79153117559	18086.5
2398.9914007533	18006.25
2401.19063845748	17957.5
2403.38924457672	17844.5
2405.58721939951	17813.75
2407.78456321435	17737.25
2409.98127630966	17730
2412.17735897382	17692.75
2414.37281149517	17589.75
2416.56763416198	17662.75
2418.76182726249	17531.5
2420.95539108487	17518.25
2423.14832591726	17483.75
2425.34063204776	17397.75
2427.53230976439	17266.75
2429.72335935513	17391.5
2431.91378110795	17219.75
2434.10357531071	17085.5
2436.29274225125	17120
2438.48128221739	17027
2440.66919549683	17058
2442.8564823773	17006.5
2445.04314314641	16903
2447.22917809176	16914.5
2449.4145875009	16924.75
2451.59937166131	16766.5
2453.78353086044	16625.5
2455.96706538568	16724
2458.14997552436	16624.25
2460.33226156379	16500.75
2462.51392379119	16507.25
2464.69496249376	16375.75
2466.87537795862	16331.25
2469.05517047288	16233.75
2471.23434032357	16286
2473.41288779767	16282
2475.59081318211	16194.75
2477.76811676378	16089
2479.9447988295	16097.5
2482.12085966605	15995.25
2484.29629956016	15973.25
2486.4711187985	15973.25
2488.64531766769	16002.5
2490.8188964543	15943
2492.99185544484	15866.25
2495.16419492579	15848
2497.33591518353	15824.5
2499.50701650444	15713.75
2501.67749917482	15682.5
2503.84736348091	15580.75
2506.01660970891	15642
2508.18523814496	15558.75
2510.35324907514	15656.75
2512.52064278551	15617.75
2514.68741956201	15584.75
2516.85357969058	15771.75
2519.01912345709	15598
2521.18405114735	15503.5
2523.34836304711	15581.75
2525.51205944208	15474
2527.6751406179	15464.75
2529.83760686016	15525.75
2531.99945845439	15454
2534.16069568606	15482.25
2536.3213188406	15496.75
2538.48132820336	15299.25
2540.64072405965	15359
2542.79950669471	15303.5
2544.95767639373	15469.5
2547.11523344184	15265.5
2549.27217812411	15204.25
2551.42851072555	15300.75
2553.58423153111	15147.25
2555.73934082569	15092.75
2557.89383889412	15078.5
2560.04772602118	15042
2562.20100249158	14964.5
2564.35366858996	14849
2566.50572460093	14825.25
2568.65717080901	14778
2570.80800749867	14825.25
2572.95823495433	14756.25
2575.10785346031	14684.75
2577.25686330093	14686
2579.40526476038	14468.5
2581.55305812282	14526.75
2583.70024367237	14464
2585.84682169303	14393.25
2587.99279246879	14486.25
2590.13815628354	14473
2592.28291342112	14426
2594.42706416531	14407.25
2596.5706087998	14333.5
2598.71354760826	14418
2600.85588087425	14282
2602.99760888127	14264.75
2605.13873191278	14203.75
2607.27925025214	14093.5
2609.41916418269	14118.5
2611.55847398764	14101.25
2613.69717995017	14105.5
2615.83528235339	14221.75
2617.97278148034	14076.75
2620.10967761398	14154.75
2622.2459710372	14148.25
2624.38166203284	14140.5
2626.51675088365	14043.25
2628.65123787231	13959
2630.78512328145	14114.5
2632.9184073936	14019.5
2635.05109049124	14070.5
2637.18317285676	14075.25
2639.31465477248	13995.75
2641.44553652067	14054
2643.5758183835	13941
2645.70550064309	13926.25
2647.83458358144	13907.5
2649.96306748053	13843.5
2652.09095262223	13860
2654.21823928836	14007.5
2656.34492776063	13843.75
2658.47101832071	13834.25
2660.59651125015	13962.25
2662.72140683047	13922.5
2664.84570534309	13831
2666.96940706934	13834.5
2669.0925122905	13740.5
2671.21502128773	13800.75
2673.33693434215	13805.25
2675.45825173479	13818.5
2677.57897374658	13786.75
2679.69910065839	13820.25
2681.818632751	13705
2683.93757030511	13731.75
2686.05591360133	13754.5
2688.17366292021	13664
2690.29081854218	13701.75
2692.40738074762	13602.25
2694.52334981681	13583.25
2696.63872602995	13616
2698.75350966713	13757.75
2700.86770100841	13683.25
2702.98130033371	13665.25
2705.09430792289	13600.25
2707.20672405571	13611
2709.31854901185	13670.75
2711.42978307091	13590.25
2713.54042651238	13668.25
2715.65047961567	13747.5
2717.7599426601	13669
2719.86881592491	13691
2721.97709968924	13672.25
2724.08479423213	13621
2726.19189983255	13683.25
2728.29841676934	13709.25
2730.4043453213	13791
2732.5096857671	13730.25
2734.61443838532	13808.25
2736.71860345444	13710
2738.82218125286	13680.25
2740.92517205889	13765.5
2743.02757615072	13687.5
2745.12939380646	13665.75
2747.23062530411	13756.25
2749.33127092159	13793.75
2751.4313309367	13708.5
2753.53080562716	13781.75
2755.62969527058	13843.5
2757.72800014448	13724.75
2759.82572052625	13756.5
2761.92285669323	13756.25
2764.0194089226	13896.75
2766.11537749147	13945.25
2768.21076267686	13904.75
2770.30556475566	13927.25
2772.39978400465	13960.25
2774.49342070054	13948.25
2776.58647511991	14045.5
2778.67894753923	13889
2780.77083823487	13995.75
2782.8621474831	13806.25
2784.95287556007	13819.5
2787.04302274184	13785
2789.13258930433	13837.75
2791.22157552338	13735.25
2793.30998167471	13726.75
2795.39780803392	13791.75
2797.4850548765	13836.5
2799.57172247786	13738
2801.65781111324	13806.25
2803.74332105781	13847.5
2805.82825258661	13825.75
2807.91260597457	13935.5
2809.9963814965	13901.5
2812.07957942711	13945.5
2814.16220004096	13855
2816.24424361252	13808.25
2818.32571041614	13828.5
2820.40660072604	13854
2822.48691481631	13921.5
2824.56665296098	13982.25
2826.64581543388	13910
2828.72440250876	13992.75
2830.80241445925	13955.5
2832.87985155885	14025.25
2834.95671408093	14065
2837.03300229875	14173.25
2839.10871648544	14136.25
2841.18385691399	14203.25
2843.25842385729	14175.75
2845.33241758808	14183
2847.40583837898	14342.75
2849.4786865025	14381.5
2851.550962231	14370.75
2853.6226658367	14426.75
2855.69379759173	14408.5
2857.76435776806	14426.75
2859.83434663753	14503.5
2861.90376447184	14477
2863.97261154259	14537
2866.0408881212	14545.25
2868.10859447901	14559.75
2870.17573088717	14682.75
2872.24229761673	14707
2874.30829493859	14741
2876.37372312352	14615.5
2878.43858244215	14764.5
2880.50287316496	14751.25
2882.56659556231	14779.75
2884.62974990439	14802
2886.69233646129	14862.5
2888.75435550293	14856.5
2890.81580729909	15009.75
2892.87669211941	14911.75
2894.93701023339	14979.5
2896.99676191039	14979.25
2899.05594741961	15143
2901.1145670301	15027.5
2903.1726210108	15016.5
2905.23010963045	15073.25
2907.28703315768	15027
2909.34339186096	15145.25
2911.39918600861	15129.75
2913.45441586879	15059
2915.50908170952	15008.75
2917.56318379867	15079.25
2919.61672240395	15167.75
2921.66969779291	15144.5
2923.72211023295	15190.75
2925.77395999134	15173.75
2927.82524733515	15296
2929.87597253132	15303.25
2931.92613584663	15340.5
2933.97573754769	15198.75
2936.02477790097	15130.5
2938.07325717276	15073.5
2940.1211756292	15163.5
2942.16853353626	15163.25
2944.21533115976	15205.5
2946.26156876536	15115
2948.30724661853	15135.25
2950.3523649846	15363.5
2952.39692412872	15226.5
2954.44092431587	15246
2956.48436581089	15210.75
2958.52724887843	15211.75
2960.56957378296	15329.5
2962.6113407888	15360.75
2964.65255016011	15290.5
2966.69320216083	15555.25
2968.73329705479	15302
2970.77283510559	15361.5
2972.81181657671	15441.5
2974.8502417314	15523
2976.88811083279	15507.75
2978.92542414378	15550.5
2980.96218192713	15482.5
2982.99838444541	15528.25
2985.034031961	15524.75
2987.06912473612	15679.5
2989.1036630328	15656.5
2991.13764711288	15687.75
2993.17107723804	15700.5
2995.20395366974	15791
2997.23627666931	15844.25
2999.26804649782	15854.25
3001.29926341624	15965.5
3003.32992768528	15949.75
3005.3600395655	15997.75
3007.38959931726	16129.5
3009.41860720076	16074.5
3011.44706347595	16372.5
3013.47496840263	16235.75
3015.50232224041	16344.5
3017.5291252487	16473.5
3019.5553776867	16222.5
3021.58107981344	16549.75
3023.60623188773	16535.5
3025.63083416822	16499
3027.65488691331	16700
3029.67839038125	16754.25
3031.70134483007	16638.5
3033.72375051759	16790.25
3035.74560770144	16857.75
3037.76691663907	16843.75
3039.78767758768	17062.75
3041.80789080431	16867
3043.82755654577	16854.75
3045.84667506867	16930.5
3047.8652466294	17040.75
3049.88327148418	17014
3051.90074988899	17113.5
3053.91768209961	16984.75
3055.9340683716	17042.75
3057.94990896033	17054.5
3059.96520412095	17131.75
3061.97995410838	17217.75
3063.99415917734	17218
3066.00781958234	17177.5
3068.02093557766	17261.25
3070.03350741738	17099.5
3072.04553535535	17252
3074.05701964521	17324.75
3076.06796054036	17281.75
3078.078358294	17298.5
3080.08821315912	17364.25
3082.09752538846	17535.75
3084.10629523454	17246.5
3086.11452294967	17389.75
3088.12220878592	17443.75
3090.12935299515	17444.75
3092.13595582898	17430.5
3094.1420175388	17530.5
3096.14753837579	17571
3098.15251859088	17589.5
3100.15695843477	17606
3102.16085815793	17679.5
3104.16421801061	17649.25
3106.16703824282	17718.75
3108.16931910432	17717.75
3110.17106084464	17706.5
3112.17226371308	17837.25
3114.17292795872	17931.25
3116.17305383034	17989
3118.17264157657	17923.25
3120.17169144571	17972.75
3122.17020368587	17866.5
3124.16817854492	17938.25
3126.16561627044	18111.25
3128.16251710982	18304
3130.15888131017	18307.75
3132.15470911837	18360
3134.15000078104	18428.25
3136.14475654455	18464.75
3138.13897665502	18549.25
3140.13266135835	18509
3142.12581090014	18460.5
3144.11842552577	18690
3146.11050548036	18740.25
3148.10205100875	18712.25
3150.09306235557	18814.5
3152.08353976515	18681
3154.07348348158	18563
3156.06289374869	18848.25
3158.05177081006	18673
3160.04011490899	18875
3162.02792628852	18968.75
3164.01520519145	18857.25
3166.00195186029	19021.5
3167.98816653728	18948.75
3169.97384946442	19094
3171.95900088344	18980.25
3173.94362103577	19090.5
3175.92771016259	19089.25
3177.91126850484	19155.25
3179.89429630312	19178.75
3181.87679379782	19227
3183.85876122903	19324
3185.84019883657	19395
3187.82110685997	19316.75
3189.80148553851	19250.75
3191.78133511116	19545.25
3193.76065581664	19498.5
3195.73944789337	19505.25
3197.7177115795	19527.25
3199.6954471129	19578.5
3201.67265473114	19690.5
3203.64933467153	19577.25
3205.62548717107	19728.75
3207.60111246648	19808.25
3209.57621079421	19774.5
3211.55078239041	19833.25
3213.52482749093	19728.75
3215.49834633133	19945.5
3217.4713391469	20102
3219.44380617262	19965.75
3221.41574764317	20138.25
3223.38716379296	20017.5
3225.35805485607	20200.25
3227.32842106631	20240.5
3229.29826265718	20352.25
3231.26757986187	20418
3233.2363729133	20526.5
3235.20464204405	20432.75
3237.17238748643	20466.25
3239.13960947243	20570.5
3241.10630823374	20710.5
3243.07248400174	20658
3245.03813700748	20824.25
3247.00326748177	20893
3248.96787565503	20796.25
3250.93196175742	20978.5
3252.89552601877	20868.25
3254.8585686686	20919
3256.82108993612	21048.75
3258.78309005022	20993.5
3260.74456923948	20982.5
3262.70552773215	21155.75
3264.66596575617	21096.25
3266.62588353916	21108.25
3268.58528130843	21099.75
3270.54415929094	21040.5
3272.50251771336	21194.75
3274.46035680201	21254.25
3276.4176767829	21329.75
3278.37447788171	21251.75
3280.33076032379	21436.5
3282.28652433416	21403.5
3284.24177013751	21403.75
3286.1964979582	21442.75
3288.15070802027	21582.25
3290.10440054741	21490.75
3292.05757576298	21452.25
3294.01023389001	21507.5
3295.96237515119	21507
3297.91399976887	21571.5
3299.86510796506	21550.75
3301.81569996142	21663
3303.76577597932	21651
3305.7153362397	21771
3307.66438096324	21685.25
3309.61291037024	21755.5
3311.56092468064	21724.25
3313.50842411404	21649.75
3315.45540888971	21822.75
3317.40187922656	21694.25
3319.34783534315	21895
3321.29327745768	21821.75
3323.23820578801	21525
3325.18262055164	21783
3327.1265219657	21682
3329.06991024699	21667.75
3331.01278561194	21745.25
3332.95514827662	21728.5
3334.89699845674	21808.5
3336.83833636766	21900.25
3338.77916222434	21613.75
3340.71947624143	21831.75
3342.65927863317	21875.75
3344.59856961346	21791.5
3346.53734939584	21967.25
3348.47561819344	21774.75
3350.41337621906	21747
3352.35062368513	21861.5
3354.28736080368	21939.5
3356.22358778637	21904.75
3358.15930484452	22047.75
3360.09451218904	22076
3362.02921003047	22064.5
3363.96339857898	22138.75
3365.89707804436	22100.25
3367.83024863602	21990.75
3369.76291056299	21950.5
3371.69506403389	22003.5
3373.62670925699	22155.75
3375.55784644016	22200.75
3377.4884757909	22101.5
3379.41859751629	22202.75
3381.34821182305	22186
3383.27731891749	22227.25
3385.20591900555	22338.25
3387.13401229276	22395.25
3389.06159898426	22518.75
3390.9886792848	22569.75
3392.91525339872	22567
3394.84132152998	22574.75
3396.76688388213	22573.25
3398.69194065833	22587.75
3400.61649206133	22655
3402.54053829348	22662
3404.46407955672	22683.75
3406.3871160526	22581
3408.30964798225	22636.5
3410.23167554639	22611.75
3412.15319894535	22805.25
3414.07421837904	22741.25
3415.99473404695	22843.75
3417.91474614817	22807.25
3419.83425488136	22922.75
3421.75326044479	22869.25
3423.67176303631	22859
3425.58976285332	22897.75
3427.50726009282	22893.75
3429.42425495143	22836.5
3431.34074762528	22905.5
3433.25673831012	22712.5
3435.17222720127	22750.5
3437.08721449362	22812.75
3439.00170038164	22656.75
3440.91568505936	22838
3442.82916872039	22579.75
3444.74215155791	22747.5
3446.65463376468	22703.5
3448.566615533	22670
3450.47809705476	22684.5
3452.3890785214	22655.75
3454.29956012393	22765.5
3456.20954205293	22743.5
3458.11902449853	22717.75
3460.02800765041	22586
3461.93649169784	22670.25
3463.84447682962	22603.25
3465.75196323412	22579.75
3467.65895109925	22540
3469.56544061249	22692
3471.47143196086	22569.25
3473.37692533093	22597.5
3475.28192090884	22524.25
3477.18641888026	22649
3479.09041943039	22700.25
3480.99392274402	22574
3482.89692900545	22505.5
3484.79943839853	22498.75
3486.70145110666	22546.5
3488.60296731277	22549
3490.50398719933	22560.5
3492.40451094836	22326
3494.30453874141	22445.5
3496.20407075956	22489.5
3498.10310718342	22545.5
3500.00164819315	22336.5