201.866871357051	686.5
204.754250281454	687.25
207.640596790938	677
210.525911876299	679.25
213.410196525689	684.75
216.293451724508	682.25
219.175678455485	680.5
222.056877698662	680
224.937050431388	671
227.816197628363	681
230.694320261602	679.25
233.571419300504	677.25
236.447495711764	673.25
239.322550459507	676.25
242.196584505182	680.25
245.069598807626	675.5
247.941594323078	668.25
250.812572005154	681.5
253.682532804884	676
256.551477670699	681.75
259.419407548456	680
262.286323381439	680.5
265.152226110364	681.5
268.017116673389	685.25
270.880996006115	677.5
273.743865041622	684.25
276.605724710436	690.5
279.466575940562	679.75
282.326419657496	688.75
285.1852567842	685.25
288.043088241157	692
290.899914946349	690.25
293.75573781526	697.25
296.610557760898	702.25
299.464375693817	709.75
302.317192522078	703.75
305.169009151297	712.25
308.019826484655	716.5
310.86964542287	719.5
313.718466864233	732
316.566291704614	732.5
319.413120837457	733.75
322.258955153804	728.75
325.103795542291	733
327.947642889128	737
330.79049807819	741.75
333.632361990927	740
336.473235506444	731.75
339.31311950145	742.5
342.152014850322	745.25
344.989922425062	751.25
347.826843095354	749.5
350.662777728528	760.25
353.497727189577	773.5
356.331692341195	792
359.164674043732	790.75
361.996673155267	787
364.827690531536	800.5
367.65772702602	784.25
370.486783489887	773
373.314860772047	755.25
376.14195971912	742.25
378.968081175466	729.75
381.793225983212	731.75
384.617394982201	704.5
387.44058901005	707
390.262808902131	703.5
393.08405549161	694.5
395.904329609395	690.5
398.723632084213	676
401.541963742569	680.5
404.359325408779	672.75
407.175717904938	675
409.991142050982	670.5
412.805598664665	669.25
415.619088561551	667.75
418.43161255505	668.25
421.243171456415	669.25
424.053766074758	673.25
426.863397217017	667.5
429.672065688024	663
432.479772290455	672.25
435.286517824879	669.75
438.092303089736	651
440.897128881359	653.75
443.70099599399	649.25
446.503905219761	642
449.305857348711	645.75
452.106853168796	644
454.906893465919	643.25
457.705979023885	645.75
460.504110624439	648
463.3012890473	646.5
466.097515070087	643
468.892789468424	645.25
471.687113015869	645.75
474.48048648395	646.75
477.272910642198	642.5
480.064386258109	644.75
482.854914097159	646.75
485.644494922839	649
488.433129496636	647.75
491.220818578047	658.5
494.007562924584	650.5
496.793363291785	650.25
499.578220433217	651
502.362135100473	640.5
505.145108043209	650.25
507.927140009098	646.5
510.708231743909	654.75
513.488383991433	659.5
516.267597493556	656.75
519.04587299022	660.5
521.82321121946	665.25
524.599612917398	669
527.375078818233	663
530.149609654287	667.5
532.923206155967	660.75
535.695869051804	672
538.467599068448	675.5
541.238396930665	670.5
544.008263361364	667.25
546.777199081578	675
549.545204810493	664
552.312281265436	662.75
555.078429161898	669.75
557.843649213533	668.25
560.607942132156	664.75
563.371308627753	659.5
566.133749408495	668
568.895265180756	664
571.655856649064	673
574.415524516189	674.25
577.174269483075	677.25
579.932092248884	674.75
582.688993510994	675.75
585.444973965023	675.25
588.200034304795	687.5
590.95417522237	690.75
593.70739740807	699.75
596.459701550433	714
599.21108833628	730
601.961558450668	756.25
604.711112576933	797.5
607.459751396673	823
610.207475589748	849.5
612.954285834338	876
615.700182806879	886.5
618.445167182101	905.75
621.189239633055	916.5
623.932400831087	923.25
626.674651445839	930.75
629.415992145303	968.25
632.156423595745	1001.5
634.895946461813	1028.5
637.634561406449	1041
640.37226909096	1029.25
643.109070174978	1004.5
645.844965316508	974.75
648.579955171888	940
651.314040395846	901.25
654.047221641456	859.25
656.779499560176	826.75
659.510874801828	798.5
662.241348014642	780.25
664.97091984524	776.5
667.699590938606	780.25
670.427361938164	802.25
673.15423348573	795.25
675.880206221526	837
678.605280784206	862.5
681.329457810829	884.25
684.05273793692	896
686.775121796389	927.5
689.49661002163	943
692.217203243454	961.5
694.936902091144	951.75
697.655707192425	940.25
700.373619173493	940.75
703.09063865901	921.25
705.806766272093	888
708.522002634378	855.25
711.236348365946	819.75
713.94980408538	794
716.662370409762	761.25
719.374047954676	739.75
722.08483733419	713.25
724.794739160909	708.25
727.503754045949	689.5
730.21188259892	681.75
732.919125427998	670.5
735.625483139855	664
738.330956339723	660
741.035545631374	658.5
743.739251617106	663
746.44207489779	659
749.144016072852	652.5
751.845075740272	648.25
754.545254496603	645
757.244552936976	648.25
759.94297165508	639.75
762.640511243222	648
765.337172292249	642.5
768.032955391649	643.25
770.727861129482	643
773.421890092413	643
776.11504286572	633.25
778.807320033298	642.25
781.49872217765	640.5
784.18924987991	635.5
786.87890371984	639.5
789.567684275826	637.25
792.255592124908	633.75
794.94262784276	638.75
797.628792003703	635.25
800.314085180715	633.25
802.998507945427	643.25
805.682060868145	641
808.364744517821	642
811.046559462105	646.75
813.727506267311	653.75
816.407585498422	652
819.08679771913	655.25
821.765143491822	653.25
824.442623377563	650.5
827.119237936127	665.75
829.794987726003	668
832.469873304377	677
835.143895227167	678.25
837.817054048985	676
840.489350323205	680.25
843.160784601892	681.25
845.831357435894	676.5
848.501069374739	681.25
851.169920966753	675.25
853.837912758987	675.25
856.505045297232	674.5
859.171319126071	678.5
861.836734788823	674.5
864.501292827579	674.25
867.164993783208	674
869.827838195361	660
872.489826602454	670.5
875.150959541701	658.25
877.811237549104	662.75
880.470661159456	660.75
883.129230906357	658
885.786947322205	651.5
888.443810938206	666.5
891.099822284385	656.75
893.754981889586	656
896.409290281452	664
899.062747986485	654.5
901.715355529999	657
904.367113436154	660.75
907.01802222793	659.75
909.668082427172	657.5
912.317294554574	657
914.965659129659	654.5
917.613176670835	664
920.259847695364	659.75
922.90567271936	661.75
925.550652257825	665.5
928.194786824621	662.5
930.838076932512	658.5
933.480523093109	666
936.122125816953	656.25
938.762885613447	660.25
941.402802990899	664.5
944.041878456523	663.25
946.680112516428	663.75
949.31750567563	667
951.954058438081	670.75
954.589771306633	678.75
957.224644783048	680.25
959.858679368044	670.75
962.491875561238	674.25
965.12423386121	681.75
967.75575476545	672.25
970.386438770423	671.25
973.016286371501	671.25
975.645298063046	669
978.273474338355	671.75
980.900815689674	666.5
983.527322608243	671.5
986.152995584245	668.5
988.777835106834	670
991.401841664148	662.75
994.025015743307	672.25
996.647357830407	671
999.268868410534	678.5
1001.88954796777	673.5
1004.50939698518	677
1007.12841594484	669
1009.74660532783	667.75
1012.36396561423	659.25
1014.98049728314	671.5
1017.59620081267	666.75
1020.21107667995	668.5
1022.82512536112	678.25
1025.43834733138	670
1028.05074306493	673
1030.66231303501	682.75
1033.27305771392	689.5
1035.88297757299	701
1038.49207308257	703.75
1041.10034471211	701.5
1043.70779293008	696.25
1046.31441820402	685.75
1048.92022100052	679
1051.52520178525	681.25
1054.12936102295	687.25
1056.73269917742	688
1059.33521671154	683.5
1061.93691408729	691
1064.53779176571	684.75
1067.13785020694	688
1069.73708987022	687.5
1072.33551121386	688.5
1074.93311469528	692.75
1077.52990077103	690.25
1080.12586989674	697
1082.72102252714	706
1085.31535911611	706.25
1087.90888011663	717
1090.50158598078	716
1093.09347715979	723.25
1095.68455410403	706
1098.27481726296	721.25
1100.86426708523	720.5
1103.45290401857	718.5
1106.04072850991	713.75
1108.6277410053	708.5
1111.21394194993	713.25
1113.79933178816	710
1116.3839109635	711
1118.96767991862	716.5
1121.55063909539	704.5
1124.13278893477	700.25
1126.71412987696	693.5
1129.29466236132	683.5
1131.87438682637	680
1134.45330370982	677.5
1137.03141344858	666.5
1139.60871647872	661
1142.18521323554	662.25
1144.7609041535	663.75
1147.33578966629	659.75
1149.90987020676	665
1152.48314620702	661.5
1155.05561809835	658.5
1157.62728631125	672.5
1160.19815127545	685
1162.76821341988	701
1165.33747317271	704.25
1167.90593096133	721.25
1170.47358721235	716
1173.04044235163	717.75
1175.60649680425	720.5
1178.17175099454	724
1180.73620534607	735.25
1183.29986028165	715.75
1185.86271622336	730
1188.42477359249	720.75
1190.98603280964	720.5
1193.54649429462	704.75
1196.10615846653	710.25
1198.66502574372	702.25
1201.22309654385	698
1203.78037128378	693.25
1206.33685037971	689.75
1208.89253424709	678.25
1211.44742330063	682
1214.00151795438	671.5
1216.55481862163	669.25
1219.10732571497	665
1221.65903964631	667.75
1224.20996082683	671
1226.760089667	667.75
1229.30942657664	666.75
1231.85797196483	676.5
1234.40572623998	675.75
1236.95268980981	674.75
1239.49886308136	678.75
1242.04424646098	680.75
1244.58884035435	683.5
1247.13264516647	690
1249.67566130166	691.5
1252.21788916358	683.75
1254.75932915524	694.75
1257.29998167896	697.5
1259.83984713639	701.25
1262.37892592857	693.75
1264.91721845586	693.25
1267.45472511795	701.25
1269.9914463139	698.75
1272.52738244213	700
1275.0625339004	704.25
1277.59690108587	688.25
1280.130484395	707.75
1282.66328422367	703.75
1285.19530096712	696.75
1287.72653501993	699.5
1290.25698677608	711.5
1292.78665662894	727
1295.31554497125	725.75
1297.8436521951	738.25
1300.37097869203	742
1302.89752485292	742.5
1305.42329106805	753
1307.94827772713	765
1310.47248521921	761.75
1312.99591393279	766.25
1315.51856425575	768.5
1318.04043657536	759.25
1320.56153127836	759
1323.08184875083	769.25
1325.6013893783	766.25
1328.12015354572	776
1330.63814163744	768
1333.15535403727	764.5
1335.67179112839	769.5
1338.18745329347	761.25
1340.70234091454	760.75
1343.21645437314	743.5
1345.72979405019	725.5
1348.24236032607	725
1350.75415358059	710.5
1353.26517419303	712.25
1355.7754225421	711.75
1358.28489900594	704.75
1360.79360396218	709.25
1363.30153778787	701.75
1365.80870085955	698.75
1368.31509355319	696
1370.82071624424	696
1373.32556930762	684.75
1375.8296531177	698.5
1378.33296804832	686.25
1380.83551447282	690.5
1383.33729276399	688.75
1385.83830329408	682.75
1388.33854643489	687.5
1390.83802255762	689.5
1393.33673203301	678.5
1395.83467523128	673.5
1398.33185252211	668.25
1400.82826427471	672
1403.32391085777	671.75
1405.81879263947	679.75
1408.31290998752	676.75
1410.80626326908	690.75
1413.29885285087	711.25
1415.79067909909	708.5
1418.28174237944	734
1420.77204305717	756.5
1423.26158149702	795.75
1425.75035806323	819.75
1428.2383731196	848.5
1430.72562702942	832.5
1433.21212015554	831.25
1435.69785286028	840
1438.18282550555	823
1440.66703845275	779.25
1443.15049206284	763.5
1445.6331866963	729.25
1448.11512271316	728
1450.59630047298	727.75
1453.07672033486	709
1455.55638265748	707
1458.03528779902	701.25
1460.51343611725	695.5
1462.99082796946	693.5
1465.46746371252	690.75
1467.94334370285	680
1470.41846829642	677.75
1472.89283784878	671.5
1475.36645271503	675.25
1477.83931324983	669.75
1480.31141980743	672.75
1482.78277274164	671
1485.25337240583	670.5
1487.72321915297	671.25
1490.19231333557	669
1492.66065530578	667.25
1495.12824541525	666.5
1497.5950840153	657.5
1500.06117145678	669.75
1502.52650809014	666.25
1504.99109426543	665.5
1507.45493033227	670.75
1509.91801663992	674
1512.38035353717	676.75
1514.84194137248	670.25
1517.30278049386	677
1519.76287124894	677.75
1522.22221398497	681.25
1524.68080904876	694.5
1527.13865678681	701
1529.59575754514	694.75
1532.05211166945	684.25
1534.50771950503	671.5
1536.96258139678	677.5
1539.41669768924	668.25
1541.87006872656	670.25
1544.32269485252	668.5
1546.77457641051	667
1549.22571374357	668
1551.67610719434	672
1554.12575710513	667.75
1556.57466381785	666.5
1559.02282767408	667.5
1561.47024901499	671
1563.91692818144	672.25
1566.3628655139	671.75
1568.80806135249	671
1571.252516037	672
1573.6962299068	673.25
1576.13920330099	682.75
1578.58143655828	678.25
1581.02293001704	685.75
1583.46368401528	689.75
1585.90369889071	682.75
1588.34297498065	690.75
1590.7815126221	685
1593.21931215173	684.75
1595.65637390588	702.25
1598.09269822053	702
1600.52828543135	703.75
1602.96313587367	699
1605.3972498825	695
1607.83062779252	680.25
1610.26326993808	681.75
1612.69517665322	680
1615.12634827165	681.25
1617.55678512676	671.25
1619.98648755163	684.75
1622.41545587902	672
1624.84369044138	673.75
1627.27119157085	675.25
1629.69795959924	675.25
1632.12399485808	671.5
1634.54929767859	670.25
1636.97386839165	676.25
1639.39770732789	686.25
1641.8208148176	686.75
1644.24319119078	682.5
1646.66483677715	670
1649.0857519061	683.75
1651.50593690677	683.25
1653.92539210795	681.5
1656.3441178382	688
1658.76211442575	687.75
1661.17938219855	691
1663.59592148428	690
1666.01173261032	696.5
1668.42681590377	697.25
1670.84117169145	692
1673.25480029991	686
1675.66770205541	689.5
1678.07987728393	683.75
1680.49132631119	677
1682.90204946263	688.5
1685.31204706342	681.75
1687.72131943846	695
1690.1298669124	686.25
1692.53768980957	684.5
1694.94478845411	686
1697.35116316982	681.25
1699.75681428031	685
1702.16174210887	681.5
1704.56594697858	686.75
1706.96942921222	694.25
1709.37218913235	696
1711.77422706125	694.75
1714.17554332098	689.75
1716.5761382333	702.5
1718.97601211977	704.75
1721.37516530169	708.75
1723.77359810006	702.25
1726.17131083572	702.25
1728.56830382922	702
1730.96457740087	708.75
1733.36013187075	693.75
1735.75496755868	705
1738.14908478428	699
1740.54248386689	697.25
1742.93516512565	682.5
1745.32712887946	696.25
1747.71837544697	687
1750.10890514662	686.5
1752.49871829661	679.25
1754.88781521492	694.25
1757.27619621929	690.5
1759.66386162726	686.5
1762.05081175612	688.25
1764.43704692297	691
1766.82256744465	682
1769.20737363782	687.5
1771.59146581887	684.75
1773.97484430405	684
1776.35750940932	685.5
1778.73946145048	686.75
1781.12070074309	694.25
1783.50122760249	690.25
1785.88104234385	686.75
1788.26014528209	691
1790.63853673196	684.75
1793.01621700796	694
1795.39318642443	692.25
1797.76944529549	687.5
1800.14499393503	694.25
1802.51983265681	697
1804.8939617743	693.75
1807.26738160085	694.25
1809.64009244957	694.25
1812.01209463339	694.25
1814.38338846504	701
1816.75397425706	695.25
1819.12385232181	694.75
1821.49302297142	693.75
1823.86148651789	698.25
1826.22924327299	688.5
1828.59629354831	695.75
1830.96263765526	697
1833.32827590507	700.75
1835.69320860877	703.25
1838.05743607724	691.25
1840.42095862113	695.25
1842.78377655097	702.5
1845.14589017707	698.75
1847.50729980956	695.5
1849.86800575843	696.25
1852.22800833346	701.5
1854.58730784427	697.5
1856.94590460032	703.25
1859.30379891087	694
1861.66099108503	695.5
1864.01748143175	700.5
1866.37327025978	695.75
1868.72835787773	699.75
1871.08274459403	705
1873.43643071697	698.25
1875.78941655464	707.75
1878.14170241498	707
1880.4932886058	697
1882.84417543469	705.5
1885.19436320915	700.5
1887.54385223646	702.75
1889.89264282378	703.75
1892.24073527809	712.5
1894.58812990625	708.75
1896.93482701493	706.25
1899.28082691067	708.25
1901.62612989984	714.25
1903.97073628868	715.25
1906.31464638326	705.75
1908.6578604895	709.5
1911.00037891321	711
1913.34220196	718.25
1915.68332993537	718
1918.02376314468	713.75
1920.36350189311	716.25
1922.70254648573	717.5
1925.04089722744	717.5
1927.37855442303	718.75
1929.71551837715	721
1932.05178939426	708.75
1934.38736777876	721
1936.72225383484	714.75
1939.0564478666	721.5
1941.38995017799	711.25
1943.72276107283	726.75
1946.05488085479	709.5
1948.38630982744	718.25
1950.71704829419	713.25
1953.04709655832	718.25
1955.376454923	716
1957.70512369126	719
1960.03310316599	727.5
1962.36039364999	716.25
1964.68699544589	712.5
1967.01290885622	713.75
1969.33813418338	724
1971.66267172965	716.5
1973.98652179718	728.5
1976.309684688	729
1978.63216070402	720.5
1980.95395014705	727.5
1983.27505331873	722
1985.59547052063	727
1987.9152020542	726.25
1990.23424822074	726.5
1992.55260932146	734.75
1994.87028565746	737
1997.18727752968	722.25
1999.503585239	731.75
2001.81920908618	728.5
2004.13414937184	721.5
2006.44840639651	737
2008.7619804606	731
2011.07487186442	734.5
2013.38708090815	738
2015.6986078919	744.75
2018.00945311564	737.5
2020.31961687923	737.75
2022.62909948246	737.25
2024.93790122498	743.25
2027.24602240636	735.25
2029.55346332604	737.5
2031.86022428337	735.5
2034.16630557761	732.25
2036.47170750791	753.25
2038.77643037331	741
2041.08047447275	751.75
2043.38384010509	745.25
2045.68652756907	739.25
2047.98853716335	737.25
2050.28986918648	740.75
2052.59052393692	748.75
2054.89050171302	751.5
2057.18980281306	746.25
2059.4884275352	746.75
2061.78637617753	742.25
2064.08364903802	745
2066.38024641457	750.5
2068.67616860497	751.25
2070.97141590694	759.5
2073.26598861809	744.5
2075.55988703595	747.25
2077.85311145796	746.5
2080.14566218145	762.5
2082.43753950371	756.5
2084.72874372188	748.5
2087.01927513307	755.75
2089.30913403428	747.75
2091.59832072241	750.75
2093.88683549429	750.5
2096.17467864666	756.5
2098.46185047619	748.75
2100.74835127944	748.25
2103.03418135292	764.75
2105.31934099303	760
2107.6038304961	759
2109.88765015838	766.25
2112.17080027602	759
2114.45328114513	760
2116.7350930617	761.25
2119.01623632165	765.75
2121.29671122085	767.5
2123.57651805505	764.5
2125.85565711996	762.75
2128.13412871117	770.25
2130.41193312424	764
2132.68907065462	758.75
2134.96554159771	764.25
2137.24134624881	773.75
2139.51648490317	778.5
2141.79095785593	773.25
2144.0647654022	759.5
2146.33790783698	767.5
2148.61038545524	775
2150.88219855182	768.75
2153.15334742154	778.5
2155.42383235911	781.5
2157.6936536592	780.5
2159.9628116164	786.5
2162.23130652522	774.5
2164.49913868011	778.75
2166.76630837544	777.25
2169.03281590552	788.5
2171.2986615646	798.5
2173.56384564685	791.25
2175.82836844637	769
2178.0922302572	780
2180.35543137332	782.5
2182.61797208862	787.5
2184.87985269695	790.25
2187.14107349208	781.25
2189.40163476773	785
2191.66153681753	783.25
2193.92077993507	794.5
2196.17936441386	780.25
2198.43729054735	790.25
2200.69455862894	791.25
2202.95116895194	801
2205.20712180962	788
2207.46241749519	793.25
2209.71705630179	795.25
2211.97103852248	791
2214.2243644503	788
2216.47703437819	789.5
2218.72904859905	786.75
2220.98040740571	799.75
2223.23111109095	790
2225.4811599475	803
2227.73055426799	800
2229.97929434504	799.75
2232.22738047118	795
2234.47481293889	797
2236.72159204058	798.5
2238.96771806864	796.75
2241.21319131536	799.25
2243.458012073	802.25
2245.70218063374	803
2247.94569728973	801.5
2250.18856233304	794
2252.4307760557	804.5
2254.67233874967	801
2256.91325070687	791
2259.15351221915	807.75
2261.39312357831	807.5
2263.63208507611	805.5
2265.87039700422	809.5
2268.1080596543	815
2270.34507331792	809.75
2272.5814382866	811.25
2274.81715485183	811.5
2277.05222330502	806.25
2279.28664393755	815.25
2281.52041704072	814.25
2283.75354290581	810.75
2285.98602182401	813.75
2288.21785408648	802.75
2290.44903998434	802.75
2292.67957980862	806.25
2294.90947385033	806.25
2297.1387224004	821.25
2299.36732574975	811.25
2301.59528418921	809.75
2303.82259800958	813.5
2306.04926750158	823.25
2308.27529295593	814
2310.50067466325	814.5
2312.72541291412	829
2314.9495079991	825.75
2317.17296020866	822
2319.39576983323	822.25
2321.61793716322	829.75
2323.83946248894	828.75
2326.06034610069	827.25
2328.28058828871	821.25
2330.50018934317	823
2332.7191495542	820.25
2334.93746921192	829.25
2337.15514860633	825.5
2339.37218802743	825
2341.58858776516	832.25
2343.80434810941	830
2346.01946935001	834.25
2348.23395177675	826.5
2350.44779567939	826.25
2352.66100134759	825.75
2354.87356907101	826.5
2357.08549913925	832.75
2359.29679184185	823.25
2361.50744746829	841.5
2363.71746630804	836.5
2365.92684865048	839.5
2368.13559478499	830.5
2370.34370500083	835.75
2372.55117958727	828.75
2374.75801883352	831.5
2376.96422302874	826
2379.16979246202	827.5
2381.37472742243	827
2383.57902819898	834.25
2385.78269508063	843.75
2387.98572835629	816.75
2390.18812831482	829.5
2392.38989524505	830
2394.59102943573	830.5
2396.79153117559	833.5
2398.9914007533	846
2401.19063845748	837.75
2403.38924457672	836.75
2405.58721939951	827.75
2407.78456321435	836.25
2409.98127630966	837.5
2412.17735897382	835.75
2414.37281149517	835
2416.56763416198	837.25
2418.76182726249	844
2420.95539108487	848.75
2423.14832591726	843.5
2425.34063204776	847.25
2427.53230976439	828.25
2429.72335935513	838.75
2431.91378110795	841.75
2434.10357531071	835
2436.29274225125	840.75
2438.48128221739	846
2440.66919549683	848
2442.8564823773	850
2445.04314314641	840.25
2447.22917809176	846
2449.4145875009	835
2451.59937166131	839.5
2453.78353086044	840.25
2455.96706538568	843
2458.14997552436	854.5
2460.33226156379	841.75
2462.51392379119	831
2464.69496249376	850.25
2466.87537795862	843.25
2469.05517047288	840
2471.23434032357	846
2473.41288779767	854.5
2475.59081318211	840.5
2477.76811676378	835
2479.9447988295	846
2482.12085966605	849.5
2484.29629956016	844.5
2486.4711187985	852.75
2488.64531766769	851
2490.8188964543	844.75
2492.99185544484	841.5
2495.16419492579	854.25
2497.33591518353	842.25
2499.50701650444	840.25
2501.67749917482	838.75
2503.84736348091	857.5
2506.01660970891	847.25
2508.18523814496	844
2510.35324907514	852.25
2512.52064278551	843.25
2514.68741956201	848.75
2516.85357969058	854.25
2519.01912345709	857
2521.18405114735	849.75
2523.34836304711	846.75
2525.51205944208	854.25
2527.6751406179	857.75
2529.83760686016	845.75
2531.99945845439	848.75
2534.16069568606	847.75
2536.3213188406	852.75
2538.48132820336	859.75
2540.64072405965	847.25
2542.79950669471	850.25
2544.95767639373	858.75
2547.11523344184	848.75
2549.27217812411	851.5
2551.42851072555	864
2553.58423153111	854.25
2555.73934082569	858
2557.89383889412	859.75
2560.04772602118	853
2562.20100249158	855.5
2564.35366858996	859.5
2566.50572460093	854.75
2568.65717080901	860
2570.80800749867	867
2572.95823495433	858.25
2575.10785346031	863.5
2577.25686330093	866.25
2579.40526476038	861.25
2581.55305812282	866.25
2583.70024367237	858.5
2585.84682169303	864.25
2587.99279246879	862.75
2590.13815628354	871
2592.28291342112	859.25
2594.42706416531	859.5
2596.5706087998	861.25
2598.71354760826	873
2600.85588087425	856.5
2602.99760888127	855.5
2605.13873191278	871.5
2607.27925025214	861.5
2609.41916418269	865
2611.55847398764	866.75
2613.69717995017	870.75
2615.83528235339	870.5
2617.97278148034	879.25
2620.10967761398	874.5
2622.2459710372	878
2624.38166203284	878
2626.51675088365	873.5
2628.65123787231	868.25
2630.78512328145	873.25
2632.9184073936	880
2635.05109049124	883.5
2637.18317285676	864.75
2639.31465477248	872
2641.44553652067	881
2643.5758183835	889
2645.70550064309	873.75
2647.83458358144	874.5
2649.96306748053	881.75
2652.09095262223	880
2654.21823928836	877
2656.34492776063	878.5
2658.47101832071	887.25
2660.59651125015	889.75
2662.72140683047	890.25
2664.84570534309	889
2666.96940706934	895
2669.0925122905	876.75
2671.21502128773	891.75
2673.33693434215	882.5
2675.45825173479	896.75
2677.57897374658	876
2679.69910065839	891.75
2681.818632751	898.25
2683.93757030511	886.25
2686.05591360133	885.5
2688.17366292021	890.5
2690.29081854218	899.75
2692.40738074762	901.5
2694.52334981681	893.5
2696.63872602995	894.25
2698.75350966713	890.75
2700.86770100841	892
2702.98130033371	898
2705.09430792289	895.5
2707.20672405571	908.25
2709.31854901185	897
2711.42978307091	903.75
2713.54042651238	912.75
2715.65047961567	914.75
2717.7599426601	919.25
2719.86881592491	916
2721.97709968924	915.25
2724.08479423213	907.75
2726.19189983255	924.25
2728.29841676934	917.5
2730.4043453213	921.5
2732.5096857671	940.75
2734.61443838532	919.75
2736.71860345444	927.25
2738.82218125286	921.25
2740.92517205889	929.5
2743.02757615072	911.25
2745.12939380646	929.25
2747.23062530411	922.25
2749.33127092159	918.75
2751.4313309367	914.5
2753.53080562716	920.25
2755.62969527058	913
2757.72800014448	908.75
2759.82572052625	915.25
2761.92285669323	907.5
2764.0194089226	893.5
2766.11537749147	905.5
2768.21076267686	904.25
2770.30556475566	904.25
2772.39978400465	894.75
2774.49342070054	904.75
2776.58647511991	898.25
2778.67894753923	902.75
2780.77083823487	895.75
2782.8621474831	885.25
2784.95287556007	886.75
2787.04302274184	900.75
2789.13258930433	906.75
2791.22157552338	908.5
2793.30998167471	902.5
2795.39780803392	895.75
2797.4850548765	902.75
2799.57172247786	904.5
2801.65781111324	901
2803.74332105781	921.75
2805.82825258661	909
2807.91260597457	927.25
2809.9963814965	918.25
2812.07957942711	942
2814.16220004096	940.25
2816.24424361252	954
2818.32571041614	956.25
2820.40660072604	966.5
2822.48691481631	951.25
2824.56665296098	955
2826.64581543388	966.25
2828.72440250876	951
2830.80241445925	964.25
2832.87985155885	983
2834.95671408093	1009.75
2837.03300229875	1021.25
2839.10871648544	1033.75
2841.18385691399	1063
2843.25842385729	1092.25
2845.33241758808	1107.75
2847.40583837898	1120
2849.4786865025	1124.25
2851.550962231	1122
2853.6226658367	1123.5
2855.69379759173	1145
2857.76435776806	1134.75
2859.83434663753	1132.5
2861.90376447184	1129.5
2863.97261154259	1120
2866.0408881212	1126.25
2868.10859447901	1123
2870.17573088717	1138.25
2872.24229761673	1141
2874.30829493859	1150.25
2876.37372312352	1132.25
2878.43858244215	1160.75
2880.50287316496	1156
2882.56659556231	1159.75
2884.62974990439	1168
2886.69233646129	1184.5
2888.75435550293	1219
2890.81580729909	1237.75
2892.87669211941	1294.25
2894.93701023339	1363.5
2896.99676191039	1494.75
2899.05594741961	1641.25
2901.1145670301	1836
2903.1726210108	1975.5
2905.23010963045	2217.25
2907.28703315768	2408
2909.34339186096	2579.5
2911.39918600861	2739
2913.45441586879	2726.25
2915.50908170952	2719.5
2917.56318379867	2598.75
2919.61672240395	2490.25
2921.66969779291	2354.25
2923.72211023295	2257.25
2925.77395999134	2169
2927.82524733515	2125.5
2929.87597253132	2077
2931.92613584663	2034.75
2933.97573754769	2046.75
2936.02477790097	2049.5
2938.07325717276	2041.25
2940.1211756292	2005.5
2942.16853353626	1948
2944.21533115976	1904.75
2946.26156876536	1844.75
2948.30724661853	1813
2950.3523649846	1756.5
2952.39692412872	1674.25
2954.44092431587	1620.25
2956.48436581089	1571.5
2958.52724887843	1538.5
2960.56957378296	1540.75
2962.6113407888	1522.75
2964.65255016011	1520
2966.69320216083	1546
2968.73329705479	1575.5
2970.77283510559	1569
2972.81181657671	1586.25
2974.8502417314	1546
2976.88811083279	1499.25
2978.92542414378	1456.5
2980.96218192713	1406.5
2982.99838444541	1347
2985.034031961	1283.5
2987.06912473612	1233.25
2989.1036630328	1205.25
2991.13764711288	1168
2993.17107723804	1128.5
2995.20395366974	1096
2997.23627666931	1085.25
2999.26804649782	1060.75
3001.29926341624	1049.75
3003.32992768528	1035.5
3005.3600395655	1042.25
3007.38959931726	1014.5
3009.41860720076	1022.75
3011.44706347595	1006.75
3013.47496840263	1002.75
3015.50232224041	1008
3017.5291252487	1003.25
3019.5553776867	995.5
3021.58107981344	979.5
3023.60623188773	990.75
3025.63083416822	986.5
3027.65488691331	987.75
3029.67839038125	995.25
3031.70134483007	985.75
3033.72375051759	991.5
3035.74560770144	984.5
3037.76691663907	988.5
3039.78767758768	977.5
3041.80789080431	970.25
3043.82755654577	968.25
3045.84667506867	971.5
3047.8652466294	964
3049.88327148418	972
3051.90074988899	973
3053.91768209961	996.25
3055.9340683716	985.25
3057.94990896033	983
3059.96520412095	999
3061.97995410838	998.5
3063.99415917734	986
3066.00781958234	976.5
3068.02093557766	994.25
3070.03350741738	985
3072.04553535535	983
3074.05701964521	995.25
3076.06796054036	981.25
3078.078358294	985.5
3080.08821315912	981.5
3082.09752538846	967
3084.10629523454	971
3086.11452294967	967.5
3088.12220878592	974.75
3090.12935299515	963.25
3092.13595582898	945.5
3094.1420175388	954.75
3096.14753837579	953.75
3098.15251859088	951
3100.15695843477	966.25
3102.16085815793	952
3104.16421801061	942
3106.16703824282	946.25
3108.16931910432	939.5
3110.17106084464	941
3112.17226371308	944
3114.17292795872	953
3116.17305383034	939.75
3118.17264157657	945
3120.17169144571	950.25
3122.17020368587	950.75
3124.16817854492	953
3126.16561627044	946.5
3128.16251710982	950.75
3130.15888131017	958.25
3132.15470911837	945.5
3134.15000078104	945.5
3136.14475654455	964.5
3138.13897665502	947.25
3140.13266135835	951.5
3142.12581090014	939
3144.11842552577	951.5
3146.11050548036	952.75
3148.10205100875	952.5
3150.09306235557	967.25
3152.08353976515	958.25
3154.07348348158	953.25
3156.06289374869	951.25
3158.05177081006	953.75
3160.04011490899	958.75
3162.02792628852	945.25
3164.01520519145	945.75
3166.00195186029	955
3167.98816653728	957.75
3169.97384946442	964.25
3171.95900088344	955
3173.94362103577	961.75
3175.92771016259	955
3177.91126850484	955.75
3179.89429630312	948
3181.87679379782	957.5
3183.85876122903	957.75
3185.84019883657	962.25
3187.82110685997	957.5
3189.80148553851	956.25
3191.78133511116	972.25
3193.76065581664	963.5
3195.73944789337	953.5
3197.7177115795	961.25
3199.6954471129	961.5
3201.67265473114	960
3203.64933467153	957.25
3205.62548717107	959
3207.60111246648	949.5
3209.57621079421	958
3211.55078239041	967.25
3213.52482749093	953.5
3215.49834633133	971
3217.4713391469	973
3219.44380617262	966.25
3221.41574764317	962.75
3223.38716379296	981.5
3225.35805485607	978
3227.32842106631	961.25
3229.29826265718	980.5
3231.26757986187	974.25
3233.2363729133	966.5
3235.20464204405	973
3237.17238748643	968.5
3239.13960947243	968.75
3241.10630823374	964
3243.07248400174	978.5
3245.03813700748	980.75
3247.00326748177	971.25
3248.96787565503	977.5
3250.93196175742	971.75
3252.89552601877	972.25
3254.8585686686	985.25
3256.82108993612	982.5
3258.78309005022	972
3260.74456923948	985.25
3262.70552773215	975.75
3264.66596575617	973.5
3266.62588353916	983.5
3268.58528130843	974.75
3270.54415929094	982.5
3272.50251771336	980.25
3274.46035680201	982.5
3276.4176767829	986
3278.37447788171	986
3280.33076032379	986.5
3282.28652433416	994.75
3284.24177013751	981
3286.1964979582	981.75
3288.15070802027	988.5
3290.10440054741	986.75
3292.05757576298	967.5
3294.01023389001	979
3295.96237515119	991
3297.91399976887	978.5
3299.86510796506	983
3301.81569996142	970.25
3303.76577597932	986.75
3305.7153362397	997.25
3307.66438096324	996.75
3309.61291037024	989
3311.56092468064	984.75
3313.50842411404	989
3315.45540888971	993
3317.40187922656	981.25
3319.34783534315	1003.25
3321.29327745768	979.5
3323.23820578801	983
3325.18262055164	1001.25
3327.1265219657	983.5
3329.06991024699	983.25
3331.01278561194	975
3332.95514827662	998
3334.89699845674	986.75
3336.83833636766	992.75
3338.77916222434	978.75
3340.71947624143	984.5
3342.65927863317	991
3344.59856961346	986.5
3346.53734939584	975.5
3348.47561819344	996.5
3350.41337621906	981.5
3352.35062368513	991.5
3354.28736080368	985.25
3356.22358778637	994
3358.15930484452	999.25
3360.09451218904	988.25
3362.02921003047	985.5
3363.96339857898	980
3365.89707804436	993.25
3367.83024863602	1000.75
3369.76291056299	985.5
3371.69506403389	990.75
3373.62670925699	990.25
3375.55784644016	997
3377.4884757909	992.25
3379.41859751629	1007.75
3381.34821182305	988.75
3383.27731891749	1005.75
3385.20591900555	991.75
3387.13401229276	991
3389.06159898426	998.25
3390.9886792848	997.5
3392.91525339872	1001.75
3394.84132152998	1010
3396.76688388213	993
3398.69194065833	1002
3400.61649206133	985.25
3402.54053829348	1002.75
3404.46407955672	999.25
3406.3871160526	993
3408.30964798225	1000
3410.23167554639	997.25
3412.15319894535	1000.5
3414.07421837904	1005.5
3415.99473404695	1000.25
3417.91474614817	999
3419.83425488136	1009.5
3421.75326044479	1016.5
3423.67176303631	999
3425.58976285332	996
3427.50726009282	1019.25
3429.42425495143	1010
3431.34074762528	1003.75
3433.25673831012	1007.5
3435.17222720127	1012.5
3437.08721449362	1015
3439.00170038164	1003
3440.91568505936	1006
3442.82916872039	1007.25
3444.74215155791	1008
3446.65463376468	1005
3448.566615533	1004.25
3450.47809705476	991.5
3452.3890785214	999
3454.29956012393	1009.25
3456.20954205293	1010.5
3458.11902449853	1008.5
3460.02800765041	995.75
3461.93649169784	990.75
3463.84447682962	991.75
3465.75196323412	994.25
3467.65895109925	988.25
3469.56544061249	1000.5
3471.47143196086	1005
3473.37692533093	1006
3475.28192090884	994.5
3477.18641888026	1008.75
3479.09041943039	1010.25
3480.99392274402	1015
3482.89692900545	995.5
3484.79943839853	997.25
3486.70145110666	1003
3488.60296731277	1010
3490.50398719933	991.25
3492.40451094836	1006.75
3494.30453874141	994
3496.20407075956	1004.75
3498.10310718342	1002.75
3500.00164819315	999.25