201.866871357053	915.5
204.754250281456	914
207.640596790939	928.25
210.525911876301	924.25
213.41019652569	915.5
216.293451724511	933.25
219.175678455486	936
222.056877698663	929
224.937050431391	934.75
227.816197628365	946.25
230.694320261604	943.5
233.571419300504	951
236.447495711765	936.75
239.322550459507	943
242.196584505184	956
245.069598807628	948
247.94159432308	951
250.812572005157	951.75
253.682532804885	942.5
256.551477670701	944.25
259.419407548458	944.75
262.286323381442	940.25
265.152226110364	952
268.017116673389	931
270.880996006118	932.5
273.743865041624	941.5
276.605724710438	941.5
279.466575940565	924
282.326419657499	935.75
285.185256784201	941.5
288.04308824116	938.75
290.899914946356	926
293.75573781526	934.5
296.610557760899	931.25
299.464375693819	941.5
302.317192522079	941.75
305.169009151297	947.25
308.019826484655	934.75
310.869645422872	938.5
313.718466864235	936.75
316.566291704615	940.75
319.41312083746	946.25
322.258955153805	939.75
325.103795542294	942
327.947642889129	947.25
330.79049807819	947.75
333.63236199093	946.25
336.473235506447	935.25
339.313119501453	936.25
342.152014850323	948
344.989922425064	958.5
347.826843095356	950.75
350.662777728529	954
353.497727189577	969.5
356.331692341196	965
359.164674043732	966
361.996673155267	970.5
364.827690531538	968
367.657727026021	960.25
370.486783489887	973.25
373.314860772046	967
376.14195971912	952.5
378.968081175469	962.75
381.793225983214	965.5
384.617394982201	973.75
387.44058901005	977
390.262808902134	972
393.084055491614	968.5
395.904329609395	980
398.723632084216	971.75
401.541963742572	974
404.359325408781	980
407.17571790494	987.25
409.991142050985	997.25
412.805598664665	996
415.619088561551	1011.75
418.431612555051	1013.25
421.243171456419	1020.75
424.05376607476	1047.75
426.86339721702	1028.25
429.672065688025	1044.75
432.479772290455	1051.75
435.28651782488	1068
438.092303089737	1063.5
440.897128881362	1070.5
443.700995993992	1068.75
446.503905219761	1063.75
449.305857348711	1068
452.106853168798	1078.5
454.906893465921	1055.25
457.705979023886	1036.25
460.504110624441	1019.5
463.301289047302	1012.75
466.09751507009	1021.75
468.892789468424	990.5
471.687113015869	1000.5
474.480486483952	997
477.272910642201	985.5
480.064386258111	988.75
482.854914097161	980.75
485.644494922841	974.5
488.433129496637	975.5
491.22081857805	968.75
494.007562924587	978.25
496.793363291787	979.75
499.578220433219	979.75
502.362135100475	991.25
505.145108043209	982.25
507.927140009101	995.25
510.70823174391	982
513.488383991435	982.75
516.267597493556	979.25
519.045872990221	998.5
521.823211219462	979
524.5996129174	991.25
527.375078818234	996
530.149609654287	979.5
532.923206155968	982.25
535.695869051803	982
538.46759906845	983.25
541.238396930667	968
544.008263361365	989.75
546.777199081581	985.5
549.545204810496	971.25
552.312281265439	994.75
555.078429161901	995
557.843649213536	992.75
560.607942132158	989.5
563.371308627753	995.75
566.133749408497	991.75
568.895265180758	1000.5
571.655856649067	1011
574.415524516192	1001
577.174269483075	1013
579.932092248886	1003.5
582.688993510996	1019
585.444973965024	1016.5
588.200034304796	1038.25
590.954175222372	1028
593.707397408072	1039.75
596.459701550436	1052.75
599.211088336284	1050.25
601.961558450671	1057.25
604.711112576934	1046.25
607.459751396673	1071.25
610.207475589751	1057.5
612.954285834339	1059.5
615.70018280688	1057.5
618.445167182103	1038.75
621.189239633057	1045
623.932400831087	1026.25
626.674651445839	1033.25
629.415992145303	1020.5
632.156423595745	1008.5
634.895946461815	1016.5
637.634561406448	1006
640.372269090962	996.5
643.109070174981	990.5
645.84496531651	998.5
648.579955171891	988.5
651.314040395848	997.25
654.047221641459	996.75
656.779499560178	998
659.510874801831	985.25
662.241348014646	985.5
664.970919845243	978
667.699590938608	989.5
670.427361938164	986
673.154233485732	996.25
675.880206221526	994
678.605280784208	1002
681.329457810832	1020.25
684.052737936921	1026.5
686.77512179639	1023.5
689.496610021632	1019.25
692.217203243456	1005.5
694.936902091147	994
697.655707192428	989.25
700.373619173495	1001.5
703.090638659013	990.5
705.806766272093	981
708.522002634379	992.5
711.236348365948	975.5
713.949804085381	981.75
716.662370409764	990.5
719.374047954676	985.5
722.084837334191	975.75
724.79473916091	992.75
727.50375404595	994
730.21188259892	984
732.919125427998	998.75
735.625483139858	997
738.330956339726	992
741.035545631373	993.5
743.739251617109	994
746.44207489779	976.25
749.144016072856	988.75
751.845075740273	991.75
754.545254496604	989.5
757.244552936979	976.5
759.942971655083	987.5
762.640511243225	978.25
765.337172292252	992.75
768.032955391651	995
770.727861129485	981
773.421890092416	974.5
776.11504286572	973.5
778.807320033299	991
781.49872217765	987.25
784.189249879911	992.25
786.87890371984	978.75
789.567684275826	969.5
792.255592124909	993.75
794.942627842762	973
797.628792003709	972.5
800.314085180718	982.25
802.998507945429	971.25
805.682060868145	986.25
808.364744517821	988.75
811.046559462106	984.25
813.727506267312	990.25
816.407585498422	991
819.086797719131	991.5
821.765143491823	984
824.442623377565	983.25
827.119237936129	997.25
829.794987726006	990.75
832.469873304377	986.75
835.143895227169	991.75
837.817054048985	990.75
840.489350323206	980.75
843.160784601894	987
845.831357435894	987.75
848.501069374742	1002.75
851.169920966756	992.75
853.837912758989	997.75
856.505045297233	1003.75
859.171319126073	996.75
861.836734788825	978.5
864.501292827581	1002
867.164993783208	1001.25
869.827838195363	994.75
872.489826602455	998
875.150959541702	998.5
877.811237549104	999.25
880.470661159458	981
883.129230906359	998.75
885.786947322208	991.5
888.443810938208	991.25
891.099822284387	998.5
893.754981889586	997
896.409290281453	979
899.062747986487	1003.5
901.715355530001	988.25
904.367113436154	1005
907.018022227933	1005.75
909.668082427173	991.75
912.317294554575	995.75
914.965659129661	1008
917.613176670838	985.5
920.259847695365	992.75
922.90567271936	989.25
925.550652257826	999.5
928.194786824624	1000.5
930.838076932514	999.75
933.480523093111	991.75
936.122125816956	1002.75
938.762885613448	988.25
941.402802990899	1008.75
944.041878456524	1003
946.680112516429	1007.75
949.317505675633	1009.25
951.954058438084	1018.5
954.589771306634	997.75
957.224644783051	1001
959.858679368047	1006.75
962.491875561238	999
965.124233861212	997
967.755754765453	1005.75
970.386438770423	997
973.016286371502	1019.75
975.645298063046	996.75
978.273474338357	1010
980.900815689675	1007
983.527322608245	1001
986.152995584248	1012.5
988.777835106835	1007
991.401841664151	999.25
994.025015743307	1005.5
996.64735783041	1012.5
999.268868410535	1009
1001.88954796777	1012.5
1004.50939698518	1005.25
1007.12841594484	999.5
1009.74660532783	1005.5
1012.36396561423	1020.75
1014.98049728314	1001.25
1017.59620081267	1010.5
1020.21107667995	1007.25
1022.82512536112	1031.5
1025.43834733138	1010.25
1028.05074306492	1039.75
1030.66231303501	1023.5
1033.27305771392	1024.5
1035.88297757299	1022
1038.49207308257	1032
1041.10034471211	1021
1043.70779293008	1038
1046.31441820402	1034.5
1048.92022100052	1018.5
1051.52520178525	1032
1054.12936102295	1045.25
1056.73269917742	1045.5
1059.33521671154	1055.5
1061.93691408729	1063.25
1064.53779176572	1042
1067.13785020694	1055.75
1069.73708987022	1041.75
1072.33551121386	1032.25
1074.93311469528	1042.5
1077.52990077103	1043
1080.12586989674	1035.25
1082.72102252715	1040.25
1085.31535911612	1055
1087.90888011663	1047.5
1090.50158598078	1043.75
1093.09347715979	1038.5
1095.68455410403	1028.25
1098.27481726296	1040.25
1100.86426708523	1029.75
1103.45290401857	1032
1106.04072850991	1033
1108.6277410053	1024.25
1111.21394194993	1029.5
1113.79933178816	1038.25
1116.3839109635	1037.5
1118.96767991862	1046.25
1121.55063909539	1049.25
1124.13278893477	1067.5
1126.71412987696	1086.5
1129.29466236132	1073.75
1131.87438682637	1059.25
1134.45330370982	1037.25
1137.03141344858	1050.25
1139.60871647873	1060.5
1142.18521323554	1053.25
1144.7609041535	1048.5
1147.33578966629	1050.25
1149.90987020677	1045.5
1152.48314620702	1048
1155.05561809835	1053.75
1157.62728631126	1040.5
1160.19815127545	1044.25
1162.76821341988	1045.5
1165.33747317271	1041
1167.90593096133	1048
1170.47358721235	1036
1173.04044235163	1043.75
1175.60649680425	1054.25
1178.17175099454	1045
1180.73620534607	1044.25
1183.29986028165	1031.25
1185.86271622336	1048.25
1188.42477359249	1040.75
1190.98603280964	1043
1193.54649429462	1041.5
1196.10615846653	1050
1198.66502574373	1039
1201.22309654385	1041.5
1203.78037128379	1049.5
1206.33685037971	1034
1208.89253424709	1036.75
1211.44742330063	1042
1214.00151795439	1034.25
1216.55481862163	1042.25
1219.10732571498	1053
1221.65903964631	1036.25
1224.20996082683	1045
1226.760089667	1043.5
1229.30942657664	1041.75
1231.85797196483	1038.25
1234.40572623998	1048.75
1236.95268980981	1056.25
1239.49886308136	1048.5
1242.04424646099	1048
1244.58884035435	1042.75
1247.13264516647	1041.5
1249.67566130166	1055.25
1252.21788916359	1047.5
1254.75932915524	1076.5
1257.29998167896	1069.75
1259.8398471364	1072.5
1262.37892592858	1065
1264.91721845586	1064.75
1267.45472511795	1078.75
1269.9914463139	1075.25
1272.52738244213	1082.5
1275.06253390041	1083.5
1277.59690108587	1092.5
1280.130484395	1090.75
1282.66328422368	1097.25
1285.19530096712	1095.25
1287.72653501993	1102.25
1290.25698677609	1111.75
1292.78665662895	1141.75
1295.31554497125	1136.5
1297.84365219511	1130
1300.37097869203	1114.25
1302.89752485292	1122.25
1305.42329106806	1119.5
1307.94827772713	1117.5
1310.47248521921	1111.75
1312.99591393279	1104
1315.51856425575	1088.75
1318.04043657537	1108
1320.56153127836	1090
1323.08184875083	1092.5
1325.6013893783	1092.25
1328.12015354572	1100.5
1330.63814163744	1109
1333.15535403727	1084.5
1335.67179112839	1117.25
1338.18745329347	1112
1340.70234091455	1108.25
1343.21645437314	1094
1345.72979405019	1091.5
1348.24236032607	1115.25
1350.75415358059	1089.25
1353.26517419303	1085.5
1355.7754225421	1104.5
1358.28489900594	1112.75
1360.79360396218	1119.25
1363.30153778788	1115.75
1365.80870085955	1118
1368.31509355319	1125.5
1370.82071624425	1104.5
1373.32556930762	1110
1375.8296531177	1090
1378.33296804833	1111.25
1380.83551447282	1106.25
1383.33729276399	1102.5
1385.83830329408	1113.5
1388.33854643489	1109.25
1390.83802255762	1109
1393.33673203302	1096.25
1395.83467523128	1094
1398.33185252212	1103.75
1400.82826427472	1090
1403.32391085777	1097.25
1405.81879263948	1097
1408.31290998752	1097.75
1410.80626326908	1094
1413.29885285087	1106.25
1415.79067909909	1112.5
1418.28174237944	1128.75
1420.77204305717	1124
1423.26158149702	1126
1425.75035806323	1129.75
1428.2383731196	1125
1430.72562702943	1148.5
1433.21212015554	1160.5
1435.69785286029	1172.25
1438.18282550555	1170.75
1440.66703845276	1181.25
1443.15049206284	1174.75
1445.6331866963	1181.5
1448.11512271316	1175.75
1450.59630047298	1173
1453.07672033486	1172
1455.55638265748	1160.5
1458.03528779902	1174
1460.51343611725	1165
1462.99082796946	1176.5
1465.46746371252	1159
1467.94334370285	1168.25
1470.41846829642	1152.75
1472.89283784878	1131.75
1475.36645271503	1159
1477.83931324984	1142.75
1480.31141980743	1161.5
1482.78277274164	1155.5
1485.25337240583	1137
1487.72321915297	1142.75
1490.19231333557	1147.5
1492.66065530577	1144.75
1495.12824541525	1149.5
1497.5950840153	1162.5
1500.06117145678	1162.5
1502.52650809014	1194
1504.99109426543	1188.5
1507.45493033228	1175.5
1509.91801663992	1162.5
1512.38035353717	1168.5
1514.84194137248	1141.25
1517.30278049386	1154.5
1519.76287124895	1157.25
1522.22221398497	1153.75
1524.68080904877	1153.5
1527.13865678681	1152.5
1529.59575754514	1180
1532.05211166946	1174.25
1534.50771950503	1203
1536.96258139678	1201.25
1539.41669768925	1218.5
1541.87006872656	1209.5
1544.32269485252	1194
1546.77457641051	1184
1549.22571374357	1204
1551.67610719434	1169.5
1554.12575710513	1177.5
1556.57466381786	1202.25
1559.02282767408	1196.75
1561.470249015	1190.25
1563.91692818144	1190.25
1566.3628655139	1190
1568.80806135249	1192.25
1571.252516037	1195
1573.6962299068	1203.5
1576.139203301	1185.5
1578.58143655828	1191.25
1581.02293001704	1205.25
1583.46368401528	1198.5
1585.90369889071	1191.75
1588.34297498065	1187
1590.7815126221	1177.75
1593.21931215174	1200.25
1595.65637390588	1189
1598.09269822053	1186.75
1600.52828543135	1200.25
1602.96313587367	1210.25
1605.3972498825	1204.75
1607.83062779252	1188.25
1610.26326993808	1215.5
1612.69517665322	1191
1615.12634827165	1191.25
1617.55678512676	1195.25
1619.98648755164	1190.25
1622.41545587903	1185.5
1624.84369044138	1181.5
1627.27119157085	1192.75
1629.69795959924	1191.25
1632.12399485809	1191.75
1634.54929767859	1195.25
1636.97386839165	1189
1639.39770732789	1187.5
1641.8208148176	1200
1644.24319119078	1194.75
1646.66483677715	1192
1649.08575190611	1201.5
1651.50593690677	1210.75
1653.92539210795	1203
1656.3441178382	1201.25
1658.76211442575	1201.25
1661.17938219855	1222.75
1663.59592148428	1213
1666.01173261033	1222.25
1668.42681590377	1214.25
1670.84117169145	1222
1673.25480029991	1230
1675.66770205541	1234.75
1678.07987728393	1224
1680.49132631119	1215.5
1682.90204946263	1213
1685.31204706342	1227.75
1687.72131943847	1232.25
1690.1298669124	1234.5
1692.53768980957	1242
1694.94478845411	1247.5
1697.35116316982	1258.5
1699.75681428031	1242.5
1702.16174210887	1240.25
1704.56594697858	1261.5
1706.96942921222	1236
1709.37218913235	1252
1711.77422706126	1239.75
1714.17554332098	1247.25
1716.57613823331	1265.25
1718.97601211977	1249.75
1721.37516530169	1252.25
1723.77359810006	1250.25
1726.17131083573	1244.25
1728.56830382922	1243.75
1730.96457740087	1250.75
1733.36013187075	1249.25
1735.75496755868	1254.5
1738.14908478428	1247
1740.54248386689	1236.25
1742.93516512566	1255
1745.32712887946	1238.75
1747.71837544697	1258
1750.10890514662	1255.5
1752.49871829661	1252.5
1754.88781521492	1254.5
1757.27619621929	1245.25
1759.66386162726	1250
1762.05081175613	1260.75
1764.43704692297	1256.5
1766.82256744465	1240
1769.20737363782	1264.75
1771.59146581888	1267.25
1773.97484430405	1259.5
1776.35750940932	1264.25
1778.73946145048	1276
1781.12070074309	1264.5
1783.50122760249	1274.25
1785.88104234385	1277
1788.26014528209	1278.5
1790.63853673197	1281.25
1793.01621700796	1293.5
1795.39318642444	1291
1797.76944529549	1281
1800.14499393504	1282.5
1802.51983265681	1264.5
1804.8939617743	1286.25
1807.26738160085	1300.5
1809.64009244957	1289.75
1812.01209463339	1286.75
1814.38338846504	1296.75
1816.75397425706	1285
1819.12385232181	1298
1821.49302297142	1297.25
1823.86148651789	1300.25
1826.22924327299	1296
1828.59629354831	1298.75
1830.96263765526	1303
1833.32827590507	1291.5
1835.69320860877	1301
1838.05743607724	1294.25
1840.42095862113	1291
1842.78377655097	1283.25
1845.14589017707	1306.25
1847.50729980956	1293.75
1849.86800575843	1310
1852.22800833346	1298.25
1854.58730784427	1294.25
1856.94590460032	1303.5
1859.30379891087	1313
1861.66099108503	1306.5
1864.01748143175	1316
1866.37327025978	1325.5
1868.72835787773	1322.25
1871.08274459404	1317.25
1873.43643071697	1305.25
1875.78941655464	1320.75
1878.14170241499	1326
1880.4932886058	1331.25
1882.84417543469	1337
1885.19436320915	1324.5
1887.54385223646	1317.5
1889.89264282378	1324
1892.24073527809	1338.75
1894.58812990625	1338.25
1896.93482701494	1330.5
1899.28082691067	1349.75
1901.62612989985	1368
1903.97073628868	1353
1906.31464638326	1362
1908.6578604895	1361.25
1911.00037891321	1365
1913.34220196001	1377.25
1915.68332993538	1371
1918.02376314468	1365.75
1920.36350189311	1380.75
1922.70254648573	1374.5
1925.04089722744	1365.25
1927.37855442304	1390
1929.71551837715	1379.75
1932.05178939427	1380.5
1934.38736777876	1390
1936.72225383484	1374.5
1939.0564478666	1388.5
1941.38995017799	1373
1943.72276107283	1390.25
1946.05488085479	1389
1948.38630982744	1367.5
1950.71704829419	1362
1953.04709655832	1373
1955.376454923	1349.75
1957.70512369126	1387
1960.03310316599	1370.75
1962.36039364999	1356.5
1964.68699544589	1387.75
1967.01290885622	1363
1969.33813418338	1385
1971.66267172965	1406.5
1973.98652179718	1380.75
1976.309684688	1402.75
1978.63216070402	1386.25
1980.95395014705	1405.25
1983.27505331873	1403
1985.59547052064	1398.75
1987.9152020542	1411
1990.23424822074	1400.5
1992.55260932146	1411.75
1994.87028565746	1395.25
1997.18727752968	1428
1999.50358523901	1401.75
2001.81920908618	1399.75
2004.13414937184	1422
2006.44840639651	1440.25
2008.7619804606	1426
2011.07487186442	1435.5
2013.38708090815	1449.25
2015.6986078919	1453.75
2018.00945311564	1422
2020.31961687924	1425.25
2022.62909948247	1433.75
2024.93790122499	1461
2027.24602240636	1454.75
2029.55346332604	1460
2031.86022428337	1463.25
2034.16630557761	1472
2036.47170750791	1461.5
2038.77643037331	1471.25
2041.08047447275	1480.25
2043.38384010509	1461.25
2045.68652756907	1466.5
2047.98853716335	1450
2050.28986918648	1470.25
2052.59052393692	1469
2054.89050171302	1470.75
2057.18980281307	1482.25
2059.4884275352	1477.75
2061.78637617753	1488.5
2064.08364903802	1462.25
2066.38024641457	1475
2068.67616860497	1477.5
2070.97141590694	1488.5
2073.26598861809	1482.5
2075.55988703595	1478.25
2077.85311145796	1469.25
2080.14566218145	1495
2082.43753950371	1475.5
2084.72874372188	1484
2087.01927513307	1482.25
2089.30913403428	1485.25
2091.59832072241	1481
2093.88683549429	1468.25
2096.17467864666	1490
2098.46185047619	1483.25
2100.74835127944	1509
2103.03418135292	1494.5
2105.31934099303	1499.75
2107.6038304961	1490.75
2109.88765015838	1507.25
2112.17080027602	1487
2114.45328114513	1524
2116.7350930617	1504.5
2119.01623632165	1508
2121.29671122085	1500
2123.57651805505	1490.25
2125.85565711996	1513.25
2128.13412871117	1544.75
2130.41193312424	1530.75
2132.68907065462	1524.5
2134.96554159771	1541.25
2137.24134624881	1539.75
2139.51648490317	1535.5
2141.79095785594	1537.75
2144.0647654022	1545.75
2146.33790783698	1532.5
2148.61038545524	1539.5
2150.88219855182	1530
2153.15334742154	1539.75
2155.42383235911	1544.5
2157.69365365921	1554.75
2159.9628116164	1555.25
2162.23130652522	1543.5
2164.49913868011	1549
2166.76630837544	1571
2169.03281590553	1550.25
2171.29866156461	1570.5
2173.56384564685	1559.25
2175.82836844637	1550.5
2178.0922302572	1539.25
2180.35543137332	1566.5
2182.61797208862	1561
2184.87985269695	1557
2187.14107349208	1549.75
2189.40163476773	1566.25
2191.66153681753	1552.25
2193.92077993507	1556.75
2196.17936441386	1560.25
2198.43729054735	1568.25
2200.69455862894	1557.75
2202.95116895194	1560
2205.20712180963	1544
2207.4624174952	1548.75
2209.71705630179	1567
2211.97103852248	1555.75
2214.22436445031	1553.5
2216.47703437819	1565.5
2218.72904859905	1568
2220.98040740571	1569
2223.23111109096	1558.75
2225.4811599475	1559.5
2227.730554268	1566.25
2229.97929434505	1570
2232.22738047118	1548.75
2234.47481293889	1544.25
2236.72159204058	1554.25
2238.96771806864	1570
2241.21319131537	1565.5
2243.458012073	1557.25
2245.70218063374	1537
2247.94569728973	1567.75
2250.18856233304	1562.75
2252.4307760557	1533.5
2254.67233874967	1549.5
2256.91325070687	1561.25
2259.15351221915	1547.25
2261.39312357831	1553.5
2263.63208507611	1548.5
2265.87039700422	1564.25
2268.1080596543	1575.5
2270.34507331792	1545.25
2272.5814382866	1554
2274.81715485183	1557.5
2277.05222330502	1566.75
2279.28664393755	1550.75
2281.52041704073	1568
2283.75354290581	1569
2285.98602182401	1573.25
2288.21785408649	1555.75
2290.44903998434	1557
2292.67957980862	1577.75
2294.90947385033	1541.5
2297.1387224004	1565.25
2299.36732574976	1554.75
2301.59528418921	1562
2303.82259800958	1575.5
2306.04926750158	1554.75
2308.27529295593	1540.5
2310.50067466325	1571.5
2312.72541291412	1554
2314.9495079991	1559.75
2317.17296020866	1563.75
2319.39576983324	1550
2321.61793716322	1553.75
2323.83946248895	1559.5
2326.0603461007	1571.25
2328.28058828871	1573.5
2330.50018934317	1574.75
2332.7191495542	1574
2334.93746921192	1564.75
2337.15514860633	1537.25
2339.37218802743	1567.25
2341.58858776516	1540.5
2343.80434810941	1549.75
2346.01946935001	1551.25
2348.23395177676	1576.25
2350.44779567939	1549.75
2352.66100134759	1548
2354.87356907102	1569.75
2357.08549913925	1554
2359.29679184185	1547
2361.50744746829	1584.25
2363.71746630804	1552.75
2365.92684865049	1556.5
2368.13559478499	1551.25
2370.34370500083	1568
2372.55117958727	1547.25
2374.75801883353	1557.5
2376.96422302874	1532
2379.16979246202	1528.25
2381.37472742244	1549.25
2383.57902819898	1535.75
2385.78269508063	1529
2387.98572835629	1549.75
2390.18812831482	1549
2392.38989524505	1531.75
2394.59102943573	1544.5
2396.79153117559	1533
2398.9914007533	1532.75
2401.19063845748	1546
2403.38924457672	1498.75
2405.58721939951	1540
2407.78456321435	1546.5
2409.98127630966	1536
2412.17735897383	1523.5
2414.37281149518	1543.5
2416.56763416198	1543.25
2418.76182726249	1531.75
2420.95539108487	1526.5
2423.14832591726	1537.25
2425.34063204776	1523.25
2427.53230976439	1514.5
2429.72335935513	1521
2431.91378110795	1527.25
2434.10357531071	1526.25
2436.29274225126	1534
2438.48128221739	1510.5
2440.66919549684	1509.25
2442.8564823773	1522.75
2445.04314314641	1528.5
2447.22917809176	1531
2449.4145875009	1524
2451.59937166131	1517.25
2453.78353086044	1500
2455.96706538567	1514.5
2458.14997552437	1524.5
2460.33226156379	1495.75
2462.51392379119	1510.75
2464.69496249376	1508.25
2466.87537795862	1513.75
2469.05517047288	1494.5
2471.23434032358	1504.75
2473.41288779767	1504.25
2475.59081318212	1488.75
2477.76811676378	1493.5
2479.9447988295	1501.5
2482.12085966605	1501.5
2484.29629956016	1496.25
2486.4711187985	1491.75
2488.64531766769	1498.75
2490.8188964543	1494.5
2492.99185544484	1493
2495.16419492579	1490.75
2497.33591518353	1502.5
2499.50701650444	1500.25
2501.67749917482	1505
2503.84736348091	1481.5
2506.01660970891	1493
2508.18523814496	1486
2510.35324907515	1511.75
2512.52064278551	1491.5
2514.68741956201	1484.75
2516.85357969058	1522.5
2519.01912345709	1519
2521.18405114735	1502.25
2523.34836304711	1515.25
2525.51205944209	1505.25
2527.6751406179	1511.5
2529.83760686016	1495
2531.99945845439	1516
2534.16069568607	1499
2536.3213188406	1513
2538.48132820336	1488.25
2540.64072405965	1502.5
2542.79950669471	1496.5
2544.95767639373	1504.5
2547.11523344184	1485.5
2549.27217812411	1509
2551.42851072555	1492.25
2553.58423153111	1494.75
2555.7393408257	1512.25
2557.89383889413	1492
2560.04772602119	1495.75
2562.20100249158	1480.25
2564.35366858996	1514
2566.50572460093	1504
2568.65717080901	1487
2570.80800749867	1485.5
2572.95823495433	1486.5
2575.10785346031	1492
2577.25686330093	1476.25
2579.40526476038	1474.75
2581.55305812282	1485.25
2583.70024367237	1475.25
2585.84682169303	1453.75
2587.99279246879	1473.5
2590.13815628354	1466
2592.28291342112	1473.25
2594.42706416531	1486
2596.57060879981	1479.5
2598.71354760826	1461.75
2600.85588087425	1460.75
2602.99760888127	1482.75
2605.13873191278	1474
2607.27925025215	1457.75
2609.41916418269	1470.25
2611.55847398764	1481.75
2613.69717995017	1489.5
2615.8352823534	1489
2617.97278148034	1459.75
2620.10967761398	1479.25
2622.2459710372	1476.75
2624.38166203284	1481.25
2626.51675088365	1477.5
2628.65123787232	1480.5
2630.78512328145	1485
2632.9184073936	1480.25
2635.05109049124	1469.75
2637.18317285676	1481.25
2639.31465477249	1496.75
2641.44553652067	1475.75
2643.5758183835	1481.25
2645.70550064309	1487.25
2647.83458358144	1483.25
2649.96306748053	1491
2652.09095262224	1476.75
2654.21823928836	1480
2656.34492776063	1485.5
2658.47101832071	1495.25
2660.59651125015	1495.75
2662.72140683047	1474
2664.84570534309	1480.75
2666.96940706935	1485
2669.0925122905	1480.75
2671.21502128773	1496
2673.33693434216	1484.25
2675.45825173479	1475
2677.57897374658	1480.5
2679.6991006584	1497.5
2681.81863275101	1464.25
2683.93757030512	1481.5
2686.05591360133	1499
2688.17366292021	1490.75
2690.29081854218	1486
2692.40738074762	1484.5
2694.52334981681	1493.75
2696.63872602995	1476
2698.75350966714	1463.5
2700.86770100842	1479.75
2702.98130033372	1467.25
2705.09430792289	1493
2707.20672405572	1499.5
2709.31854901185	1503.5
2711.42978307091	1502.5
2713.54042651238	1487.75
2715.65047961567	1493
2717.7599426601	1491.5
2719.86881592492	1501.75
2721.97709968924	1513
2724.08479423213	1492.5
2726.19189983255	1507.75
2728.29841676935	1500.5
2730.40434532131	1502.25
2732.5096857671	1500
2734.61443838532	1485.75
2736.71860345444	1496.5
2738.82218125287	1488.5
2740.92517205889	1483
2743.02757615073	1482.5
2745.12939380646	1480.5
2747.23062530411	1481.5
2749.33127092159	1480.25
2751.4313309367	1487
2753.53080562717	1500.75
2755.62969527058	1478.25
2757.72800014448	1490.5
2759.82572052625	1486.75
2761.92285669323	1484
2764.0194089226	1473.25
2766.11537749147	1467.25
2768.21076267686	1480.75
2770.30556475566	1474
2772.39978400465	1503
2774.49342070054	1498.25
2776.58647511991	1500
2778.67894753923	1486.75
2780.77083823487	1504.5
2782.8621474831	1480.5
2784.95287556007	1484
2787.04302274184	1504.25
2789.13258930433	1509.75
2791.22157552338	1497.25
2793.30998167471	1504.5
2795.39780803392	1518.75
2797.48505487651	1515
2799.57172247786	1507.5
2801.65781111324	1500.5
2803.74332105781	1510.75
2805.82825258661	1522.75
2807.91260597457	1509
2809.9963814965	1522.25
2812.07957942711	1487.5
2814.16220004096	1491.75
2816.24424361252	1494.75
2818.32571041614	1512.75
2820.40660072604	1513
2822.48691481632	1533.75
2824.56665296098	1525.5
2826.64581543388	1511.5
2828.72440250876	1530.25
2830.80241445925	1552.5
2832.87985155885	1544
2834.95671408094	1575.5
2837.03300229875	1607.25
2839.10871648544	1679.5
2841.18385691399	1742.5
2843.25842385729	1828.5
2845.33241758808	1890.25
2847.40583837899	1949.75
2849.4786865025	1960
2851.550962231	1953
2853.6226658367	1924.5
2855.69379759174	1888.5
2857.76435776806	1860.5
2859.83434663753	1822.5
2861.90376447184	1805
2863.97261154259	1775.5
2866.04088812121	1784.75
2868.10859447901	1752.5
2870.17573088717	1801.75
2872.24229761673	1791.75
2874.30829493859	1822
2876.37372312353	1835.5
2878.43858244215	1905.25
2880.50287316496	1940.5
2882.56659556231	1942.75
2884.6297499044	1921.25
2886.69233646129	1887.25
2888.75435550293	1848.25
2890.81580729909	1859
2892.87669211941	1886
2894.9370102334	1841.5
2896.99676191039	1841
2899.05594741961	1844
2901.11456703011	1831.75
2903.1726210108	1786
2905.23010963045	1797.5
2907.28703315768	1765.5
2909.34339186096	1780
2911.39918600861	1796.75
2913.45441586879	1754.25
2915.50908170953	1767
2917.56318379867	1749
2919.61672240395	1760.75
2921.66969779291	1767.75
2923.72211023296	1768.75
2925.77395999134	1771
2927.82524733515	1763
2929.87597253133	1769.75
2931.92613584663	1752.75
2933.9757375477	1710.75
2936.02477790097	1694.5
2938.07325717276	1676
2940.1211756292	1659.75
2942.16853353626	1666.75
2944.21533115977	1638
2946.26156876536	1604.75
2948.30724661853	1609.25
2950.3523649846	1605.25
2952.39692412872	1569.5
2954.44092431587	1576
2956.4843658109	1570
2958.52724887843	1577.75
2960.56957378296	1558
2962.6113407888	1567.75
2964.65255016011	1568
2966.69320216083	1529.25
2968.73329705479	1565.75
2970.77283510559	1559
2972.81181657671	1557.75
2974.85024173141	1553.25
2976.88811083279	1547.25
2978.92542414379	1568.75
2980.96218192714	1568.5
2982.99838444541	1536.75
2985.034031961	1554.5
2987.06912473612	1568.5
2989.1036630328	1547.75
2991.13764711289	1548
2993.17107723804	1548.25
2995.20395366975	1554.5
2997.23627666931	1575.75
2999.26804649782	1561
3001.29926341624	1568.75
3003.32992768528	1556.75
3005.3600395655	1575.25
3007.38959931727	1566.75
3009.41860720076	1553
3011.44706347595	1553.25
3013.47496840263	1576.75
3015.50232224042	1587.25
3017.5291252487	1575
3019.5553776867	1561.25
3021.58107981344	1589.5
3023.60623188773	1588.5
3025.63083416822	1591.75
3027.65488691331	1592.5
3029.67839038125	1608.75
3031.70134483007	1574.75
3033.72375051759	1602.25
3035.74560770145	1593.75
3037.76691663907	1612
3039.78767758768	1609.25
3041.80789080431	1600.25
3043.82755654577	1612.75
3045.84667506867	1594.5
3047.8652466294	1596.25
3049.88327148418	1605.25
3051.90074988899	1583
3053.91768209961	1598.25
3055.93406837161	1583.5
3057.94990896033	1600.25
3059.96520412095	1603.25
3061.97995410838	1587.25
3063.99415917734	1601
3066.00781958234	1610.25
3068.02093557766	1598
3070.03350741738	1591.25
3072.04553535535	1580.75
3074.05701964521	1606.75
3076.06796054036	1596.25
3078.07835829401	1605.25
3080.08821315912	1593.25
3082.09752538846	1606.75
3084.10629523454	1601
3086.11452294967	1586.25
3088.12220878592	1599
3090.12935299515	1626
3092.13595582898	1619.75
3094.1420175388	1619
3096.1475383758	1609.5
3098.15251859088	1594.25
3100.15695843477	1610
3102.16085815793	1588.75
3104.16421801062	1595
3106.16703824282	1617.75
3108.16931910432	1620
3110.17106084464	1602.25
3112.17226371308	1612.5
3114.17292795872	1615
3116.17305383034	1616.5
3118.17264157657	1601.5
3120.17169144571	1603
3122.17020368587	1608.25
3124.16817854492	1605.5
3126.16561627044	1602
3128.16251710982	1624.75
3130.15888131017	1625.25
3132.15470911837	1639.5
3134.15000078104	1633
3136.14475654455	1631.25
3138.13897665502	1651.5
3140.13266135835	1654.25
3142.12581090015	1668
3144.11842552578	1633.5
3146.11050548036	1623.5
3148.10205100875	1646.5
3150.09306235557	1654
3152.08353976515	1621.5
3154.07348348158	1616.5
3156.06289374869	1671.5
3158.05177081006	1636.75
3160.04011490899	1647
3162.02792628852	1679.5
3164.01520519145	1652.75
3166.00195186029	1634.25
3167.98816653728	1639.25
3169.97384946442	1669.5
3171.95900088344	1655.25
3173.94362103577	1671.75
3175.9277101626	1663
3177.91126850484	1674
3179.89429630312	1644.25
3181.87679379782	1643.5
3183.85876122904	1669
3185.84019883657	1652.5
3187.82110685997	1672.75
3189.80148553851	1657.75
3191.78133511116	1662.5
3193.76065581664	1658.5
3195.73944789337	1662.25
3197.7177115795	1669.25
3199.6954471129	1675
3201.67265473114	1668
3203.64933467153	1657.25
3205.62548717107	1691
3207.60111246649	1671.75
3209.57621079422	1665
3211.55078239041	1683
3213.52482749093	1678.5
3215.49834633133	1672.5
3217.4713391469	1691.25
3219.44380617262	1686.75
3221.41574764318	1697
3223.38716379296	1674.25
3225.35805485607	1694.5
3227.32842106631	1683
3229.29826265718	1710.75
3231.26757986187	1732.25
3233.2363729133	1701.25
3235.20464204405	1712
3237.17238748644	1721.25
3239.13960947243	1715.25
3241.10630823374	1706.75
3243.07248400174	1717.5
3245.03813700748	1753.75
3247.00326748177	1713.5
3248.96787565503	1723.5
3250.93196175742	1726.75
3252.89552601877	1728.75
3254.8585686686	1723.5
3256.82108993612	1750.25
3258.78309005022	1751.75
3260.74456923948	1723.5
3262.70552773215	1721
3264.66596575617	1731.25
3266.62588353916	1724.75
3268.58528130843	1730
3270.54415929094	1732.25
3272.50251771336	1730
3274.46035680202	1744.25
3276.4176767829	1757.5
3278.37447788171	1744.75
3280.33076032379	1748
3282.28652433416	1731.5
3284.24177013751	1753.25
3286.1964979582	1728.5
3288.15070802027	1764.25
3290.10440054741	1720
3292.05757576298	1739
3294.01023389001	1751.75
3295.96237515119	1763.75
3297.91399976887	1758
3299.86510796506	1762
3301.81569996143	1758
3303.76577597932	1758.75
3305.71533623971	1762.25
3307.66438096325	1772
3309.61291037024	1777.75
3311.56092468063	1765.75
3313.50842411404	1741.75
3315.45540888971	1763.5
3317.40187922656	1769.5
3319.34783534315	1773
3321.29327745768	1759.75
3323.23820578801	1760.25
3325.18262055164	1773.75
3327.1265219657	1768
3329.06991024699	1778.75
3331.01278561194	1775.25
3332.95514827663	1761.25
3334.89699845675	1760
3336.83833636766	1758
3338.77916222434	1772.75
3340.71947624143	1763.25
3342.65927863317	1774.75
3344.59856961347	1774.5
3346.53734939584	1792.75
3348.47561819344	1786.5
3350.41337621907	1786.25
3352.35062368513	1784.25
3354.28736080368	1796.25
3356.22358778637	1780.25
3358.15930484452	1773
3360.09451218904	1785
3362.02921003047	1807.25
3363.96339857899	1789.25
3365.89707804437	1791.25
3367.83024863603	1771.25
3369.76291056299	1801.5
3371.69506403389	1799
3373.62670925699	1807.5
3375.55784644016	1792
3377.4884757909	1775.25
3379.41859751629	1803.75
3381.34821182305	1790.5
3383.27731891749	1791.75
3385.20591900555	1796.5
3387.13401229276	1806.75
3389.06159898426	1803.25
3390.9886792848	1826.5
3392.91525339872	1824
3394.84132152998	1805
3396.76688388213	1809.25
3398.69194065834	1817.25
3400.61649206133	1822.5
3402.54053829348	1823.75
3404.46407955672	1826.5
3406.3871160526	1802.5
3408.30964798225	1840.5
3410.23167554639	1840
3412.15319894535	1841
3414.07421837904	1849.5
3415.99473404695	1833
3417.91474614817	1851.25
3419.83425488136	1854.5
3421.7532604448	1828
3423.67176303631	1855.25
3425.58976285332	1855.25
3427.50726009283	1834.5
3429.42425495143	1827.75
3431.34074762528	1841.75
3433.25673831012	1848
3435.17222720127	1844.25
3437.08721449362	1834
3439.00170038164	1830.25
3440.91568505936	1846.75
3442.8291687204	1835.75
3444.74215155792	1881.5
3446.65463376469	1852.25
3448.566615533	1866.5
3450.47809705476	1862.25
3452.3890785214	1846.25
3454.29956012393	1851.5
3456.20954205293	1857.75
3458.11902449853	1841
3460.02800765042	1835
3461.93649169784	1863
3463.84447682962	1833.75
3465.75196323412	1861.25
3467.65895109925	1852.5
3469.56544061249	1862.75
3471.47143196086	1842.5
3473.37692533094	1851.5
3475.28192090884	1850.25
3477.18641888026	1848
3479.09041943039	1871.25
3480.99392274402	1847
3482.89692900545	1872.75
3484.79943839853	1869.5
3486.70145110666	1867.25
3488.60296731277	1867
3490.50398719933	1838.75
3492.40451094836	1854.25
3494.30453874141	1842.5
3496.20407075956	1852.75
3498.10310718342	1869
3500.00164819315	1864.25