201.866871357051	781.25
204.754250281454	790
207.640596790938	784.25
210.525911876299	783.5
213.410196525689	770.25
216.293451724508	781.5
219.175678455485	779.75
222.056877698662	788.5
224.937050431388	775.5
227.816197628363	785
230.694320261602	790.75
233.571419300504	779.5
236.447495711764	779.25
239.322550459507	787.75
242.196584505182	786
245.069598807626	789.25
247.941594323078	796.25
250.812572005154	781.75
253.682532804884	780.5
256.551477670699	780.25
259.419407548456	787.5
262.286323381439	792.75
265.152226110364	783.75
268.017116673389	793.75
270.880996006115	789.75
273.743865041622	784.5
276.605724710436	785.5
279.466575940562	793.25
282.326419657496	786
285.1852567842	789.75
288.043088241157	780.25
290.899914946349	780.75
293.75573781526	791.75
296.610557760898	800.75
299.464375693817	794.75
302.317192522078	798.75
305.169009151297	797.25
308.019826484655	784.25
310.86964542287	793.75
313.718466864233	792
316.566291704614	792.5
319.413120837457	795.75
322.258955153804	790.75
325.103795542291	789.25
327.947642889128	798.75
330.79049807819	800
333.632361990927	798.25
336.473235506444	806
339.31311950145	793
342.152014850322	798.5
344.989922425062	805.75
347.826843095354	815.5
350.662777728528	801.25
353.497727189577	811.75
356.331692341195	803
359.164674043732	801.5
361.996673155267	809.75
364.827690531536	813
367.65772702602	822.75
370.486783489887	820.75
373.314860772047	823.5
376.14195971912	822.75
378.968081175466	832
381.793225983212	839.5
384.617394982201	853
387.44058901005	865.25
390.262808902131	875
393.08405549161	889.5
395.904329609395	885.25
398.723632084213	879
401.541963742569	866.75
404.359325408779	853
407.175717904938	837.5
409.991142050982	836.25
412.805598664665	837.25
415.619088561551	828.75
418.43161255505	821.75
421.243171456415	812.75
424.053766074758	816.25
426.863397217017	819
429.672065688024	817.75
432.479772290455	817
435.286517824879	824.75
438.092303089736	823
440.897128881359	825.5
443.70099599399	812.75
446.503905219761	815.5
449.305857348711	819.25
452.106853168796	832.75
454.906893465919	821.25
457.705979023885	821.75
460.504110624439	813.75
463.3012890473	811.75
466.097515070087	805.25
468.892789468424	817
471.687113015869	826
474.48048648395	815.75
477.272910642198	821.25
480.064386258109	813.75
482.854914097159	812.5
485.644494922839	827.25
488.433129496636	824.75
491.220818578047	820
494.007562924584	834.5
496.793363291785	838.75
499.578220433217	837
502.362135100473	852.75
505.145108043209	856
507.927140009098	870.75
510.708231743909	886
513.488383991433	898
516.267597493556	895
519.04587299022	894.5
521.82321121946	873.75
524.599612917398	875.75
527.375078818233	870.75
530.149609654287	854.5
532.923206155967	850
535.695869051804	842.25
538.467599068448	859.25
541.238396930665	839
544.008263361364	834
546.777199081578	825.5
549.545204810493	827.75
552.312281265436	829.5
555.078429161898	840.25
557.843649213533	832.5
560.607942132156	838.25
563.371308627753	840.25
566.133749408495	839.75
568.895265180756	834
571.655856649064	838.75
574.415524516189	840.75
577.174269483075	835
579.932092248884	831
582.688993510994	830
585.444973965023	835.5
588.200034304795	836.75
590.95417522237	844
593.70739740807	839.5
596.459701550433	838.75
599.21108833628	854.25
601.961558450668	839.5
604.711112576933	844.75
607.459751396673	848
610.207475589748	850.75
612.954285834338	848.25
615.700182806879	865
618.445167182101	868.75
621.189239633055	855
623.932400831087	883.75
626.674651445839	906.75
629.415992145303	925
632.156423595745	934.25
634.895946461813	952.75
637.634561406449	972
640.37226909096	962.5
643.109070174978	956.25
645.844965316508	924.25
648.579955171888	910.5
651.314040395846	892.25
654.047221641456	877.25
656.779499560176	869.25
659.510874801828	870.75
662.241348014642	857.5
664.97091984524	870.25
667.699590938606	861.5
670.427361938164	856.25
673.15423348573	849.5
675.880206221526	849.25
678.605280784206	843.75
681.329457810829	839.75
684.05273793692	841
686.775121796389	842.75
689.49661002163	829.5
692.217203243454	838
694.936902091144	833.5
697.655707192425	833.5
700.373619173493	835.75
703.09063865901	831.5
705.806766272093	833.25
708.522002634378	838.25
711.236348365946	844.75
713.94980408538	836.75
716.662370409762	843.25
719.374047954676	844
722.08483733419	843.5
724.794739160909	837.75
727.503754045949	843.5
730.21188259892	838.25
732.919125427998	829
735.625483139855	835.5
738.330956339723	839.5
741.035545631374	841.25
743.739251617106	842
746.44207489779	841.25
749.144016072852	844.5
751.845075740272	851
754.545254496603	843.5
757.244552936976	836.5
759.94297165508	843.5
762.640511243222	842.5
765.337172292249	845.25
768.032955391649	844.75
770.727861129482	840.5
773.421890092413	841.5
776.11504286572	855.25
778.807320033298	844.75
781.49872217765	839
784.18924987991	837.5
786.87890371984	842.75
789.567684275826	843
792.255592124908	847.25
794.94262784276	848.5
797.628792003703	850.5
800.314085180715	843.5
802.998507945427	858.25
805.682060868145	850.5
808.364744517821	829
811.046559462105	847.75
813.727506267311	850.75
816.407585498422	843
819.08679771913	847
821.765143491822	854.25
824.442623377563	840.5
827.119237936127	853
829.794987726003	857.25
832.469873304377	852.5
835.143895227167	841
837.817054048985	862.25
840.489350323205	851.5
843.160784601892	854
845.831357435894	865.25
848.501069374739	861
851.169920966753	863.25
853.837912758987	867.25
856.505045297232	854.25
859.171319126071	863.25
861.836734788823	865.25
864.501292827579	865
867.164993783208	860.25
869.827838195361	861.5
872.489826602454	863
875.150959541701	859.25
877.811237549104	853.75
880.470661159456	856.25
883.129230906357	870
885.786947322205	857.25
888.443810938206	865.75
891.099822284385	861
893.754981889586	869.75
896.409290281452	866.25
899.062747986485	864.25
901.715355529999	863.75
904.367113436154	868
907.01802222793	871.25
909.668082427172	863.5
912.317294554574	859.25
914.965659129659	870.25
917.613176670835	865.75
920.259847695364	863.5
922.90567271936	864
925.550652257825	875
928.194786824621	865.5
930.838076932512	859.75
933.480523093109	870.25
936.122125816953	870.5
938.762885613447	870.75
941.402802990899	870
944.041878456523	882.5
946.680112516428	869.75
949.31750567563	871
951.954058438081	863.75
954.589771306633	868.5
957.224644783048	861
959.858679368044	881
962.491875561238	872.5
965.12423386121	870.75
967.75575476545	867.5
970.386438770423	870
973.016286371501	870.75
975.645298063046	874.75
978.273474338355	874.5
980.900815689674	871.5
983.527322608243	874.5
986.152995584245	884.5
988.777835106834	880.25
991.401841664148	880.5
994.025015743307	868.5
996.647357830407	870.25
999.268868410534	885.25
1001.88954796777	881.5
1004.50939698518	895.5
1007.12841594484	884.75
1009.74660532783	886.75
1012.36396561423	895.25
1014.98049728314	893.75
1017.59620081267	892.25
1020.21107667995	894.5
1022.82512536112	885.75
1025.43834733138	895
1028.05074306493	901.5
1030.66231303501	899.25
1033.27305771392	890.5
1035.88297757299	895.5
1038.49207308257	903.5
1041.10034471211	913
1043.70779293008	901
1046.31441820402	898
1048.92022100052	908
1051.52520178525	923
1054.12936102295	931
1056.73269917742	940.5
1059.33521671154	964.5
1061.93691408729	992.75
1064.53779176571	982.5
1067.13785020694	952
1069.73708987022	936.5
1072.33551121386	928.75
1074.93311469528	918.5
1077.52990077103	930.75
1080.12586989674	925.5
1082.72102252714	935.25
1085.31535911611	927.5
1087.90888011663	934.5
1090.50158598078	919.5
1093.09347715979	911.75
1095.68455410403	920.25
1098.27481726296	919.75
1100.86426708523	935.25
1103.45290401857	916.5
1106.04072850991	917.5
1108.6277410053	921.5
1111.21394194993	925.25
1113.79933178816	933
1116.3839109635	921
1118.96767991862	941
1121.55063909539	953.5
1124.13278893477	982.5
1126.71412987696	992.25
1129.29466236132	1009.5
1131.87438682637	989.25
1134.45330370982	958.75
1137.03141344858	947.75
1139.60871647872	937.5
1142.18521323554	939
1144.7609041535	928.75
1147.33578966629	933.25
1149.90987020676	937.5
1152.48314620702	930
1155.05561809835	935
1157.62728631125	935.5
1160.19815127545	932.25
1162.76821341988	931.25
1165.33747317271	946
1167.90593096133	952
1170.47358721235	964.25
1173.04044235163	958
1175.60649680425	942.25
1178.17175099454	932.5
1180.73620534607	948
1183.29986028165	940
1185.86271622336	937.25
1188.42477359249	933.5
1190.98603280964	933.75
1193.54649429462	932
1196.10615846653	942.25
1198.66502574372	933.75
1201.22309654385	940.75
1203.78037128378	941.25
1206.33685037971	933.75
1208.89253424709	938
1211.44742330063	940.75
1214.00151795438	948.75
1216.55481862163	947.75
1219.10732571497	941.75
1221.65903964631	948.5
1224.20996082683	944.75
1226.760089667	940.25
1229.30942657664	952.25
1231.85797196483	950.5
1234.40572623998	948.25
1236.95268980981	961
1239.49886308136	967.75
1242.04424646098	947.25
1244.58884035435	955.75
1247.13264516647	972.75
1249.67566130166	969
1252.21788916358	960.75
1254.75932915524	967.5
1257.29998167896	970.25
1259.83984713639	970.5
1262.37892592857	978
1264.91721845586	979.5
1267.45472511795	997.25
1269.9914463139	987.75
1272.52738244213	989
1275.0625339004	987.75
1277.59690108587	1003.25
1280.130484395	1001.75
1282.66328422367	1005.75
1285.19530096712	1007.25
1287.72653501993	1034.5
1290.25698677608	1098.75
1292.78665662894	1146.5
1295.31554497125	1152.5
1297.8436521951	1098.75
1300.37097869203	1063.25
1302.89752485292	1046
1305.42329106805	1025.25
1307.94827772713	1049.75
1310.47248521921	1037.5
1312.99591393279	1034.5
1315.51856425575	1047.75
1318.04043657536	1028
1320.56153127836	1035.5
1323.08184875083	1039
1325.6013893783	1042.5
1328.12015354572	1032.5
1330.63814163744	1043.25
1333.15535403727	1037.75
1335.67179112839	1053.25
1338.18745329347	1051
1340.70234091454	1047.5
1343.21645437314	1081.25
1345.72979405019	1058.5
1348.24236032607	1061.75
1350.75415358059	1060.5
1353.26517419303	1068.25
1355.7754225421	1065.5
1358.28489900594	1070
1360.79360396218	1088.75
1363.30153778787	1100
1365.80870085955	1093.5
1368.31509355319	1117
1370.82071624424	1103
1373.32556930762	1106
1375.8296531177	1110.75
1378.33296804832	1102.25
1380.83551447282	1097.25
1383.33729276399	1097.5
1385.83830329408	1110.75
1388.33854643489	1102.75
1390.83802255762	1109
1393.33673203301	1119.25
1395.83467523128	1126.5
1398.33185252211	1099.25
1400.82826427471	1124.25
1403.32391085777	1122.75
1405.81879263947	1133
1408.31290998752	1145.75
1410.80626326908	1144
1413.29885285087	1153.5
1415.79067909909	1203.75
1418.28174237944	1200.75
1420.77204305717	1197.75
1423.26158149702	1194
1425.75035806323	1199
1428.2383731196	1217.25
1430.72562702942	1242.5
1433.21212015554	1278.75
1435.69785286028	1309
1438.18282550555	1322
1440.66703845275	1330.25
1443.15049206284	1340.25
1445.6331866963	1314.75
1448.11512271316	1323
1450.59630047298	1312
1453.07672033486	1325
1455.55638265748	1331.75
1458.03528779902	1337.75
1460.51343611725	1337.25
1462.99082796946	1348.75
1465.46746371252	1356
1467.94334370285	1350
1470.41846829642	1334.25
1472.89283784878	1330.25
1475.36645271503	1350
1477.83931324983	1322.5
1480.31141980743	1349.25
1482.78277274164	1366
1485.25337240583	1346.5
1487.72321915297	1369.25
1490.19231333557	1345.5
1492.66065530578	1364.5
1495.12824541525	1385.5
1497.5950840153	1374.5
1500.06117145678	1376
1502.52650809014	1389.75
1504.99109426543	1408.75
1507.45493033227	1425
1509.91801663992	1419.25
1512.38035353717	1424.75
1514.84194137248	1437.75
1517.30278049386	1447.75
1519.76287124894	1455.75
1522.22221398497	1454.5
1524.68080904876	1476.25
1527.13865678681	1477
1529.59575754514	1490.25
1532.05211166945	1511.5
1534.50771950503	1525.75
1536.96258139678	1533.75
1539.41669768924	1537.5
1541.87006872656	1542
1544.32269485252	1574.25
1546.77457641051	1593.5
1549.22571374357	1592.5
1551.67610719434	1609.5
1554.12575710513	1626.25
1556.57466381785	1630.5
1559.02282767408	1652.5
1561.47024901499	1639
1563.91692818144	1667
1566.3628655139	1675
1568.80806135249	1683.25
1571.252516037	1690.5
1573.6962299068	1722
1576.13920330099	1722.75
1578.58143655828	1731.75
1581.02293001704	1743.5
1583.46368401528	1749.25
1585.90369889071	1766.75
1588.34297498065	1778.75
1590.7815126221	1815.25
1593.21931215173	1798.75
1595.65637390588	1798.75
1598.09269822053	1805.75
1600.52828543135	1835.5
1602.96313587367	1851
1605.3972498825	1849.5
1607.83062779252	1855.25
1610.26326993808	1872.5
1612.69517665322	1874.5
1615.12634827165	1875.5
1617.55678512676	1886.5
1619.98648755163	1889.5
1622.41545587902	1879.75
1624.84369044138	1865.25
1627.27119157085	1932.5
1629.69795959924	1916
1632.12399485808	1934.25
1634.54929767859	1942.25
1636.97386839165	1944
1639.39770732789	1957.25
1641.8208148176	1965.5
1644.24319119078	1974.5
1646.66483677715	1976
1649.0857519061	1985.75
1651.50593690677	2016.5
1653.92539210795	2040.25
1656.3441178382	2023.25
1658.76211442575	2037.25
1661.17938219855	2050.75
1663.59592148428	2046.75
1666.01173261032	2067.25
1668.42681590377	2097
1670.84117169145	2072
1673.25480029991	2079.75
1675.66770205541	2099.5
1678.07987728393	2119.5
1680.49132631119	2128.5
1682.90204946263	2138
1685.31204706342	2149.75
1687.72131943846	2181.5
1690.1298669124	2180.75
1692.53768980957	2218.25
1694.94478845411	2178.25
1697.35116316982	2208.5
1699.75681428031	2208.75
1702.16174210887	2214.75
1704.56594697858	2250
1706.96942921222	2246.75
1709.37218913235	2243
1711.77422706125	2231.75
1714.17554332098	2249.5
1716.5761382333	2287.5
1718.97601211977	2286.25
1721.37516530169	2281.75
1723.77359810006	2297.25
1726.17131083572	2320.75
1728.56830382922	2318.5
1730.96457740087	2340.25
1733.36013187075	2302
1735.75496755868	2309.75
1738.14908478428	2363.5
1740.54248386689	2369.25
1742.93516512565	2365
1745.32712887946	2379
1747.71837544697	2407
1750.10890514662	2382.25
1752.49871829661	2377.5
1754.88781521492	2412.5
1757.27619621929	2415.5
1759.66386162726	2430.5
1762.05081175612	2458.75
1764.43704692297	2454.25
1766.82256744465	2445.5
1769.20737363782	2488
1771.59146581887	2471
1773.97484430405	2526
1776.35750940932	2512
1778.73946145048	2546.75
1781.12070074309	2559.5
1783.50122760249	2565
1785.88104234385	2582.75
1788.26014528209	2586.75
1790.63853673196	2619
1793.01621700796	2648.75
1795.39318642443	2648.25
1797.76944529549	2673.75
1800.14499393503	2671.5
1802.51983265681	2668
1804.8939617743	2715.25
1807.26738160085	2716.25
1809.64009244957	2733
1812.01209463339	2720.75
1814.38338846504	2777.5
1816.75397425706	2755
1819.12385232181	2778.5
1821.49302297142	2807
1823.86148651789	2814.75
1826.22924327299	2811
1828.59629354831	2855
1830.96263765526	2849
1833.32827590507	2849.25
1835.69320860877	2861.75
1838.05743607724	2873.5
1840.42095862113	2878
1842.78377655097	2848.25
1845.14589017707	2901.75
1847.50729980956	2867.25
1849.86800575843	2901.75
1852.22800833346	2921
1854.58730784427	2935.75
1856.94590460032	2957.5
1859.30379891087	3011.25
1861.66099108503	3008.5
1864.01748143175	3004
1866.37327025978	3014
1868.72835787773	3041
1871.08274459403	3076
1873.43643071697	3061.5
1875.78941655464	3092.25
1878.14170241498	3056.75
1880.4932886058	3102.75
1882.84417543469	3138.5
1885.19436320915	3130
1887.54385223646	3138.5
1889.89264282378	3156.25
1892.24073527809	3183.5
1894.58812990625	3207.75
1896.93482701493	3239.5
1899.28082691067	3226.5
1901.62612989984	3239.75
1903.97073628868	3256.5
1906.31464638326	3312.5
1908.6578604895	3284.25
1911.00037891321	3321.5
1913.34220196	3294
1915.68332993537	3322.75
1918.02376314468	3343.75
1920.36350189311	3364
1922.70254648573	3372.75
1925.04089722744	3339
1927.37855442303	3361.25
1929.71551837715	3343
1932.05178939426	3358.5
1934.38736777876	3382.75
1936.72225383484	3386.25
1939.0564478666	3430.25
1941.38995017799	3395.75
1943.72276107283	3396.25
1946.05488085479	3394.25
1948.38630982744	3402.25
1950.71704829419	3425
1953.04709655832	3406.25
1955.376454923	3433.75
1957.70512369126	3438.75
1960.03310316599	3422.75
1962.36039364999	3445
1964.68699544589	3465.75
1967.01290885622	3447.75
1969.33813418338	3451
1971.66267172965	3424
1973.98652179718	3477
1976.309684688	3495.25
1978.63216070402	3500
1980.95395014705	3536.75
1983.27505331873	3505.75
1985.59547052063	3529.25
1987.9152020542	3555.5
1990.23424822074	3538
1992.55260932146	3571
1994.87028565746	3536.5
1997.18727752968	3603
1999.503585239	3597.5
2001.81920908618	3619.25
2004.13414937184	3645.25
2006.44840639651	3679.75
2008.7619804606	3698.25
2011.07487186442	3701.75
2013.38708090815	3773.75
2015.6986078919	3759
2018.00945311564	3786.5
2020.31961687923	3753
2022.62909948246	3777
2024.93790122498	3827.25
2027.24602240636	3822.75
2029.55346332604	3826.5
2031.86022428337	3832.5
2034.16630557761	3898.5
2036.47170750791	3888
2038.77643037331	3942.5
2041.08047447275	3962.25
2043.38384010509	3909.5
2045.68652756907	3947.5
2047.98853716335	3925.75
2050.28986918648	3982.75
2052.59052393692	4020.75
2054.89050171302	4019
2057.18980281306	4035.5
2059.4884275352	4061
2061.78637617753	4045.25
2064.08364903802	4071
2066.38024641457	4014
2068.67616860497	4085.75
2070.97141590694	4068
2073.26598861809	4143.25
2075.55988703595	4103.25
2077.85311145796	4139.75
2080.14566218145	4173.5
2082.43753950371	4174.5
2084.72874372188	4197
2087.01927513307	4159
2089.30913403428	4192.75
2091.59832072241	4237.25
2093.88683549429	4234.25
2096.17467864666	4255.25
2098.46185047619	4267.25
2100.74835127944	4295.5
2103.03418135292	4303.5
2105.31934099303	4275.75
2107.6038304961	4340.75
2109.88765015838	4315.75
2112.17080027602	4322.75
2114.45328114513	4342.5
2116.7350930617	4341.25
2119.01623632165	4360.75
2121.29671122085	4367.75
2123.57651805505	4399.25
2125.85565711996	4423.75
2128.13412871117	4435
2130.41193312424	4419.5
2132.68907065462	4470
2134.96554159771	4455
2137.24134624881	4509
2139.51648490317	4532.25
2141.79095785593	4535.75
2144.0647654022	4518.25
2146.33790783698	4523.5
2148.61038545524	4520
2150.88219855182	4609
2153.15334742154	4547.25
2155.42383235911	4585.5
2157.6936536592	4626.25
2159.9628116164	4583.25
2162.23130652522	4569.25
2164.49913868011	4600.75
2166.76630837544	4573
2169.03281590552	4611.5
2171.2986615646	4614.75
2173.56384564685	4626
2175.82836844637	4593.5
2178.0922302572	4652.75
2180.35543137332	4603.25
2182.61797208862	4624
2184.87985269695	4573
2187.14107349208	4634.75
2189.40163476773	4636.5
2191.66153681753	4578
2193.92077993507	4553.25
2196.17936441386	4566
2198.43729054735	4619.5
2200.69455862894	4592.25
2202.95116895194	4609.5
2205.20712180962	4552
2207.46241749519	4558.5
2209.71705630179	4531.75
2211.97103852248	4585.25
2214.2243644503	4560.5
2216.47703437819	4524
2218.72904859905	4526
2220.98040740571	4520.25
2223.23111109095	4474.5
2225.4811599475	4469.5
2227.73055426799	4450
2229.97929434504	4456
2232.22738047118	4436.5
2234.47481293889	4424.75
2236.72159204058	4492.75
2238.96771806864	4482.75
2241.21319131536	4451
2243.458012073	4441.75
2245.70218063374	4340
2247.94569728973	4434
2250.18856233304	4353.75
2252.4307760557	4363.5
2254.67233874967	4338.5
2256.91325070687	4349.25
2259.15351221915	4379.5
2261.39312357831	4344.25
2263.63208507611	4276.75
2265.87039700422	4304
2268.1080596543	4322.5
2270.34507331792	4291.25
2272.5814382866	4274.5
2274.81715485183	4280
2277.05222330502	4257
2279.28664393755	4277.5
2281.52041704072	4250.25
2283.75354290581	4234.75
2285.98602182401	4191
2288.21785408648	4178.25
2290.44903998434	4177
2292.67957980862	4188.25
2294.90947385033	4114
2297.1387224004	4152.75
2299.36732574975	4137.25
2301.59528418921	4154
2303.82259800958	4112
2306.04926750158	4069
2308.27529295593	4057.5
2310.50067466325	4088.5
2312.72541291412	4094
2314.9495079991	4048.25
2317.17296020866	4023
2319.39576983323	4030.5
2321.61793716322	4009
2323.83946248894	4003.75
2326.06034610069	4008.25
2328.28058828871	3949.5
2330.50018934317	3973.25
2332.7191495542	3932.25
2334.93746921192	3920
2337.15514860633	3903
2339.37218802743	3903
2341.58858776516	3894.25
2343.80434810941	3885.75
2346.01946935001	3875.5
2348.23395177675	3864.75
2350.44779567939	3866
2352.66100134759	3817.75
2354.87356907101	3839.25
2357.08549913925	3759.25
2359.29679184185	3776.5
2361.50744746829	3804.75
2363.71746630804	3787.75
2365.92684865048	3754.25
2368.13559478499	3723
2370.34370500083	3732.25
2372.55117958727	3707
2374.75801883352	3664.5
2376.96422302874	3664
2379.16979246202	3653
2381.37472742243	3667
2383.57902819898	3650.25
2385.78269508063	3621.5
2387.98572835629	3605.5
2390.18812831482	3624.75
2392.38989524505	3597
2394.59102943573	3575
2396.79153117559	3608.75
2398.9914007533	3573.25
2401.19063845748	3578
2403.38924457672	3522.25
2405.58721939951	3563.5
2407.78456321435	3526
2409.98127630966	3531.5
2412.17735897382	3566.75
2414.37281149517	3522
2416.56763416198	3518.75
2418.76182726249	3497.75
2420.95539108487	3467
2423.14832591726	3473.75
2425.34063204776	3465
2427.53230976439	3478.5
2429.72335935513	3443.25
2431.91378110795	3432.25
2434.10357531071	3430.5
2436.29274225125	3423.75
2438.48128221739	3403
2440.66919549683	3382.5
2442.8564823773	3380
2445.04314314641	3342
2447.22917809176	3334
2449.4145875009	3402.5
2451.59937166131	3384.5
2453.78353086044	3334.75
2455.96706538568	3339
2458.14997552436	3337.25
2460.33226156379	3316.5
2462.51392379119	3307.25
2464.69496249376	3264.75
2466.87537795862	3280
2469.05517047288	3291
2471.23434032357	3246.75
2473.41288779767	3236.75
2475.59081318211	3283.75
2477.76811676378	3223.75
2479.9447988295	3264.25
2482.12085966605	3215.75
2484.29629956016	3159.5
2486.4711187985	3204
2488.64531766769	3221
2490.8188964543	3150.75
2492.99185544484	3177.75
2495.16419492579	3159.25
2497.33591518353	3163
2499.50701650444	3165.5
2501.67749917482	3137
2503.84736348091	3135.5
2506.01660970891	3149
2508.18523814496	3149.5
2510.35324907514	3127.5
2512.52064278551	3105
2514.68741956201	3108.25
2516.85357969058	3134.25
2519.01912345709	3125.75
2521.18405114735	3117.75
2523.34836304711	3067.25
2525.51205944208	3108.75
2527.6751406179	3068
2529.83760686016	3080.5
2531.99945845439	3039
2534.16069568606	3062.75
2536.3213188406	3084.5
2538.48132820336	3039.5
2540.64072405965	3047.75
2542.79950669471	3046.25
2544.95767639373	3034.5
2547.11523344184	3020.5
2549.27217812411	3018.5
2551.42851072555	2983.25
2553.58423153111	3010.5
2555.73934082569	2964.25
2557.89383889412	2989.5
2560.04772602118	2992.75
2562.20100249158	2982.25
2564.35366858996	2949
2566.50572460093	2948.75
2568.65717080901	2928.5
2570.80800749867	2923.25
2572.95823495433	2919
2575.10785346031	2886.25
2577.25686330093	2901.5
2579.40526476038	2845.75
2581.55305812282	2892
2583.70024367237	2883.75
2585.84682169303	2865.75
2587.99279246879	2886.25
2590.13815628354	2834.25
2592.28291342112	2830.5
2594.42706416531	2826.75
2596.5706087998	2817
2598.71354760826	2836.75
2600.85588087425	2781.25
2602.99760888127	2802
2605.13873191278	2791.5
2607.27925025214	2798.75
2609.41916418269	2770.5
2611.55847398764	2764.75
2613.69717995017	2736.5
2615.83528235339	2770.5
2617.97278148034	2753.25
2620.10967761398	2753.75
2622.2459710372	2783
2624.38166203284	2737.75
2626.51675088365	2733
2628.65123787231	2727.25
2630.78512328145	2739.75
2632.9184073936	2708.5
2635.05109049124	2732.75
2637.18317285676	2702.5
2639.31465477248	2733.75
2641.44553652067	2695.25
2643.5758183835	2675
2645.70550064309	2726
2647.83458358144	2689
2649.96306748053	2732.25
2652.09095262223	2718.25
2654.21823928836	2713.75
2656.34492776063	2694.25
2658.47101832071	2711.25
2660.59651125015	2687.25
2662.72140683047	2668.75
2664.84570534309	2680.75
2666.96940706934	2640.75
2669.0925122905	2646.25
2671.21502128773	2692.5
2673.33693434215	2655
2675.45825173479	2658
2677.57897374658	2638.75
2679.69910065839	2664.25
2681.818632751	2623.75
2683.93757030511	2665.5
2686.05591360133	2638
2688.17366292021	2649.75
2690.29081854218	2613.25
2692.40738074762	2610.5
2694.52334981681	2610
2696.63872602995	2622
2698.75350966713	2600.5
2700.86770100841	2638.75
2702.98130033371	2623.5
2705.09430792289	2626.75
2707.20672405571	2629.75
2709.31854901185	2639
2711.42978307091	2630.25
2713.54042651238	2639.75
2715.65047961567	2643.75
2717.7599426601	2647.25
2719.86881592491	2602.5
2721.97709968924	2611.5
2724.08479423213	2606.75
2726.19189983255	2608.5
2728.29841676934	2611
2730.4043453213	2609.5
2732.5096857671	2608.5
2734.61443838532	2586
2736.71860345444	2565.5
2738.82218125286	2559.5
2740.92517205889	2580
2743.02757615072	2573.75
2745.12939380646	2536
2747.23062530411	2561
2749.33127092159	2570.5
2751.4313309367	2546.75
2753.53080562716	2552
2755.62969527058	2540.5
2757.72800014448	2524.75
2759.82572052625	2550.75
2761.92285669323	2534
2764.0194089226	2541
2766.11537749147	2524.75
2768.21076267686	2531.25
2770.30556475566	2531.25
2772.39978400465	2527
2774.49342070054	2509.25
2776.58647511991	2519
2778.67894753923	2521.75
2780.77083823487	2549.25
2782.8621474831	2494
2784.95287556007	2522.25
2787.04302274184	2489
2789.13258930433	2522.75
2791.22157552338	2470.5
2793.30998167471	2499
2795.39780803392	2514.5
2797.4850548765	2511.5
2799.57172247786	2486.25
2801.65781111324	2466
2803.74332105781	2521.75
2805.82825258661	2483.75
2807.91260597457	2508.5
2809.9963814965	2522.5
2812.07957942711	2497
2814.16220004096	2493.5
2816.24424361252	2496.75
2818.32571041614	2513.5
2820.40660072604	2485.5
2822.48691481631	2533.5
2824.56665296098	2510.75
2826.64581543388	2553.75
2828.72440250876	2608
2830.80241445925	2635.75
2832.87985155885	2680.5
2834.95671408093	2787.75
2837.03300229875	2876.5
2839.10871648544	3013.75
2841.18385691399	3217.75
2843.25842385729	3432.25
2845.33241758808	3497.25
2847.40583837898	3616.5
2849.4786865025	3539.75
2851.550962231	3468.75
2853.6226658367	3397.5
2855.69379759173	3320.75
2857.76435776806	3254
2859.83434663753	3184.25
2861.90376447184	3154.5
2863.97261154259	3088.5
2866.0408881212	3131.25
2868.10859447901	3100.25
2870.17573088717	3120
2872.24229761673	3176.75
2874.30829493859	3239.5
2876.37372312352	3396
2878.43858244215	3747.25
2880.50287316496	4004.25
2882.56659556231	3997.5
2884.62974990439	3769.75
2886.69233646129	3557.75
2888.75435550293	3386.75
2890.81580729909	3351
2892.87669211941	3310.5
2894.93701023339	3298.75
2896.99676191039	3260
2899.05594741961	3276.25
2901.1145670301	3240.75
2903.1726210108	3193
2905.23010963045	3159.75
2907.28703315768	3121.5
2909.34339186096	3075.25
2911.39918600861	3026.5
2913.45441586879	2997.75
2915.50908170952	2974.75
2917.56318379867	3014.5
2919.61672240395	2984.75
2921.66969779291	2988.75
2923.72211023295	2970.25
2925.77395999134	2986.5
2927.82524733515	3009
2929.87597253132	2992.75
2931.92613584663	2977.75
2933.97573754769	2927.75
2936.02477790097	2861.25
2938.07325717276	2854.5
2940.1211756292	2821.75
2942.16853353626	2765.5
2944.21533115976	2775.25
2946.26156876536	2701.25
2948.30724661853	2667.5
2950.3523649846	2667.5
2952.39692412872	2642.25
2954.44092431587	2629
2956.48436581089	2644
2958.52724887843	2629.25
2960.56957378296	2611
2962.6113407888	2638.25
2964.65255016011	2660.25
2966.69320216083	2644.5
2968.73329705479	2589
2970.77283510559	2612.25
2972.81181657671	2618.25
2974.8502417314	2585
2976.88811083279	2601
2978.92542414378	2622.75
2980.96218192713	2594.25
2982.99838444541	2619
2985.034031961	2649
2987.06912473612	2636.75
2989.1036630328	2639.75
2991.13764711288	2595
2993.17107723804	2610.5
2995.20395366974	2663.75
2997.23627666931	2629.25
2999.26804649782	2620
3001.29926341624	2674
3003.32992768528	2685
3005.3600395655	2653.75
3007.38959931726	2696.25
3009.41860720076	2678
3011.44706347595	2706.25
3013.47496840263	2690.25
3015.50232224041	2701.75
3017.5291252487	2715.25
3019.5553776867	2682.5
3021.58107981344	2726
3023.60623188773	2726.5
3025.63083416822	2741.25
3027.65488691331	2744.75
3029.67839038125	2761
3031.70134483007	2716
3033.72375051759	2739
3035.74560770144	2761.25
3037.76691663907	2759.75
3039.78767758768	2770.75
3041.80789080431	2755.75
3043.82755654577	2773.75
3045.84667506867	2776.75
3047.8652466294	2785.25
3049.88327148418	2761
3051.90074988899	2753.5
3053.91768209961	2753
3055.9340683716	2760.5
3057.94990896033	2782.5
3059.96520412095	2785.75
3061.97995410838	2794
3063.99415917734	2788.75
3066.00781958234	2778
3068.02093557766	2777.75
3070.03350741738	2765.25
3072.04553535535	2805.5
3074.05701964521	2802
3076.06796054036	2783
3078.078358294	2782
3080.08821315912	2798.5
3082.09752538846	2846
3084.10629523454	2771.25
3086.11452294967	2811.25
3088.12220878592	2810.5
3090.12935299515	2804
3092.13595582898	2814.75
3094.1420175388	2810.25
3096.14753837579	2782.75
3098.15251859088	2833.75
3100.15695843477	2823
3102.16085815793	2834.5
3104.16421801061	2824.5
3106.16703824282	2804.75
3108.16931910432	2859
3110.17106084464	2814
3112.17226371308	2845.25
3114.17292795872	2839.25
3116.17305383034	2868
3118.17264157657	2842.25
3120.17169144571	2831
3122.17020368587	2848.75
3124.16817854492	2849.5
3126.16561627044	2864.5
3128.16251710982	2892.75
3130.15888131017	2901
3132.15470911837	2884
3134.15000078104	2898
3136.14475654455	2916
3138.13897665502	2906.25
3140.13266135835	2950.75
3142.12581090014	2898.25
3144.11842552577	2919.25
3146.11050548036	2933.5
3148.10205100875	2935
3150.09306235557	2933
3152.08353976515	2935
3154.07348348158	2935.5
3156.06289374869	2930.75
3158.05177081006	2954.25
3160.04011490899	2970.25
3162.02792628852	2924.25
3164.01520519145	2952.75
3166.00195186029	2956.5
3167.98816653728	2973
3169.97384946442	2991.5
3171.95900088344	2975
3173.94362103577	3001.5
3175.92771016259	2993
3177.91126850484	2999.25
3179.89429630312	2987.75
3181.87679379782	2958
3183.85876122903	2995.25
3185.84019883657	3019.25
3187.82110685997	3013.25
3189.80148553851	2972.75
3191.78133511116	3052
3193.76065581664	3031
3195.73944789337	3031.75
3197.7177115795	3049.25
3199.6954471129	3072
3201.67265473114	3064.5
3203.64933467153	3055.5
3205.62548717107	3033.75
3207.60111246648	3059.75
3209.57621079421	3064.5
3211.55078239041	3097.75
3213.52482749093	3098.75
3215.49834633133	3097.5
3217.4713391469	3127
3219.44380617262	3104.25
3221.41574764317	3134
3223.38716379296	3119
3225.35805485607	3095.75
3227.32842106631	3130.75
3229.29826265718	3171.75
3231.26757986187	3168.75
3233.2363729133	3163.5
3235.20464204405	3173.75
3237.17238748643	3170.5
3239.13960947243	3191.25
3241.10630823374	3192.25
3243.07248400174	3194
3245.03813700748	3209.5
3247.00326748177	3198.25
3248.96787565503	3208.5
3250.93196175742	3193.75
3252.89552601877	3246
3254.8585686686	3207.5
3256.82108993612	3239.75
3258.78309005022	3248.5
3260.74456923948	3208.5
3262.70552773215	3240
3264.66596575617	3264.25
3266.62588353916	3255.25
3268.58528130843	3234.5
3270.54415929094	3232.5
3272.50251771336	3258
3274.46035680201	3281.5
3276.4176767829	3277.75
3278.37447788171	3294.5
3280.33076032379	3290.75
3282.28652433416	3290.25
3284.24177013751	3274
3286.1964979582	3313
3288.15070802027	3313
3290.10440054741	3290.25
3292.05757576298	3265
3294.01023389001	3303.5
3295.96237515119	3293.5
3297.91399976887	3274
3299.86510796506	3295
3301.81569996142	3292.75
3303.76577597932	3311.75
3305.7153362397	3317.5
3307.66438096324	3309
3309.61291037024	3312
3311.56092468064	3313.25
3313.50842411404	3310.25
3315.45540888971	3323
3317.40187922656	3280.75
3319.34783534315	3342.5
3321.29327745768	3297
3323.23820578801	3316
3325.18262055164	3337
3327.1265219657	3304.25
3329.06991024699	3305
3331.01278561194	3334.5
3332.95514827662	3321.5
3334.89699845674	3306
3336.83833636766	3348.25
3338.77916222434	3295
3340.71947624143	3307
3342.65927863317	3323.25
3344.59856961346	3320
3346.53734939584	3316.5
3348.47561819344	3308
3350.41337621906	3323.5
3352.35062368513	3362
3354.28736080368	3336.25
3356.22358778637	3330
3358.15930484452	3312.5
3360.09451218904	3348.5
3362.02921003047	3351
3363.96339857898	3383
3365.89707804436	3329.25
3367.83024863602	3330
3369.76291056299	3336.5
3371.69506403389	3314
3373.62670925699	3338.25
3375.55784644016	3386.75
3377.4884757909	3364.75
3379.41859751629	3372.25
3381.34821182305	3357.75
3383.27731891749	3380.75
3385.20591900555	3362.25
3387.13401229276	3401.5
3389.06159898426	3370.5
3390.9886792848	3434.5
3392.91525339872	3420.75
3394.84132152998	3383.5
3396.76688388213	3395.25
3398.69194065833	3388.5
3400.61649206133	3412
3402.54053829348	3455
3404.46407955672	3429.25
3406.3871160526	3407.5
3408.30964798225	3426.25
3410.23167554639	3419.5
3412.15319894535	3466.5
3414.07421837904	3444.5
3415.99473404695	3437.25
3417.91474614817	3440
3419.83425488136	3450.5
3421.75326044479	3484.25
3423.67176303631	3460.25
3425.58976285332	3446.5
3427.50726009282	3454
3429.42425495143	3438.25
3431.34074762528	3453
3433.25673831012	3442.5
3435.17222720127	3496.5
3437.08721449362	3441.5
3439.00170038164	3428
3440.91568505936	3482.25
3442.82916872039	3397.5
3444.74215155791	3440
3446.65463376468	3473.5
3448.566615533	3458
3450.47809705476	3436
3452.3890785214	3443
3454.29956012393	3471.25
3456.20954205293	3497.5
3458.11902449853	3435.5
3460.02800765041	3427.25
3461.93649169784	3438.5
3463.84447682962	3455
3465.75196323412	3467.75
3467.65895109925	3449.25
3469.56544061249	3475
3471.47143196086	3441.5
3473.37692533093	3435.5
3475.28192090884	3477
3477.18641888026	3469
3479.09041943039	3475
3480.99392274402	3462.75
3482.89692900545	3449.5
3484.79943839853	3481.25
3486.70145110666	3469.75
3488.60296731277	3459.5
3490.50398719933	3455.75
3492.40451094836	3430.75
3494.30453874141	3493.5
3496.20407075956	3476.25
3498.10310718342	3498.25
3500.00164819315	3441.5