200.090469251518	1292
202.974751419362	1266
205.858021632263	1298
208.740280737522	1298
211.621529580443	1322
214.501769004371	1266
217.380999850626	1293
220.25922295859	1278
223.136439165646	1314
226.012649307235	1292
228.88785421682	1321
231.762054725918	1313
234.635251664113	1281
237.507445859021	1329
240.378638136346	1287
243.248829319855	1314
246.11802023137	1310
248.986211690826	1339
251.853404516227	1318
254.719599523654	1347
257.584797527335	1314
260.44899933954	1352
263.312205770682	1320
266.174417629303	1376
269.035635722015	1335
271.895860853609	1350
274.755093826978	1365
277.613335443144	1324
280.470586501309	1317
283.326847798766	1351
286.182120131019	1323
289.036404291684	1356
291.889701072574	1348
294.742011263643	1349
297.593335653048	1381
300.443675027094	1324
303.293030170295	1359
306.141401865367	1370
308.988790893174	1351
311.835198032837	1341
314.680624061635	1391
317.525069755113	1363
320.36853588697	1350
323.211023229178	1366
326.052532551923	1395
328.893064623604	1388
331.732620210885	1386
334.57120007867	1374
337.408804990093	1407
340.245435706565	1390
343.081092987733	1396
345.915777591523	1404
348.749490274145	1406
351.582231790049	1394
354.414002891997	1395
357.244804331021	1366
360.074636856443	1401
362.903501215886	1401
365.731398155265	1448
368.558328418814	1370
371.384292749062	1426
374.209291886869	1446
377.033326571407	1434
379.85639754017	1388
382.678505529009	1413
385.499651272065	1430
388.319835501872	1419
391.139058949258	1469
393.957322343453	1427
396.774626412011	1436
399.590971880847	1434
402.406359474258	1442
405.220789914893	1416
408.034263923801	1390
410.8467822204	1455
413.658345522483	1457
416.468954546242	1433
419.278610006277	1455
422.087312615557	1449
424.895063085503	1462
427.701862125901	1467
430.507710444981	1451
433.312608749366	1441
436.116557744146	1484
438.919558132791	1473
441.721610617238	1450
444.522715897856	1463
447.322874673457	1503
450.122087641299	1422
452.920355497092	1486
455.717678935009	1451
458.514058647681	1452
461.309495326219	1472
464.103989660191	1474
466.89754233765	1479
469.690154045114	1442
472.481825467625	1487
475.272557288674	1478
478.062350190281	1466
480.851204852952	1458
483.639121955683	1456
486.426102176007	1483
489.212146189955	1427
491.997254672093	1466
494.781428295471	1468
497.564667731716	1479
500.346973650958	1484
503.128346721878	1506
505.90878761169	1488
508.688296986151	1485
511.46687550957	1503
514.244523844831	1482
517.021242653354	1513
519.797032595132	1503
522.571894328732	1529
525.345828511279	1490
528.11883579849	1530
530.890916844655	1496
533.662072302668	1501
536.432302823985	1505
539.201609058684	1503
541.96999165542	1573
544.737451261473	1484
547.503988522723	1522
550.26960408366	1475
553.034298587394	1547
555.798072675669	1492
558.560926988819	1525
561.322862165849	1484
564.083878844369	1524
566.843977660654	1485
569.603159249604	1511
572.361424244769	1528
575.118773278369	1484
577.87520698124	1547
580.630725982905	1551
583.385330911566	1507
586.139022394076	1528
588.891801055954	1511
591.643667521406	1511
594.394622413318	1546
597.144666353273	1551
599.893799961512	1550
602.64202385701	1546
605.389338657413	1507
608.135744979089	1496
610.881243437092	1525
613.625834645191	1543
616.369519215881	1502
619.112297760374	1516
621.854170888604	1541
624.595139209225	1539
627.335203329614	1512
630.074363855914	1479
632.81262139299	1510
635.549976544436	1504
638.286429912612	1516
641.021982098635	1560
643.756633702364	1545
646.49038532241	1495
649.223237556176	1531
651.955190999808	1515
654.686246248224	1535
657.416403895135	1500
660.145664533011	1538
662.874028753133	1500
665.601497145537	1546
668.328070299071	1514
671.05374880138	1576
673.778533238885	1529
676.502424196839	1545
679.225422259297	1578
681.947528009099	1557
684.668742027927	1554
687.389064896281	1534
690.108497193465	1543
692.827039497621	1566
695.544692385724	1533
698.261456433585	1551
700.977332215847	1528
703.692320305981	1525
706.406421276337	1585
709.11963569808	1540
711.831964141256	1586
714.54340717474	1542
717.253965366304	1554
719.963639282552	1534
722.672429488961	1525
725.380336549904	1517
728.087361028596	1569
730.793503487166	1540
733.498764486594	1538
736.203144586758	1585
738.906644346447	1549
741.60926432331	1538
744.311005073912	1554
747.011867153727	1565
749.711851117121	1564
752.410957517375	1581
755.109186906677	1602
757.806539836132	1580
760.503016855779	1588
763.198618514551	1551
765.893345360346	1585
768.587197939964	1543
771.28017679914	1538
773.972282482566	1535
776.663515533859	1574
779.353876495581	1538
782.043365909241	1567
784.731984315327	1535
787.419732253235	1550
790.106610261366	1570
792.792618877058	1561
795.477758636618	1546
798.162030075313	1578
800.845433727423	1589
803.52797012615	1568
806.209639803714	1591
808.890443291304	1574
811.570381119098	1604
814.249453816265	1561
816.927661910959	1554
819.60500593036	1597
822.281486400603	1585
824.957103846864	1570
827.631858793316	1549
830.305751763135	1560
832.978783278519	1588
835.650953860677	1561
838.322264029848	1538
840.992714305292	1589
843.662305205289	1556
846.331037247157	1568
848.998910947241	1575
851.665926820933	1596
854.332085382674	1582
856.997387145915	1580
859.661832623191	1622
862.325422326066	1596
864.988156765172	1561
867.650036450181	1584
870.311061889846	1581
872.971233591961	1593
875.630552063409	1611
878.28901781013	1528
880.946631337138	1586
883.603393148533	1588
886.259303747484	1612
888.914363636246	1559
891.568573316155	1601
894.22193328767	1531
896.874444050281	1559
899.526106102625	1564
902.176919942416	1576
904.826886066483	1568
907.476004970747	1583
910.124277150255	1545
912.77170309913	1608
915.418283310642	1606
918.064018277175	1579
920.708908490222	1606
923.352954440405	1580
925.996156617486	1604
928.638515510334	1595
931.280031606966	1636
933.920705394521	1614
936.560537359303	1594
939.199527986737	1632
941.837677761392	1578
944.474987167006	1589
947.111456686438	1607
949.747086801734	1603
952.38187799407	1558
955.015830743792	1633
957.648945530418	1626
960.281222832633	1586
962.91266312826	1593
965.543266894336	1583
968.173034607058	1600
970.801966741779	1625
973.43006377307	1639
976.057326174661	1564
978.683754419471	1616
981.309348979623	1594
983.93411032642	1601
986.558038930361	1566
989.181135261144	1594
991.803399787692	1577
994.424832978086	1586
997.045435299653	1588
999.665207218906	1617
1002.2841492016	1621
1004.90226171266	1604
1007.51954521628	1570
1010.13600017584	1606
1012.75162705397	1604
1015.3664263125	1628
1017.9803984125	1613
1020.5935438143	1624
1023.20586297741	1631
1025.81735636063	1595
1028.42802442196	1656
1031.03786761869	1635
1033.64688640732	1624
1036.2550812436	1627
1038.86245258255	1647
1041.46900087844	1623
1044.07472658479	1636
1046.67963015438	1664
1049.28371203927	1620
1051.88697269075	1630
1054.48941255943	1659
1057.09103209513	1602
1059.691831747	1611
1062.29181196343	1667
1064.89097319211	1614
1067.48931587999	1650
1070.08684047333	1592
1072.68354741766	1627
1075.27943715779	1645
1077.87451013787	1666
1080.46876680127	1694
1083.06220759071	1623
1085.65483294822	1628
1088.24664331509	1630
1090.83763913194	1656
1093.42782083869	1605
1096.01718887459	1668
1098.60574367818	1647
1101.19348568732	1622
1103.78041533919	1635
1106.3665330703	1690
1108.95183931646	1681
1111.53633451284	1651
1114.12001909391	1649
1116.70289349349	1640
1119.2849581447	1658
1121.86621348005	1627
1124.44665993134	1661
1127.02629792973	1640
1129.60512790574	1666
1132.18315028919	1637
1134.76036550929	1665
1137.3367739946	1692
1139.912376173	1655
1142.48717247176	1632
1145.06116331748	1644
1147.63434913616	1662
1150.20673035312	1645
1152.77830739307	1658
1155.34908068007	1660
1157.91905063757	1714
1160.48821768838	1664
1163.05658225471	1636
1165.6241447581	1646
1168.19090561951	1679
1170.75686525927	1674
1173.32202409708	1631
1175.88638255206	1694
1178.44994104269	1676
1181.01269998684	1633
1183.57465980182	1648
1186.13582090427	1650
1188.69618371026	1633
1191.25574863529	1645
1193.8145160942	1670
1196.37248650129	1669
1198.92966027025	1628
1201.48603781416	1643
1204.04161954556	1633
1206.59640587635	1642
1209.15039721788	1655
1211.70359398092	1642
1214.25599657564	1630
1216.80760541166	1623
1219.35842089801	1634
1221.90844344314	1633
1224.45767345496	1656
1227.00611134077	1672
1229.55375750736	1681
1232.10061236092	1664
1234.64667630707	1662
1237.1919497509	1671
1239.73643309692	1617
1242.28012674912	1697
1244.82303111089	1693
1247.36514658511	1661
1249.9064735741	1690
1252.44701247964	1675
1254.98676370294	1676
1257.52572764469	1726
1260.06390470506	1701
1262.60129528365	1705
1265.13789977954	1719
1267.67371859128	1713
1270.20875211688	1707
1272.74300075384	1704
1275.2764648991	1660
1277.80914494911	1729
1280.34104129978	1708
1282.87215434652	1691
1285.40248448419	1682
1287.93203210715	1751
1290.46079760927	1687
1292.98878138385	1699
1295.51598382375	1685
1298.04240532127	1689
1300.56804626822	1731
1303.09290705593	1689
1305.6169880752	1737
1308.14028971632	1705
1310.66281236913	1708
1313.18455642292	1707
1315.70552226653	1698
1318.22571028829	1701
1320.74512087603	1739
1323.26375441711	1709
1325.7816112984	1723
1328.29869190629	1718
1330.81499662666	1708
1333.33052584497	1731
1335.84527994613	1730
1338.35925931464	1774
1340.87246433446	1754
1343.38489538916	1788
1345.89655286177	1763
1348.40743713487	1816
1350.91754859059	1723
1353.42688761059	1787
1355.93545457606	1723
1358.44324986772	1727
1360.95027386588	1761
1363.45652695032	1755
1365.96200950042	1767
1368.4667218951	1769
1370.97066451281	1780
1373.47383773156	1728
1375.97624192891	1794
1378.47787748199	1735
1380.97874476746	1725
1383.47884416157	1744
1385.97817604009	1718
1388.4767407784	1784
1390.9745387514	1685
1393.47157033358	1752
1395.96783589898	1757
1398.46333582124	1715
1400.95807047354	1765
1403.45204022864	1723
1405.94524545889	1735
1408.4376865362	1740
1410.92936383205	1752
1413.42027771752	1759
1415.91042856328	1735
1418.39981673955	1747
1420.88844261615	1747
1423.37630656249	1769
1425.86340894757	1749
1428.34975013999	1738
1430.83533050792	1782
1433.32015041912	1805
1435.80421024098	1765
1438.28751034045	1781
1440.77005108411	1801
1443.25183283812	1790
1445.73285596824	1851
1448.21312083984	1802
1450.69262781791	1800
1453.17137726702	1795
1455.64936955137	1828
1458.12660503477	1814
1460.60308408063	1836
1463.07880705197	1807
1465.55377431145	1833
1468.02798622133	1847
1470.50144314348	1812
1472.97414543941	1808
1475.44609347024	1849
1477.91728759673	1808
1480.38772817924	1839
1482.85741557777	1812
1485.32635015194	1819
1487.79453226103	1796
1490.26196226391	1815
1492.72864051911	1762
1495.1945673848	1803
1497.65974321874	1849
1500.1241683784	1836
1502.58784322083	1791
1505.05076810274	1819
1507.51294338049	1795
1509.97436941009	1809
1512.43504654717	1862
1514.89497514704	1807
1517.35415556462	1813
1519.81258815451	1805
1522.27027327095	1783
1524.72721126784	1809
1527.18340249874	1861
1529.63884731684	1843
1532.09354607502	1813
1534.5474991258	1846
1537.00070682136	1851
1539.45316951355	1837
1541.90488755388	1841
1544.35586129353	1828
1546.80609108336	1864
1549.25557727385	1846
1551.70432021519	1869
1554.15232025725	1829
1556.59957774953	1836
1559.04609304125	1895
1561.49186648127	1846
1563.93689841815	1845
1566.38118920011	1867
1568.82473917506	1901
1571.2675486906	1840
1573.70961809399	1923
1576.15094773219	1870
1578.59153795184	1878
1581.03138909928	1893
1583.47050152051	1883
1585.90887556123	1905
1588.34651156686	1885
1590.78340988246	1954
1593.21957085283	1919
1595.65499482245	1931
1598.08968213547	1889
1600.52363313578	1916
1602.95684816694	1921
1605.38932757224	1915
1607.82107169462	1887
1610.25208087677	1932
1612.68235546107	1884
1615.1118957896	1882
1617.54070220415	1894
1619.96877504621	1842
1622.39611465701	1910
1624.82272137746	1892
1627.24859554818	1881
1629.67373750953	1919
1632.09814760155	1907
1634.52182616404	1865
1636.94477353647	1865
1639.36699005806	1917
1641.78847606776	1865
1644.20923190418	1901
1646.62925790573	1893
1649.04855441048	1880
1651.46712175628	1879
1653.88496028066	1877
1656.3020703209	1917
1658.71845221401	1862
1661.13410629671	1903
1663.54903290547	1922
1665.96323237649	1925
1668.37670504571	1911
1670.78945124877	1894
1673.20147132109	1945
1675.61276559779	1950
1678.02333441377	1957
1680.43317810362	1920
1682.84229700171	1965
1685.25069144213	1927
1687.65836175872	1980
1690.06530828507	1950
1692.47153135451	1979
1694.87703130009	2008
1697.28180845467	1925
1699.6858631508	1978
1702.08919572081	1979
1704.49180649676	1966
1706.89369581049	1939
1709.29486399355	1947
1711.69531137731	1960
1714.09503829282	1905
1716.49404507095	1998
1718.89233204229	2008
1721.28989953721	1983
1723.68674788581	1972
1726.08287741798	1968
1728.47828846338	2000
1730.87298135139	1972
1733.26695641119	1979
1735.66021397173	1999
1738.05275436169	1998
1740.44457790954	1997
1742.83568494354	1965
1745.22607579168	2011
1747.61575078175	1958
1750.00471024128	1989
1752.39295449761	2000
1754.78048387783	1964
1757.16729870881	1981
1759.5533993172	2005
1761.93878602942	2034
1764.32345917168	2010
1766.70741906995	2036
1769.09066604999	2043
1771.47320043735	2028
1773.85502255735	2014
1776.2361327351	2017
1778.61653129548	2056
1780.99621856318	2043
1783.37519486264	2063
1785.75346051813	2092
1788.13101585368	2108
1790.5078611931	2067
1792.88399686002	2063
1795.25942317785	2071
1797.63414046977	2092
1800.00814905878	2086
1802.38144926766	2117
1804.75404141898	2091
1807.12592583514	2091
1809.49710283829	2087
1811.86757275039	2087
1814.23733589322	2106
1816.60639258834	2096
1818.97474315712	2151
1821.34238792073	2126
1823.70932720012	2104
1826.07556131608	2104
1828.44109058918	2118
1830.8059153398	2127
1833.17003588812	2142
1835.53345255413	2132
1837.89616565765	2100
1840.25817551827	2066
1842.61948245541	2091
1844.9800867883	2117
1847.33998883598	2124
1849.69918891729	2139
1852.05768735091	2161
1854.4154844553	2156
1856.77258054875	2154
1859.12897594938	2123
1861.4846709751	2172
1863.83966594366	2159
1866.19396117261	2116
1868.54755697932	2179
1870.90045368099	2146
1873.25265159463	2111
1875.60415103708	2181
1877.95495232501	2231
1880.30505577486	2196
1882.65446170299	2188
1885.00317042548	2216
1887.35118225832	2208
1889.69849751726	2199
1892.04511651792	2223
1894.39103957574	2220
1896.73626700596	2250
1899.08079912368	2273
1901.42463624384	2324
1903.76777868116	2293
1906.11022675025	2250
1908.4519807655	2243
1910.79304104117	2285
1913.13340789134	2233
1915.47308162992	2266
1917.81206257067	2262
1920.15035102718	2262
1922.48794731286	2317
1924.82485174096	2285
1927.16106462461	2350
1929.49658627672	2310
1931.83141701008	2321
1934.1655571373	2322
1936.49900697085	2301
1938.83176682301	2309
1941.16383700594	2365
1943.49521783161	2314
1945.82590961186	2326
1948.15591265835	2370
1950.48522728262	2317
1952.81385379602	2345
1955.14179250976	2343
1957.46904373489	2337
1959.79560778233	2308
1962.12148496284	2346
1964.44667558701	2339
1966.77117996529	2327
1969.09499840799	2332
1971.41813122527	2374
1973.74057872714	2440
1976.06234122345	2357
1978.38341902391	2340
1980.7038124381	2346
1983.02352177543	2396
1985.34254734518	2413
1987.66088945649	2410
1989.97854841833	2410
1992.29552453956	2444
1994.61181812887	2399
1996.92742949483	2415
1999.24235894586	2434
2001.55660679023	2445
2003.87017333608	2443
2006.18305889143	2461
2008.49526376413	2499
2010.80678826189	2497
2013.1176326923	2560
2015.42779736282	2486
2017.73728258075	2477
2020.04608865326	2546
2022.3542158874	2520
2024.66166459008	2590
2026.96843506807	2516
2029.274527628	2534
2031.57994257637	2584
2033.88468021957	2566
2036.18874086383	2500
2038.49212481526	2501
2040.79483237983	2580
2043.0968638634	2595
2045.39821957169	2585
2047.69889981028	2612
2049.99890488462	2593
2052.29823510006	2591
2054.59689076181	2618
2056.89487217492	2578
2059.19217964437	2609
2061.48881347497	2630
2063.7847739714	2630
2066.08006143826	2599
2068.37467618	2630
2070.66861850093	2649
2072.96188870527	2650
2075.25448709707	2645
2077.54641398031	2627
2079.83766965881	2635
2082.12825443629	2642
2084.41816861634	2626
2086.70741250242	2648
2088.99598639789	2638
2091.28389060597	2636
2093.57112542978	2669
2095.85769117232	2677
2098.14358813644	2638
2100.42881662491	2638
2102.71337694037	2704
2104.99726938532	2661
2107.28049426219	2651
2109.56305187325	2673
2111.84494252069	2723
2114.12616650655	2701
2116.40672413278	2666
2118.68661570121	2685
2120.96584151355	2753
2123.24440187138	2739
2125.52229707622	2677
2127.79952742943	2731
2130.07609323227	2784
2132.35199478588	2739
2134.62723239132	2753
2136.90180634949	2761
2139.17571696123	2740
2141.44896452723	2774
2143.72154934809	2751
2145.99347172429	2770
2148.26473195623	2763
2150.53533034415	2807
2152.80526718821	2843
2155.07454278848	2826
2157.3431574449	2836
2159.61111145728	2797
2161.87840512538	2801
2164.1450387488	2862
2166.41101262707	2833
2168.67632705959	2860
2170.94098234567	2803
2173.20497878451	2863
2175.46831667519	2877
2177.73099631672	2855
2179.99301800797	2832
2182.25438204772	2871
2184.51508873466	2820
2186.77513836735	2901
2189.03453124427	2859
2191.29326766378	2876
2193.55134792416	2809
2195.80877232355	2877
2198.06554116004	2894
2200.32165473157	2823
2202.577113336	2839
2204.83191727111	2919
2207.08606683453	2888
2209.33956232384	2841
2211.59240403648	2886
2213.84459226982	2925
2216.09612732112	2851
2218.34700948753	2835
2220.59723906612	2971
2222.84681635385	2840
2225.09574164758	2892
2227.34401524408	2919
2229.59163744002	2844
2231.83860853197	2950
2234.08492881639	2927
2236.33059858968	2915
2238.5756181481	2929
2240.81998778784	2926
2243.06370780499	2897
2245.30677849555	2876
2247.54920015539	3008
2249.79097308033	2889
2252.03209756607	2918
2254.27257390822	2884
2256.51240240228	2893
2258.75158334369	2908
2260.99011702777	2875
2263.22800374976	2985
2265.46524380477	2841
2267.70183748786	2941
2269.93778509399	2910
2272.17308691801	2921
2274.40774325467	2942
2276.64175439866	2895
2278.87512064454	2914
2281.10784228682	2928
2283.33991961987	2954
2285.571352938	2940
2287.80214253541	2940
2290.03228870623	2923
2292.26179174449	2956
2294.4906519441	2992
2296.71886959892	2942
2298.9464450027	2912
2301.1733784491	2925
2303.39967023169	2961
2305.62532064395	2927
2307.85032997926	3021
2310.07469853093	2948
2312.29842659216	2951
2314.52151445608	3013
2316.7439624157	2936
2318.96577076397	2962
2321.18693979374	2983
2323.40746979777	3038
2325.62736106873	3034
2327.8466138992	3026
2330.06522858166	3019
2332.28320540853	2980
2334.50054467212	2991
2336.71724666465	2950
2338.93331167827	2938
2341.14874000501	2976
2343.36353193685	3016
2345.57768776564	3004
2347.79120778319	3023
2350.00409228117	2935
2352.21634155121	2995
2354.42795588482	3035
2356.63893557342	2916
2358.84928090838	2998
2361.05899218094	3053
2363.26806968228	2975
2365.47651370347	2963
2367.68432453552	2970
2369.89150246933	2994
2372.09804779571	3012
2374.30396080541	3084
2376.50924178907	3064
2378.71389103725	3070
2380.91790884042	2991
2383.12129548897	2984
2385.3240512732	2969
2387.52617648332	3030
2389.72767140946	3002
2391.92853634165	3008
2394.12877156985	2996
2396.32837738392	3040
2398.52735407365	2999
2400.72570192873	3065
2402.92342123875	2975
2405.12051229325	2988
2407.31697538167	2978
2409.51281079333	3065
2411.70801881751	3011
2413.90259974339	3030
2416.09655386004	3022
2418.28988145648	3062
2420.48258282162	3000
2422.6746582443	3064
2424.86610801325	3076
2427.05693241713	2977
2429.24713174452	3073
2431.43670628389	3055
2433.62565632365	3082
2435.81398215212	3030
2438.00168405752	3110
2440.18876232799	3083
2442.37521725158	3087
2444.56104911628	3035
2446.74625820994	3053
2448.93084482038	3057
2451.1148092353	3077
2453.29815174233	3042
2455.480872629	3033
2457.66297218275	3031
2459.84445069097	3033
2462.02530844092	3024
2464.2055457198	3006
2466.38516281471	3119
2468.56416001267	3022
2470.74253760061	2998
2472.92029586537	3064
2475.09743509372	3015
2477.27395557232	3078
2479.44985758777	3099
2481.62514142655	3109
2483.79980737508	3071
2485.97385571969	3046
2488.14728674661	3062
2490.32010074198	3087
2492.49229799188	3087
2494.66387878228	3076
2496.83484339905	3097
2499.00519212802	3125
2501.17492525488	3088
2503.34404306528	3126
2505.51254584473	3080
2507.6804338787	3045
2509.84770745254	3069
2512.01436685153	3148
2514.18041236085	3129
2516.34584426561	3160
2518.51066285081	3113
2520.67486840138	3172
2522.83846120214	3162
2525.00144153784	3169
2527.16380969314	3117
2529.32556595261	3156
2531.48671060072	3143
2533.64724392186	3141
2535.80716620033	3147
2537.96647772034	3194
2540.12517876602	3228
2542.2832696214	3181
2544.44075057041	3138
2546.59762189691	3163
2548.75388388466	3163
2550.90953681735	3186
2553.06458097853	3172
2555.21901665172	3230
2557.37284412031	3185
2559.5260636676	3133
2561.67867557684	3186
2563.83068013113	3166
2565.98207761351	3175
2568.13286830695	3182
2570.28305249429	3180
2572.43263045829	3181
2574.58160248163	3210
2576.72996884689	3133
2578.87772983655	3144
2581.02488573303	3217
2583.1714368186	3181
2585.31738337549	3164
2587.46272568582	3099
2589.60746403161	3180
2591.75159869479	3135
2593.89512995722	3213
2596.03805810061	3141
2598.18038340665	3264
2600.32210615686	3204
2602.46322663274	3156
2604.60374511563	3149
2606.74366188683	3231
2608.88297722751	3195
2611.02169141875	3241
2613.15980474156	3262
2615.29731747681	3211
2617.43422990532	3230
2619.57054230779	3179
2621.70625496483	3279
2623.84136815694	3305
2625.97588216456	3233
2628.10979726799	3222
2630.24311374746	3301
2632.3758318831	3327
2634.50795195493	3262
2636.6394742429	3261
2638.77039902682	3278
2640.90072658645	3209
2643.0304572014	3263
2645.15959115123	3279
2647.28812871538	3271
2649.41607017319	3259
2651.5434158039	3269
2653.67016588665	3280
2655.79632070049	3240
2657.92188052436	3311
2660.04684563711	3327
2662.17121631749	3331
2664.29499284413	3304
2666.41817549558	3315
2668.54076455027	3386
2670.66276028656	3322
2672.78416298267	3314
2674.90497291675	3309
2677.02519036682	3282
2679.14481561082	3324
2681.26384892658	3327
2683.38229059182	3325
2685.50014088417	3374
2687.61740008114	3290
2689.73406846017	3361
2691.85014629854	3362
2693.96563387347	3334
2696.08053146206	3340
2698.1948393413	3359
2700.3085577881	3330
2702.42168707924	3355
2704.53422749139	3347
2706.64617930112	3314
2708.75754278492	3423
2710.86831821913	3257
2712.97850588002	3344
2715.08810604372	3371
2717.19711898628	3430
2719.30554498363	3341
2721.41338431158	3373
2723.52063724586	3388
2725.62730406206	3398
2727.73338503569	3437
2729.83888044213	3411
2731.94379055664	3398
2734.04811565441	3467
2736.15185601048	3355
2738.25501189979	3363
2740.35758359718	3374
2742.45957137738	3321
2744.56097551499	3351
2746.6617962845	3388
2748.7620339603	3425
2750.86168881666	3466
2752.96076112774	3379
2755.05925116758	3372
2757.15715921012	3420
2759.25448552917	3398
2761.35123039843	3393
2763.44739409148	3397
2765.5429768818	3486
2767.63797904275	3475
2769.73240084756	3460
2771.82624256934	3482
2773.91950448113	3440
2776.01218685579	3436
2778.10428996609	3406
2780.19581408469	3498
2782.28675948414	3494
2784.37712643683	3486
2786.46691521507	3453
2788.55612609104	3467
2790.64475933678	3446
2792.73281522425	3523
2794.82029402525	3432
2796.90719601149	3492
2798.99352145453	3399
2801.07927062583	3438
2803.16444379672	3480
2805.24904123841	3492
2807.33306322197	3413
2809.41651001838	3475
2811.49938189847	3426
2813.58167913296	3530
2815.66340199243	3465
2817.74455074734	3467
2819.82512566805	3448
2821.90512702475	3408
2823.98455508754	3483
2826.06341012637	3506
2828.14169241109	3427
2830.2194022114	3562
2832.29653979686	3482
2834.37310543694	3522
2836.44909940096	3551
2838.5245219581	3533
2840.59937337744	3528
2842.67365392791	3535
2844.74736387829	3506
2846.82050349727	3472
2848.8930730534	3566
2850.96507281506	3571
2853.03650305056	3543
2855.10736402802	3519
2857.17765601545	3586
2859.24737928074	3589
2861.31653409164	3552
2863.38512071574	3536
2865.45313942054	3572
2867.52059047335	3596
2869.58747414139	3599
2871.65379069173	3619
2873.7195403913	3485
2875.78472350688	3652
2877.84934030515	3575
2879.91339105262	3616
2881.97687601567	3582
2884.03979546053	3587
2886.10214965332	3633
2888.16393886	3565
2890.22516334639	3549
2892.28582337816	3606
2894.34591922087	3621
2896.40545113992	3574
2898.46441940054	3626
2900.52282426787	3586
2902.58066600687	3634
2904.63794488237	3646
2906.69466115906	3613
2908.75081510147	3639
2910.806406974	3610
2912.8614370409	3599
2914.91590556626	3619
2916.96981281404	3599
2919.02315904807	3590
2921.07594453199	3666
2923.12816952932	3610
2925.17983430343	3639
2927.23093911753	3575
2929.28148423469	3543
2931.33146991782	3615
2933.3808964297	3614
2935.42976403294	3629
2937.47807299	3609
2939.5258235632	3512
2941.57301601469	3589
2943.61965060648	3570
2945.66572760042	3594
2947.71124725823	3502
2949.75620984143	3603
2951.80061561143	3522
2953.84446482945	3546
2955.88775775656	3590
2957.9304946537	3505
2959.97267578162	3573
2962.01430140095	3569
2964.05537177211	3611
2966.09588715541	3556
2968.13584781097	3612
2970.17525399875	3634
2972.21410597859	3590
2974.25240401011	3475
2976.29014835283	3543
2978.32733926604	3620
2980.36397700892	3582
2982.40006184049	3569
2984.43559401955	3624
2986.4705738048	3562
2988.50500145473	3565
2990.53887722771	3601
2992.57220138189	3594
2994.6049741753	3572
2996.63719586576	3619
2998.66886671097	3525
3000.69998696843	3611
3002.73055689549	3684
3004.7605767493	3700
3006.79004678688	3603
3008.81896726505	3663
3010.84733844048	3636
3012.87516056966	3670
3014.9024339089	3703
3016.92915871433	3705
3018.95533524196	3704
3020.98096374756	3660
3023.00604448675	3679
3025.030577715	3684
3027.05456368757	3688
3029.07800265956	3663
3031.10089488589	3670
3033.12324062131	3707
3035.14504012038	3675
3037.16629363749	3699
3039.18700142685	3743
3041.20716374249	3669
3043.22678083826	3728
3045.24585296782	3712
3047.26438038468	3728
3049.28236334212	3757
3051.29980209329	3757
3053.31669689111	3693
3055.33304798835	3615
3057.34885563757	3629
3059.36412009117	3716
3061.37884160134	3661
3063.39302042011	3737
3065.40665679931	3661
3067.41975099058	3671
3069.43230324538	3730
3071.44431381495	3657
3073.45578295041	3702
3075.46671090261	3704
3077.47709792227	3725
3079.48694425989	3737
3081.49625016578	3680
3083.50501589008	3704
3085.5132416827	3683
3087.5209277934	3630
3089.52807447169	3625
3091.53468196695	3626
3093.54075052832	3654
3095.54628040476	3688
3097.55127184503	3687
3099.55572509769	3646
3101.55964041111	3672
3103.56301803346	3616
3105.5658582127	3712
3107.56816119661	3677
3109.56992723275	3660
3111.57115656849	3696
3113.571849451	3634
3115.57200612724	3720
3117.57162684397	3678
3119.57071184775	3750
3121.56926138493	3718
3123.56727570166	3677
3125.56475504389	3658
3127.56169965735	3711
3129.55810978757	3707
3131.55398567987	3725
3133.54932757937	3757
3135.54413573099	3746
3137.53841037939	3702
3139.53215176909	3693
3141.52536014435	3719
3143.51803574924	3742
3145.51017882762	3673
3147.50178962311	3772
3149.49286837916	3751
3151.48341533897	3716
3153.47343074553	3707
3155.46291484164	3750
3157.45186786985	3722
3159.44029007252	3649
3161.42818169179	3732
3163.41554296955	3756
3165.40237414753	3697
3167.38867546718	3733
3169.37444716975	3748
3171.35968949631	3698
3173.34440268764	3698
3175.32858698436	3718
3177.31224262682	3770
3179.29536985517	3732
3181.27796890934	3751
3183.26004002902	3687
3185.24158345368	3753
3187.22259942256	3758
3189.2030881747	3764
3191.18304994886	3753
3193.16248498363	3712
3195.14139351733	3719
3197.11977578807	3742
3199.09763203371	3728
3201.07496249191	3717
3203.05176740007	3743
3205.02804699537	3758
3207.00380151475	3738
3208.97903119493	3822
3210.95373627238	3786
3212.92791698335	3711
3214.90157356383	3750
3216.8747062496	3721
3218.84731527619	3757
3220.81940087889	3727
3222.79096329275	3706
3224.76200275259	3757
3226.73251949298	3830
3228.70251374825	3767
3230.67198575251	3716
3232.64093573959	3788
3234.6093639431	3832
3236.57727059641	3831
3238.54465593261	3791
3240.51152018461	3859
3242.47786358502	3821
3244.44368636621	3828
3246.40898876031	3832
3248.37377099923	3836
3250.33803331458	3914
3252.30177593775	3796
3254.26499909987	3856
3256.22770303184	3826
3258.18988796427	3802
3260.15155412755	3804
3262.1127017518	3806
3264.0733310669	3771
3266.03344230246	3786
3267.99303568784	3838
3269.95211145215	3822
3271.91066982422	3882
3273.86871103267	3778
3275.82623530581	3801
3277.7832428717	3773
3279.73973395818	3788
3281.69570879278	3877
3283.6511676028	3896
3285.60611061527	3843
3287.56053805694	3817
3289.51445015432	3883
3291.46784713364	3822
3293.42072922088	3832
3295.37309664173	3843
3297.32494962163	3834
3299.27628838575	3795
3301.227113159	3855
3303.17742416601	3876
3305.12722163114	3853
3307.07650577848	3836
3309.02527683185	3938
3310.9735350148	3901
3312.9212805506	3886
3314.86851366225	3835
3316.81523457249	3871
3318.76144350377	3869
3320.70714067825	3847
3322.65232631783	3839
3324.59700064415	3866
3326.54116387854	3865
3328.48481624207	3919
3330.42795795551	3801
3332.37058923938	3784
3334.31271031389	3869
3336.25432139898	3813
3338.19542271432	3892
3340.13601447927	3871
3342.07609691292	3799
3344.01567023407	3853
3345.95473466124	3845
3347.89329041266	3829
3349.83133770627	3796
3351.76887675973	3852
3353.70590779039	3759
3355.64243101534	3809
3357.57844665135	3781
3359.51395491492	3832
3361.44895602224	3881
3363.38345018922	3897
3365.31743763148	3794
3367.25091856432	3853
3369.18389320278	3823
3371.11636176156	3870
3373.0483244551	3907
3374.97978149754	3919
3376.91073310269	3890
3378.84117948409	3794
3380.77112085498	3885
3382.70055742826	3935
3384.62948941659	3927
3386.55791703227	3796
3388.48584048733	3807
3390.41325999348	3875
3392.34017576214	3873
3394.2665880044	3915
3396.19249693107	3951
3398.11790275263	3925
3400.04280567926	3986
3401.96720592084	3982
3403.89110368692	3902
3405.81449918675	3934
3407.73739262928	3824
3409.65978422311	3939
3411.58167417658	3944
3413.50306269768	3965
3415.42394999408	3958
3417.34433627316	3901
3419.26422174195	3879
3421.18360660721	3952
3423.10249107532	3940
3425.02087535239	3934
3426.93875964421	3964
3428.8561441562	3927
3430.77302909353	3895
3432.68941466097	3941
3434.60530106301	3954
3436.52068850383	3900
3438.43557718726	3901
3440.34996731681	3904
3442.26385909565	3863
3444.17725272664	3960
3446.09014841231	3856
3448.00254635486	3919
3449.91444675614	3928
3451.82584981771	3990
3453.73675574076	3820
3455.64716472616	3941
3457.55707697445	3826
3459.46649268584	3869
3461.37541206018	3886
3463.28383529703	3928
3465.19176259555	3923
3467.09919415464	3881
3469.00613017278	3890
3470.91257084817	3818
3472.81851637863	3801
3474.72396696168	3853
3476.62892279446	3855
3478.53338407379	3897
3480.43735099614	3772
3482.34082375764	3820
3484.24380255404	3823
3486.1462875808	3900
3488.048279033	3911
3489.94977710537	3862
3491.85078199231	3886
3493.75129388783	3847
3495.65131298566	3851
3497.5508394791	3882
3499.44987356115	3894
