201.866871357051	833.5
204.754250281454	834.5
207.640596790938	834.5
210.525911876299	838.5
213.410196525689	844
216.293451724508	849.5
219.175678455485	844
222.056877698662	841
224.937050431388	830
227.816197628363	839
230.694320261602	846.75
233.571419300504	842.75
236.447495711764	845.25
239.322550459507	848
242.196584505182	849.75
245.069598807626	852.75
247.941594323078	844
250.812572005154	856.75
253.682532804884	863.75
256.551477670699	862.25
259.419407548456	858
262.286323381439	864.25
265.152226110364	869.75
268.017116673389	882.75
270.880996006115	872.75
273.743865041622	883.5
276.605724710436	880.25
279.466575940562	904.75
282.326419657496	894.75
285.1852567842	876.25
288.043088241157	882.75
290.899914946349	859.75
293.75573781526	858.25
296.610557760898	858.25
299.464375693817	879.75
302.317192522078	872.75
305.169009151297	864.75
308.019826484655	866
310.86964542287	866.25
313.718466864233	859.75
316.566291704614	857.25
319.413120837457	857.5
322.258955153804	852
325.103795542291	857
327.947642889128	863.75
330.79049807819	854
333.632361990927	854
336.473235506444	851.25
339.31311950145	852.25
342.152014850322	873
344.989922425062	868.75
347.826843095354	864.25
350.662777728528	860.25
353.497727189577	861.75
356.331692341195	868.75
359.164674043732	860
361.996673155267	863.75
364.827690531536	876
367.65772702602	856.25
370.486783489887	867
373.314860772047	871.25
376.14195971912	873
378.968081175466	876
381.793225983212	873.5
384.617394982201	877
387.44058901005	867.25
390.262808902131	876
393.08405549161	869.75
395.904329609395	870.5
398.723632084213	876.75
401.541963742569	874.5
404.359325408779	887.75
407.175717904938	878.5
409.991142050982	878.25
412.805598664665	882.75
415.619088561551	888.25
418.43161255505	885
421.243171456415	889.75
424.053766074758	881.75
426.863397217017	889.75
429.672065688024	886
432.479772290455	890.5
435.286517824879	901.5
438.092303089736	891.5
440.897128881359	894.75
443.70099599399	892
446.503905219761	902.25
449.305857348711	884.5
452.106853168796	892
454.906893465919	892.25
457.705979023885	892.25
460.504110624439	891.25
463.3012890473	895.5
466.097515070087	888.75
468.892789468424	891.5
471.687113015869	894.75
474.48048648395	890.25
477.272910642198	902.75
480.064386258109	891.5
482.854914097159	901.25
485.644494922839	891.25
488.433129496636	889.5
491.220818578047	886.5
494.007562924584	901.75
496.793363291785	887.75
499.578220433217	899.75
502.362135100473	905.25
505.145108043209	896.75
507.927140009098	912
510.708231743909	901
513.488383991433	905
516.267597493556	908.5
519.04587299022	898.5
521.82321121946	897
524.599612917398	904
527.375078818233	911.25
530.149609654287	910.75
532.923206155967	911.5
535.695869051804	904.5
538.467599068448	915.25
541.238396930665	906.75
544.008263361364	902.75
546.777199081578	903.25
549.545204810493	908
552.312281265436	907.25
555.078429161898	900.75
557.843649213533	912.5
560.607942132156	902.5
563.371308627753	906.25
566.133749408495	912.75
568.895265180756	907
571.655856649064	913
574.415524516189	920.25
577.174269483075	918.5
579.932092248884	918.25
582.688993510994	924
585.444973965023	915.25
588.200034304795	918.75
590.95417522237	928.25
593.70739740807	914.75
596.459701550433	915.5
599.21108833628	923.25
601.961558450668	918
604.711112576933	925
607.459751396673	923.75
610.207475589748	924
612.954285834338	926
615.700182806879	909
618.445167182101	921.75
621.189239633055	926.5
623.932400831087	919.25
626.674651445839	964
629.415992145303	981
632.156423595745	999.75
634.895946461813	962.75
637.634561406449	950.25
640.37226909096	939.5
643.109070174978	918.75
645.844965316508	927
648.579955171888	911.5
651.314040395846	929.75
654.047221641456	924
656.779499560176	912.5
659.510874801828	931.5
662.241348014642	929.5
664.97091984524	937.75
667.699590938606	928.25
670.427361938164	934.75
673.15423348573	924.25
675.880206221526	922.75
678.605280784206	934.25
681.329457810829	937.25
684.05273793692	929.75
686.775121796389	937
689.49661002163	938.25
692.217203243454	932.25
694.936902091144	939
697.655707192425	949.25
700.373619173493	949
703.09063865901	956.25
705.806766272093	953.75
708.522002634378	950.75
711.236348365946	936.5
713.94980408538	938.25
716.662370409762	945
719.374047954676	929.25
722.08483733419	939.25
724.794739160909	940
727.503754045949	931.75
730.21188259892	937.25
732.919125427998	934
735.625483139855	933.75
738.330956339723	943.75
741.035545631374	943
743.739251617106	940.5
746.44207489779	946.5
749.144016072852	942.25
751.845075740272	946.5
754.545254496603	946.25
757.244552936976	952.5
759.94297165508	931.75
762.640511243222	935.25
765.337172292249	946.25
768.032955391649	937.25
770.727861129482	951.25
773.421890092413	947.25
776.11504286572	946.25
778.807320033298	936.75
781.49872217765	943.5
784.18924987991	948.75
786.87890371984	948
789.567684275826	950.5
792.255592124908	964.5
794.94262784276	955.75
797.628792003703	958.75
800.314085180715	957.25
802.998507945427	956.25
805.682060868145	950
808.364744517821	942.25
811.046559462105	963
813.727506267311	946.5
816.407585498422	954.75
819.08679771913	958
821.765143491822	960.25
824.442623377563	969.25
827.119237936127	967
829.794987726003	975
832.469873304377	973.5
835.143895227167	972.75
837.817054048985	964.25
840.489350323205	989.25
843.160784601892	992.25
845.831357435894	990.25
848.501069374739	1012
851.169920966753	1039.75
853.837912758987	1079.25
856.505045297232	1114.75
859.171319126071	1099.75
861.836734788823	1074
864.501292827579	1031.75
867.164993783208	1011.25
869.827838195361	984.5
872.489826602454	985.25
875.150959541701	988.25
877.811237549104	972
880.470661159456	968.25
883.129230906357	981.25
885.786947322205	971.75
888.443810938206	974.5
891.099822284385	971.5
893.754981889586	967.75
896.409290281452	965.25
899.062747986485	962.25
901.715355529999	979.75
904.367113436154	965.5
907.01802222793	973.5
909.668082427172	964.75
912.317294554574	975
914.965659129659	977
917.613176670835	983.25
920.259847695364	975
922.90567271936	974.25
925.550652257825	962.5
928.194786824621	981.75
930.838076932512	966.75
933.480523093109	975
936.122125816953	976.5
938.762885613447	987
941.402802990899	973.75
944.041878456523	973
946.680112516428	983
949.31750567563	976
951.954058438081	987.75
954.589771306633	970
957.224644783048	979.5
959.858679368044	979.75
962.491875561238	993.75
965.12423386121	987.75
967.75575476545	987.75
970.386438770423	992.25
973.016286371501	992.5
975.645298063046	981
978.273474338355	992
980.900815689674	990.75
983.527322608243	995.5
986.152995584245	994.25
988.777835106834	1000.25
991.401841664148	1004.25
994.025015743307	1004.25
996.647357830407	1014.75
999.268868410534	1010.5
1001.88954796777	1008.25
1004.50939698518	1015.75
1007.12841594484	1012.75
1009.74660532783	1013.75
1012.36396561423	1018
1014.98049728314	1007
1017.59620081267	1004.75
1020.21107667995	996.25
1022.82512536112	1004.25
1025.43834733138	995
1028.05074306493	998.25
1030.66231303501	995.25
1033.27305771392	1006.75
1035.88297757299	998.25
1038.49207308257	1006.75
1041.10034471211	1016.75
1043.70779293008	1018.25
1046.31441820402	1009.25
1048.92022100052	1010.5
1051.52520178525	1018.25
1054.12936102295	1001.75
1056.73269917742	1009.25
1059.33521671154	1014.5
1061.93691408729	1016.5
1064.53779176571	1019
1067.13785020694	1020.5
1069.73708987022	1004.75
1072.33551121386	1016.25
1074.93311469528	1026.75
1077.52990077103	1037.5
1080.12586989674	1060.75
1082.72102252714	1108.25
1085.31535911611	1154.75
1087.90888011663	1148.75
1090.50158598078	1136
1093.09347715979	1118
1095.68455410403	1098.75
1098.27481726296	1064
1100.86426708523	1063.5
1103.45290401857	1062.25
1106.04072850991	1047
1108.6277410053	1071.75
1111.21394194993	1051.75
1113.79933178816	1075.75
1116.3839109635	1069.5
1118.96767991862	1070.75
1121.55063909539	1066.75
1124.13278893477	1049.25
1126.71412987696	1047
1129.29466236132	1049.5
1131.87438682637	1052
1134.45330370982	1041.5
1137.03141344858	1034
1139.60871647872	1034.75
1142.18521323554	1045.5
1144.7609041535	1029.75
1147.33578966629	1048.5
1149.90987020676	1034.5
1152.48314620702	1050.25
1155.05561809835	1036
1157.62728631125	1032
1160.19815127545	1040.5
1162.76821341988	1046
1165.33747317271	1040.25
1167.90593096133	1052.25
1170.47358721235	1039
1173.04044235163	1048.25
1175.60649680425	1059
1178.17175099454	1054.5
1180.73620534607	1067.75
1183.29986028165	1052.25
1185.86271622336	1047
1188.42477359249	1062.25
1190.98603280964	1043.75
1193.54649429462	1053
1196.10615846653	1035.25
1198.66502574372	1056
1201.22309654385	1044
1203.78037128378	1034.25
1206.33685037971	1055
1208.89253424709	1038.25
1211.44742330063	1041.5
1214.00151795438	1037.25
1216.55481862163	1037.25
1219.10732571497	1050.25
1221.65903964631	1054.25
1224.20996082683	1029.25
1226.760089667	1046.75
1229.30942657664	1033
1231.85797196483	1047.25
1234.40572623998	1053.5
1236.95268980981	1048
1239.49886308136	1051.25
1242.04424646098	1056.25
1244.58884035435	1056.25
1247.13264516647	1057.5
1249.67566130166	1075
1252.21788916358	1063.75
1254.75932915524	1071.5
1257.29998167896	1084.25
1259.83984713639	1104
1262.37892592857	1099.75
1264.91721845586	1092.75
1267.45472511795	1123.5
1269.9914463139	1107
1272.52738244213	1154.25
1275.0625339004	1156.5
1277.59690108587	1196
1280.130484395	1218
1282.66328422367	1204.25
1285.19530096712	1213.75
1287.72653501993	1231.5
1290.25698677608	1238.75
1292.78665662894	1231.5
1295.31554497125	1193.5
1297.8436521951	1175.5
1300.37097869203	1149.25
1302.89752485292	1136.5
1305.42329106805	1126.75
1307.94827772713	1126.25
1310.47248521921	1118.5
1312.99591393279	1130
1315.51856425575	1128.75
1318.04043657536	1105.25
1320.56153127836	1123.5
1323.08184875083	1100.5
1325.6013893783	1112.5
1328.12015354572	1118.5
1330.63814163744	1112.5
1333.15535403727	1111.75
1335.67179112839	1113.75
1338.18745329347	1119.25
1340.70234091454	1125.5
1343.21645437314	1118.75
1345.72979405019	1123.25
1348.24236032607	1133.25
1350.75415358059	1111.5
1353.26517419303	1107.5
1355.7754225421	1101.25
1358.28489900594	1114.5
1360.79360396218	1122
1363.30153778787	1132.25
1365.80870085955	1124.75
1368.31509355319	1124.5
1370.82071624424	1124
1373.32556930762	1127.25
1375.8296531177	1110.25
1378.33296804832	1127.5
1380.83551447282	1120.75
1383.33729276399	1125.25
1385.83830329408	1124.75
1388.33854643489	1124
1390.83802255762	1121.75
1393.33673203301	1117.25
1395.83467523128	1098.5
1398.33185252211	1117.25
1400.82826427471	1115.25
1403.32391085777	1113
1405.81879263947	1125
1408.31290998752	1127.25
1410.80626326908	1127
1413.29885285087	1153
1415.79067909909	1136
1418.28174237944	1144.5
1420.77204305717	1126
1423.26158149702	1113.25
1425.75035806323	1108.5
1428.2383731196	1123.75
1430.72562702942	1107.25
1433.21212015554	1133.25
1435.69785286028	1112.5
1438.18282550555	1123
1440.66703845275	1132.75
1443.15049206284	1151.5
1445.6331866963	1134.5
1448.11512271316	1135
1450.59630047298	1139.5
1453.07672033486	1141
1455.55638265748	1135.5
1458.03528779902	1149.75
1460.51343611725	1144.75
1462.99082796946	1144.75
1465.46746371252	1152.25
1467.94334370285	1137.25
1470.41846829642	1128
1472.89283784878	1150.75
1475.36645271503	1141.75
1477.83931324983	1141.25
1480.31141980743	1129
1482.78277274164	1141.5
1485.25337240583	1121.75
1487.72321915297	1143.75
1490.19231333557	1123
1492.66065530578	1132.5
1495.12824541525	1131
1497.5950840153	1145
1500.06117145678	1130.25
1502.52650809014	1134.75
1504.99109426543	1141
1507.45493033227	1129
1509.91801663992	1129.75
1512.38035353717	1126.5
1514.84194137248	1131.75
1517.30278049386	1133.75
1519.76287124894	1138.75
1522.22221398497	1136
1524.68080904876	1129.25
1527.13865678681	1134.25
1529.59575754514	1147.75
1532.05211166945	1141.25
1534.50771950503	1124.25
1536.96258139678	1160.25
1539.41669768924	1135.75
1541.87006872656	1148.25
1544.32269485252	1148.75
1546.77457641051	1158
1549.22571374357	1168
1551.67610719434	1157
1554.12575710513	1163.75
1556.57466381785	1147.5
1559.02282767408	1152.5
1561.47024901499	1171.25
1563.91692818144	1167.5
1566.3628655139	1175.5
1568.80806135249	1170.5
1571.252516037	1166.5
1573.6962299068	1186.5
1576.13920330099	1192.75
1578.58143655828	1204.25
1581.02293001704	1198
1583.46368401528	1200.5
1585.90369889071	1190
1588.34297498065	1202.25
1590.7815126221	1202.5
1593.21931215173	1218.25
1595.65637390588	1227
1598.09269822053	1234.25
1600.52828543135	1287.75
1602.96313587367	1329.75
1605.3972498825	1415.75
1607.83062779252	1533.25
1610.26326993808	1698.75
1612.69517665322	1806
1615.12634827165	1796.75
1617.55678512676	1631.5
1619.98648755163	1430.5
1622.41545587902	1332.75
1624.84369044138	1256
1627.27119157085	1243.5
1629.69795959924	1207.75
1632.12399485808	1197.5
1634.54929767859	1189.75
1636.97386839165	1183
1639.39770732789	1184.25
1641.8208148176	1196.75
1644.24319119078	1201.75
1646.66483677715	1180
1649.0857519061	1170.25
1651.50593690677	1186
1653.92539210795	1191.25
1656.3441178382	1174
1658.76211442575	1179
1661.17938219855	1169.5
1663.59592148428	1183.75
1666.01173261032	1199
1668.42681590377	1212.25
1670.84117169145	1192.25
1673.25480029991	1166.25
1675.66770205541	1196
1678.07987728393	1192.25
1680.49132631119	1205.25
1682.90204946263	1201.75
1685.31204706342	1214.25
1687.72131943846	1193
1690.1298669124	1206.25
1692.53768980957	1214.25
1694.94478845411	1199.75
1697.35116316982	1207
1699.75681428031	1221
1702.16174210887	1214.75
1704.56594697858	1219
1706.96942921222	1219.75
1709.37218913235	1253
1711.77422706125	1263
1714.17554332098	1292
1716.5761382333	1343
1718.97601211977	1382
1721.37516530169	1451.75
1723.77359810006	1533.5
1726.17131083572	1591.5
1728.56830382922	1552.5
1730.96457740087	1466.25
1733.36013187075	1386.5
1735.75496755868	1343
1738.14908478428	1324.25
1740.54248386689	1291.25
1742.93516512565	1267
1745.32712887946	1262.75
1747.71837544697	1227.25
1750.10890514662	1225.25
1752.49871829661	1209.5
1754.88781521492	1221.75
1757.27619621929	1218.75
1759.66386162726	1214.25
1762.05081175612	1211.5
1764.43704692297	1183.5
1766.82256744465	1212.25
1769.20737363782	1207.5
1771.59146581887	1196
1773.97484430405	1207.75
1776.35750940932	1215.5
1778.73946145048	1209
1781.12070074309	1211
1783.50122760249	1232
1785.88104234385	1223.5
1788.26014528209	1213.75
1790.63853673196	1223.25
1793.01621700796	1221.75
1795.39318642443	1216.25
1797.76944529549	1213.25
1800.14499393503	1218.25
1802.51983265681	1206.5
1804.8939617743	1219.75
1807.26738160085	1215
1809.64009244957	1212.75
1812.01209463339	1218.5
1814.38338846504	1223.75
1816.75397425706	1213
1819.12385232181	1224.25
1821.49302297142	1228
1823.86148651789	1226.75
1826.22924327299	1226.25
1828.59629354831	1219.25
1830.96263765526	1230.25
1833.32827590507	1216
1835.69320860877	1229.25
1838.05743607724	1228
1840.42095862113	1227.75
1842.78377655097	1218
1845.14589017707	1223.75
1847.50729980956	1211
1849.86800575843	1217.75
1852.22800833346	1228.75
1854.58730784427	1222.75
1856.94590460032	1212.5
1859.30379891087	1225.75
1861.66099108503	1232.25
1864.01748143175	1241
1866.37327025978	1236
1868.72835787773	1233.25
1871.08274459403	1227.75
1873.43643071697	1244.75
1875.78941655464	1245.5
1878.14170241498	1247
1880.4932886058	1250.25
1882.84417543469	1223.25
1885.19436320915	1242
1887.54385223646	1232.5
1889.89264282378	1248
1892.24073527809	1255
1894.58812990625	1252.75
1896.93482701493	1257.5
1899.28082691067	1263.25
1901.62612989984	1274.5
1903.97073628868	1267.25
1906.31464638326	1272.75
1908.6578604895	1272.25
1911.00037891321	1268
1913.34220196	1281.75
1915.68332993537	1264.75
1918.02376314468	1278.75
1920.36350189311	1269.75
1922.70254648573	1272.25
1925.04089722744	1273.75
1927.37855442303	1275.5
1929.71551837715	1269.75
1932.05178939426	1282
1934.38736777876	1272
1936.72225383484	1287.75
1939.0564478666	1280
1941.38995017799	1270.75
1943.72276107283	1291
1946.05488085479	1282.5
1948.38630982744	1270
1950.71704829419	1283
1953.04709655832	1267
1955.376454923	1296.5
1957.70512369126	1283
1960.03310316599	1290.25
1962.36039364999	1278.25
1964.68699544589	1270.75
1967.01290885622	1281.5
1969.33813418338	1273.5
1971.66267172965	1297.5
1973.98652179718	1286
1976.309684688	1299.25
1978.63216070402	1278.5
1980.95395014705	1289.75
1983.27505331873	1290.25
1985.59547052063	1282
1987.9152020542	1284.5
1990.23424822074	1293.75
1992.55260932146	1293.25
1994.87028565746	1291.25
1997.18727752968	1299.5
1999.503585239	1308.5
2001.81920908618	1311.5
2004.13414937184	1320
2006.44840639651	1320.75
2008.7619804606	1326.25
2011.07487186442	1311.25
2013.38708090815	1324.5
2015.6986078919	1310.25
2018.00945311564	1328.75
2020.31961687923	1318.5
2022.62909948246	1341
2024.93790122498	1343.25
2027.24602240636	1342
2029.55346332604	1357.25
2031.86022428337	1333
2034.16630557761	1338.5
2036.47170750791	1339.75
2038.77643037331	1333.25
2041.08047447275	1342.75
2043.38384010509	1339
2045.68652756907	1371
2047.98853716335	1345.75
2050.28986918648	1333.25
2052.59052393692	1337.25
2054.89050171302	1344
2057.18980281306	1363.75
2059.4884275352	1346.25
2061.78637617753	1355
2064.08364903802	1367
2066.38024641457	1356.25
2068.67616860497	1368.75
2070.97141590694	1362.25
2073.26598861809	1365.75
2075.55988703595	1361.5
2077.85311145796	1356.5
2080.14566218145	1354.25
2082.43753950371	1351.5
2084.72874372188	1346.5
2087.01927513307	1356
2089.30913403428	1365
2091.59832072241	1354
2093.88683549429	1362
2096.17467864666	1352.25
2098.46185047619	1365.25
2100.74835127944	1356.75
2103.03418135292	1374.75
2105.31934099303	1368
2107.6038304961	1381.75
2109.88765015838	1375.5
2112.17080027602	1373.25
2114.45328114513	1368.5
2116.7350930617	1383
2119.01623632165	1384.25
2121.29671122085	1383.5
2123.57651805505	1383.25
2125.85565711996	1395.25
2128.13412871117	1385
2130.41193312424	1411.75
2132.68907065462	1418.25
2134.96554159771	1403
2137.24134624881	1395.75
2139.51648490317	1397.75
2141.79095785593	1399.5
2144.0647654022	1391
2146.33790783698	1418.25
2148.61038545524	1404.25
2150.88219855182	1414.25
2153.15334742154	1413.75
2155.42383235911	1422.5
2157.6936536592	1419.75
2159.9628116164	1394.75
2162.23130652522	1422
2164.49913868011	1433.75
2166.76630837544	1435.25
2169.03281590552	1412.25
2171.2986615646	1437.25
2173.56384564685	1437
2175.82836844637	1430.25
2178.0922302572	1442
2180.35543137332	1414.25
2182.61797208862	1421.25
2184.87985269695	1450.5
2187.14107349208	1437.5
2189.40163476773	1422.25
2191.66153681753	1427.5
2193.92077993507	1449.75
2196.17936441386	1444.25
2198.43729054735	1447.5
2200.69455862894	1451.75
2202.95116895194	1445.5
2205.20712180962	1428.25
2207.46241749519	1432.25
2209.71705630179	1450
2211.97103852248	1455
2214.2243644503	1454.5
2216.47703437819	1456.5
2218.72904859905	1456.25
2220.98040740571	1442.75
2223.23111109095	1460.75
2225.4811599475	1436.5
2227.73055426799	1459.5
2229.97929434504	1464
2232.22738047118	1446
2234.47481293889	1445.75
2236.72159204058	1475.75
2238.96771806864	1479.75
2241.21319131536	1469.75
2243.458012073	1459.5
2245.70218063374	1460
2247.94569728973	1475.75
2250.18856233304	1472.25
2252.4307760557	1458.75
2254.67233874967	1459.25
2256.91325070687	1482
2259.15351221915	1477.75
2261.39312357831	1457.75
2263.63208507611	1490.25
2265.87039700422	1478.25
2268.1080596543	1479.75
2270.34507331792	1487.75
2272.5814382866	1456.5
2274.81715485183	1493.25
2277.05222330502	1493.5
2279.28664393755	1488.5
2281.52041704072	1473.75
2283.75354290581	1510.75
2285.98602182401	1487.5
2288.21785408648	1494.75
2290.44903998434	1489.25
2292.67957980862	1474.25
2294.90947385033	1494.25
2297.1387224004	1523.75
2299.36732574975	1501.5
2301.59528418921	1479.25
2303.82259800958	1482
2306.04926750158	1499
2308.27529295593	1495
2310.50067466325	1509
2312.72541291412	1506.25
2314.9495079991	1521.25
2317.17296020866	1513.75
2319.39576983323	1508
2321.61793716322	1507
2323.83946248894	1517.25
2326.06034610069	1507
2328.28058828871	1542.25
2330.50018934317	1522.25
2332.7191495542	1532
2334.93746921192	1514.75
2337.15514860633	1526.5
2339.37218802743	1514.25
2341.58858776516	1538
2343.80434810941	1531.75
2346.01946935001	1539.75
2348.23395177675	1513.75
2350.44779567939	1520.25
2352.66100134759	1534.25
2354.87356907101	1528.5
2357.08549913925	1528
2359.29679184185	1524.25
2361.50744746829	1529.5
2363.71746630804	1547.5
2365.92684865048	1516.5
2368.13559478499	1535
2370.34370500083	1536.5
2372.55117958727	1534.75
2374.75801883352	1532
2376.96422302874	1540.25
2379.16979246202	1533.25
2381.37472742243	1530.75
2383.57902819898	1532.25
2385.78269508063	1525.25
2387.98572835629	1527.5
2390.18812831482	1529.75
2392.38989524505	1528.5
2394.59102943573	1513
2396.79153117559	1531
2398.9914007533	1529.5
2401.19063845748	1526.75
2403.38924457672	1526.5
2405.58721939951	1520.5
2407.78456321435	1542.75
2409.98127630966	1518.5
2412.17735897382	1543.25
2414.37281149517	1533.75
2416.56763416198	1535.5
2418.76182726249	1535.5
2420.95539108487	1538.25
2423.14832591726	1545.75
2425.34063204776	1532.25
2427.53230976439	1533
2429.72335935513	1540.5
2431.91378110795	1541.25
2434.10357531071	1550.5
2436.29274225125	1541
2438.48128221739	1515.75
2440.66919549683	1531.25
2442.8564823773	1534.75
2445.04314314641	1535.25
2447.22917809176	1547.5
2449.4145875009	1538.25
2451.59937166131	1532.25
2453.78353086044	1535.5
2455.96706538568	1554.25
2458.14997552436	1533.75
2460.33226156379	1524.75
2462.51392379119	1525
2464.69496249376	1538
2466.87537795862	1523.75
2469.05517047288	1530.5
2471.23434032357	1539.5
2473.41288779767	1538
2475.59081318211	1536.75
2477.76811676378	1540.75
2479.9447988295	1517
2482.12085966605	1514.5
2484.29629956016	1523.5
2486.4711187985	1546.75
2488.64531766769	1526
2490.8188964543	1534
2492.99185544484	1541.75
2495.16419492579	1532.5
2497.33591518353	1539
2499.50701650444	1542
2501.67749917482	1538.75
2503.84736348091	1537.25
2506.01660970891	1549.75
2508.18523814496	1535
2510.35324907514	1551.5
2512.52064278551	1564
2514.68741956201	1574.5
2516.85357969058	1546
2519.01912345709	1550.75
2521.18405114735	1547.5
2523.34836304711	1544.5
2525.51205944208	1565.25
2527.6751406179	1558.25
2529.83760686016	1577.5
2531.99945845439	1552.25
2534.16069568606	1555.5
2536.3213188406	1574.5
2538.48132820336	1565.25
2540.64072405965	1560.75
2542.79950669471	1557.25
2544.95767639373	1573.5
2547.11523344184	1562
2549.27217812411	1573
2551.42851072555	1576.25
2553.58423153111	1569.75
2555.73934082569	1560.5
2557.89383889412	1571.25
2560.04772602118	1570.75
2562.20100249158	1565.5
2564.35366858996	1553.75
2566.50572460093	1565
2568.65717080901	1561
2570.80800749867	1568.25
2572.95823495433	1574.75
2575.10785346031	1583
2577.25686330093	1566.75
2579.40526476038	1541.25
2581.55305812282	1571.5
2583.70024367237	1544.25
2585.84682169303	1551.5
2587.99279246879	1539
2590.13815628354	1536.75
2592.28291342112	1551.75
2594.42706416531	1556.5
2596.5706087998	1559.5
2598.71354760826	1552.75
2600.85588087425	1555
2602.99760888127	1552.75
2605.13873191278	1546.5
2607.27925025214	1571.25
2609.41916418269	1550
2611.55847398764	1537.5
2613.69717995017	1568.75
2615.83528235339	1551.5
2617.97278148034	1562.5
2620.10967761398	1572.5
2622.2459710372	1581.5
2624.38166203284	1591
2626.51675088365	1576.5
2628.65123787231	1552.75
2630.78512328145	1563.25
2632.9184073936	1569.25
2635.05109049124	1560.5
2637.18317285676	1563.25
2639.31465477248	1565.75
2641.44553652067	1586.75
2643.5758183835	1569.25
2645.70550064309	1597.5
2647.83458358144	1560.25
2649.96306748053	1580.25
2652.09095262223	1577.25
2654.21823928836	1579.25
2656.34492776063	1576
2658.47101832071	1578.75
2660.59651125015	1574.25
2662.72140683047	1581
2664.84570534309	1574
2666.96940706934	1570.75
2669.0925122905	1559
2671.21502128773	1580
2673.33693434215	1584
2675.45825173479	1587.25
2677.57897374658	1591.75
2679.69910065839	1580
2681.818632751	1585.25
2683.93757030511	1572
2686.05591360133	1568.25
2688.17366292021	1582.25
2690.29081854218	1603
2692.40738074762	1570.5
2694.52334981681	1582
2696.63872602995	1569.75
2698.75350966713	1601
2700.86770100841	1574
2702.98130033371	1576
2705.09430792289	1592.25
2707.20672405571	1569.5
2709.31854901185	1589
2711.42978307091	1581.75
2713.54042651238	1590.5
2715.65047961567	1587.25
2717.7599426601	1597.75
2719.86881592491	1591.75
2721.97709968924	1585.25
2724.08479423213	1581.25
2726.19189983255	1591.25
2728.29841676934	1578
2730.4043453213	1595
2732.5096857671	1576.25
2734.61443838532	1601.75
2736.71860345444	1575.5
2738.82218125286	1583
2740.92517205889	1598.5
2743.02757615072	1602.75
2745.12939380646	1580.25
2747.23062530411	1599
2749.33127092159	1615
2751.4313309367	1604.5
2753.53080562716	1623.5
2755.62969527058	1608.25
2757.72800014448	1589
2759.82572052625	1619.75
2761.92285669323	1606.5
2764.0194089226	1620.5
2766.11537749147	1605
2768.21076267686	1621.25
2770.30556475566	1602.5
2772.39978400465	1604.5
2774.49342070054	1596.75
2776.58647511991	1620.25
2778.67894753923	1607.25
2780.77083823487	1613.75
2782.8621474831	1595.75
2784.95287556007	1621.5
2787.04302274184	1613.25
2789.13258930433	1633.25
2791.22157552338	1605
2793.30998167471	1611.5
2795.39780803392	1613.75
2797.4850548765	1620.75
2799.57172247786	1599.75
2801.65781111324	1612.5
2803.74332105781	1624.5
2805.82825258661	1627
2807.91260597457	1627.75
2809.9963814965	1600.75
2812.07957942711	1642.25
2814.16220004096	1609.5
2816.24424361252	1632.5
2818.32571041614	1627
2820.40660072604	1613.25
2822.48691481631	1630.25
2824.56665296098	1607.75
2826.64581543388	1633.5
2828.72440250876	1634.25
2830.80241445925	1628
2832.87985155885	1617.25
2834.95671408093	1634.5
2837.03300229875	1634.75
2839.10871648544	1628.75
2841.18385691399	1637.25
2843.25842385729	1634
2845.33241758808	1638.25
2847.40583837898	1650.5
2849.4786865025	1638
2851.550962231	1662.75
2853.6226658367	1641.5
2855.69379759173	1656.25
2857.76435776806	1658.5
2859.83434663753	1659.5
2861.90376447184	1652
2863.97261154259	1667.25
2866.0408881212	1654
2868.10859447901	1664.25
2870.17573088717	1671.25
2872.24229761673	1668.25
2874.30829493859	1673.5
2876.37372312352	1663.5
2878.43858244215	1662.75
2880.50287316496	1679.75
2882.56659556231	1657.75
2884.62974990439	1689.75
2886.69233646129	1693.25
2888.75435550293	1671.25
2890.81580729909	1671.5
2892.87669211941	1681.5
2894.93701023339	1672.25
2896.99676191039	1684.25
2899.05594741961	1694.75
2901.1145670301	1698
2903.1726210108	1665.5
2905.23010963045	1696.5
2907.28703315768	1713.5
2909.34339186096	1710
2911.39918600861	1700.75
2913.45441586879	1702.25
2915.50908170952	1687.75
2917.56318379867	1707.25
2919.61672240395	1689.75
2921.66969779291	1684.5
2923.72211023295	1691.5
2925.77395999134	1690.75
2927.82524733515	1711.75
2929.87597253132	1698.25
2931.92613584663	1704.25
2933.97573754769	1706
2936.02477790097	1691.75
2938.07325717276	1673.5
2940.1211756292	1701.25
2942.16853353626	1692.5
2944.21533115976	1703.75
2946.26156876536	1688.25
2948.30724661853	1723.75
2950.3523649846	1720.5
2952.39692412872	1723.5
2954.44092431587	1713.75
2956.48436581089	1728
2958.52724887843	1734.75
2960.56957378296	1731.75
2962.6113407888	1759.5
2964.65255016011	1733.25
2966.69320216083	1729
2968.73329705479	1748
2970.77283510559	1738
2972.81181657671	1742.25
2974.8502417314	1722.75
2976.88811083279	1724
2978.92542414378	1724.5
2980.96218192713	1721
2982.99838444541	1740.25
2985.034031961	1734
2987.06912473612	1737.5
2989.1036630328	1715.5
2991.13764711288	1744.5
2993.17107723804	1736.25
2995.20395366974	1734.25
2997.23627666931	1735.5
2999.26804649782	1742.5
3001.29926341624	1764.75
3003.32992768528	1748.5
3005.3600395655	1743.75
3007.38959931726	1751.75
3009.41860720076	1749.25
3011.44706347595	1760.25
3013.47496840263	1740.25
3015.50232224041	1745.25
3017.5291252487	1761.25
3019.5553776867	1731.75
3021.58107981344	1739.5
3023.60623188773	1758.25
3025.63083416822	1754
3027.65488691331	1774.25
3029.67839038125	1757.5
3031.70134483007	1754.75
3033.72375051759	1762.25
3035.74560770144	1765
3037.76691663907	1734
3039.78767758768	1778.5
3041.80789080431	1771
3043.82755654577	1752.25
3045.84667506867	1773.25
3047.8652466294	1773
3049.88327148418	1771.25
3051.90074988899	1750.25
3053.91768209961	1793.5
3055.9340683716	1762.25
3057.94990896033	1787.25
3059.96520412095	1789.75
3061.97995410838	1795.5
3063.99415917734	1831.5
3066.00781958234	1841
3068.02093557766	1835.25
3070.03350741738	1849.75
3072.04553535535	1842
3074.05701964521	1857.25
3076.06796054036	1865
3078.078358294	1901.5
3080.08821315912	1939.5
3082.09752538846	1938.5
3084.10629523454	1898.5
3086.11452294967	1871
3088.12220878592	1857.75
3090.12935299515	1820
3092.13595582898	1817.25
3094.1420175388	1812.5
3096.14753837579	1794
3098.15251859088	1808.25
3100.15695843477	1799.75
3102.16085815793	1808.25
3104.16421801061	1785.75
3106.16703824282	1773.5
3108.16931910432	1778.5
3110.17106084464	1778.75
3112.17226371308	1781
3114.17292795872	1780.5
3116.17305383034	1788.25
3118.17264157657	1799.25
3120.17169144571	1790
3122.17020368587	1772
3124.16817854492	1796
3126.16561627044	1784
3128.16251710982	1796.75
3130.15888131017	1786.5
3132.15470911837	1798.75
3134.15000078104	1823.25
3136.14475654455	1802.5
3138.13897665502	1817.25
3140.13266135835	1805.75
3142.12581090014	1771.75
3144.11842552577	1815.75
3146.11050548036	1808.75
3148.10205100875	1832
3150.09306235557	1846.5
3152.08353976515	1801
3154.07348348158	1792.75
3156.06289374869	1836
3158.05177081006	1810
3160.04011490899	1823.25
3162.02792628852	1826.25
3164.01520519145	1817.75
3166.00195186029	1803.25
3167.98816653728	1807
3169.97384946442	1816.5
3171.95900088344	1824.5
3173.94362103577	1813.25
3175.92771016259	1818.25
3177.91126850484	1831.75
3179.89429630312	1832.75
3181.87679379782	1805.25
3183.85876122903	1834
3185.84019883657	1817.5
3187.82110685997	1840.75
3189.80148553851	1819.25
3191.78133511116	1854.75
3193.76065581664	1842
3195.73944789337	1823.75
3197.7177115795	1842.25
3199.6954471129	1843.25
3201.67265473114	1839.75
3203.64933467153	1837
3205.62548717107	1843
3207.60111246648	1836
3209.57621079421	1824.5
3211.55078239041	1859.25
3213.52482749093	1839.75
3215.49834633133	1858.25
3217.4713391469	1847.75
3219.44380617262	1849.5
3221.41574764317	1867
3223.38716379296	1851.25
3225.35805485607	1856.75
3227.32842106631	1886
3229.29826265718	1897.25
3231.26757986187	1869.25
3233.2363729133	1893.25
3235.20464204405	1900.5
3237.17238748643	1883
3239.13960947243	1888
3241.10630823374	1889.5
3243.07248400174	1875.25
3245.03813700748	1911
3247.00326748177	1890
3248.96787565503	1889.5
3250.93196175742	1893.25
3252.89552601877	1908.25
3254.8585686686	1868
3256.82108993612	1910
3258.78309005022	1893
3260.74456923948	1886.25
3262.70552773215	1906.25
3264.66596575617	1893.5
3266.62588353916	1917.5
3268.58528130843	1872.25
3270.54415929094	1901.5
3272.50251771336	1910
3274.46035680201	1899.75
3276.4176767829	1901.25
3278.37447788171	1901.5
3280.33076032379	1896.75
3282.28652433416	1891.5
3284.24177013751	1916
3286.1964979582	1906.5
3288.15070802027	1900.5
3290.10440054741	1906.75
3292.05757576298	1910
3294.01023389001	1931.75
3295.96237515119	1919
3297.91399976887	1919.25
3299.86510796506	1899.5
3301.81569996142	1901.75
3303.76577597932	1906.25
3305.7153362397	1904.75
3307.66438096324	1901
3309.61291037024	1901
3311.56092468064	1916.5
3313.50842411404	1891
3315.45540888971	1903.75
3317.40187922656	1920.25
3319.34783534315	1895
3321.29327745768	1913.75
3323.23820578801	1926.5
3325.18262055164	1912.5
3327.1265219657	1906.25
3329.06991024699	1949
3331.01278561194	1907
3332.95514827662	1916.25
3334.89699845674	1910.25
3336.83833636766	1900.75
3338.77916222434	1896.25
3340.71947624143	1916.25
3342.65927863317	1900.25
3344.59856961346	1914.25
3346.53734939584	1947
3348.47561819344	1916.25
3350.41337621906	1895.25
3352.35062368513	1919.75
3354.28736080368	1898.25
3356.22358778637	1907.5
3358.15930484452	1891.75
3360.09451218904	1911.25
3362.02921003047	1889.75
3363.96339857898	1909.5
3365.89707804436	1904
3367.83024863602	1909.25
3369.76291056299	1921.75
3371.69506403389	1907
3373.62670925699	1928
3375.55784644016	1932
3377.4884757909	1929.5
3379.41859751629	1925.25
3381.34821182305	1939.5
3383.27731891749	1925.75
3385.20591900555	1918
3387.13401229276	1961.25
3389.06159898426	1954.25
3390.9886792848	1956.5
3392.91525339872	1935.25
3394.84132152998	1942.5
3396.76688388213	1936.25
3398.69194065833	1927.25
3400.61649206133	1942.5
3402.54053829348	1964.25
3404.46407955672	1944.25
3406.3871160526	1958.5
3408.30964798225	1937.25
3410.23167554639	1938
3412.15319894535	1963
3414.07421837904	1952.25
3415.99473404695	1956
3417.91474614817	1967.25
3419.83425488136	1958.25
3421.75326044479	1975
3423.67176303631	1954.25
3425.58976285332	1957.75
3427.50726009282	1972.5
3429.42425495143	1952.5
3431.34074762528	1986.5
3433.25673831012	1974.75
3435.17222720127	1954
3437.08721449362	1956.25
3439.00170038164	1939
3440.91568505936	1969.25
3442.82916872039	1965.25
3444.74215155791	1945.75
3446.65463376468	1934.25
3448.566615533	1967
3450.47809705476	1952.5
3452.3890785214	1958.25
3454.29956012393	1961
3456.20954205293	1963.25
3458.11902449853	1980
3460.02800765041	1947.75
3461.93649169784	1971
3463.84447682962	1947.5
3465.75196323412	1954.25
3467.65895109925	1951.5
3469.56544061249	1955.5
3471.47143196086	1941.75
3473.37692533093	1937
3475.28192090884	1958.5
3477.18641888026	1955.5
3479.09041943039	1938.25
3480.99392274402	1954.25
3482.89692900545	1922
3484.79943839853	1971.75
3486.70145110666	1964
3488.60296731277	1952
3490.50398719933	1950.5
3492.40451094836	1941.75
3494.30453874141	1946
3496.20407075956	1970.75
3498.10310718342	1971.5
3500.00164819315	1942.75