201.866871357051	967.400024414062
204.754250281454	966.900024414062
207.640596790938	971.799987792969
210.525911876299	972.400024414062
213.410196525689	964.799987792969
216.293451724508	964.5
219.175678455485	978.799987792969
222.056877698662	968.700012207031
224.937050431388	960.200012207031
227.816197628363	980
230.694320261602	977.299987792969
233.571419300504	984.400024414062
236.447495711764	982.099975585938
239.322550459507	982.799987792969
242.196584505182	991.599975585938
245.069598807626	1004.09997558594
247.941594323078	995.5
250.812572005154	996.799987792969
253.682532804884	998.799987792969
256.551477670699	998.200012207031
259.419407548456	1003.29998779297
262.286323381439	1002.09997558594
265.152226110364	999.5
268.017116673389	998.700012207031
270.880996006115	993
273.743865041622	986.099975585938
276.605724710436	985.700012207031
279.466575940562	995.299987792969
282.326419657496	996.900024414062
285.1852567842	999.5
288.043088241157	989.400024414062
290.899914946349	992.799987792969
293.75573781526	991.799987792969
296.610557760898	999.700012207031
299.464375693817	992.099975585938
302.317192522078	1000.29998779297
305.169009151297	998.599975585938
308.019826484655	1000.20001220703
310.86964542287	994.299987792969
313.718466864233	997.900024414062
316.566291704614	1003.40002441406
319.413120837457	1001
322.258955153804	1000.09997558594
325.103795542291	992.5
327.947642889128	1003
330.79049807819	1011.70001220703
333.632361990927	1009.29998779297
336.473235506444	1008
339.31311950145	1009.40002441406
342.152014850322	1011.40002441406
344.989922425062	1004.59997558594
347.826843095354	1006.40002441406
350.662777728528	1013.70001220703
353.497727189577	1014.20001220703
356.331692341195	1024.09997558594
359.164674043732	1023.5
361.996673155267	1016.59997558594
364.827690531536	1020.90002441406
367.65772702602	1009.90002441406
370.486783489887	1021.29998779297
373.314860772047	1032.69995117188
376.14195971912	1031.19995117188
378.968081175466	1023
381.793225983212	1034.90002441406
384.617394982201	1029.59997558594
387.44058901005	1045.90002441406
390.262808902131	1047.90002441406
393.08405549161	1063.69995117188
395.904329609395	1073.90002441406
398.723632084213	1074.80004882812
401.541963742569	1076.40002441406
404.359325408779	1061
407.175717904938	1056.09997558594
409.991142050982	1041.40002441406
412.805598664665	1048
415.619088561551	1052.19995117188
418.43161255505	1043.19995117188
421.243171456415	1037.30004882812
424.053766074758	1052.09997558594
426.863397217017	1063
429.672065688024	1038
432.479772290455	1047
435.286517824879	1051.09997558594
438.092303089736	1051.09997558594
440.897128881359	1063.80004882812
443.70099599399	1059
446.503905219761	1071.90002441406
449.305857348711	1078.30004882812
452.106853168796	1068.40002441406
454.906893465919	1070.30004882812
457.705979023885	1074.59997558594
460.504110624439	1078.59997558594
463.3012890473	1060.19995117188
466.097515070087	1063.80004882812
468.892789468424	1056.69995117188
471.687113015869	1063.19995117188
474.48048648395	1056.40002441406
477.272910642198	1049.90002441406
480.064386258109	1064.90002441406
482.854914097159	1055.19995117188
485.644494922839	1060.69995117188
488.433129496636	1052
491.220818578047	1063.59997558594
494.007562924584	1067.40002441406
496.793363291785	1075
499.578220433217	1069.80004882812
502.362135100473	1088.09997558594
505.145108043209	1075.5
507.927140009098	1082.19995117188
510.708231743909	1080
513.488383991433	1073.69995117188
516.267597493556	1089.5
519.04587299022	1078.09997558594
521.82321121946	1084.80004882812
524.599612917398	1088.30004882812
527.375078818233	1096.40002441406
530.149609654287	1097.30004882812
532.923206155967	1099.40002441406
535.695869051804	1091.80004882812
538.467599068448	1094.80004882812
541.238396930665	1085.19995117188
544.008263361364	1085.40002441406
546.777199081578	1076.80004882812
549.545204810493	1085.5
552.312281265436	1078
555.078429161898	1079.5
557.843649213533	1082.30004882812
560.607942132156	1073.69995117188
563.371308627753	1079.09997558594
566.133749408495	1081.40002441406
568.895265180756	1083.90002441406
571.655856649064	1078.09997558594
574.415524516189	1100.30004882812
577.174269483075	1091.19995117188
579.932092248884	1090.30004882812
582.688993510994	1102.19995117188
585.444973965023	1103.5
588.200034304795	1112
590.95417522237	1102.40002441406
593.70739740807	1114.30004882812
596.459701550433	1110.59997558594
599.21108833628	1103.59997558594
601.961558450668	1110.90002441406
604.711112576933	1100.5
607.459751396673	1095.59997558594
610.207475589748	1097.90002441406
612.954285834338	1102.59997558594
615.700182806879	1093
618.445167182101	1100.69995117188
621.189239633055	1099
623.932400831087	1094.30004882812
626.674651445839	1104.59997558594
629.415992145303	1098.90002441406
632.156423595745	1094.30004882812
634.895946461813	1099.69995117188
637.634561406449	1096.59997558594
640.37226909096	1111
643.109070174978	1098.40002441406
645.844965316508	1107.30004882812
648.579955171888	1105.40002441406
651.314040395846	1112.59997558594
654.047221641456	1102.59997558594
656.779499560176	1119.90002441406
659.510874801828	1128.80004882812
662.241348014642	1122.30004882812
664.97091984524	1111
667.699590938606	1118.80004882812
670.427361938164	1110.59997558594
673.15423348573	1117.80004882812
675.880206221526	1124.09997558594
678.605280784206	1126.59997558594
681.329457810829	1128.30004882812
684.05273793692	1122.19995117188
686.775121796389	1134
689.49661002163	1119.30004882812
692.217203243454	1124.09997558594
694.936902091144	1120.5
697.655707192425	1113.90002441406
700.373619173493	1115
703.09063865901	1119.69995117188
705.806766272093	1120.40002441406
708.522002634378	1129.80004882812
711.236348365946	1130.19995117188
713.94980408538	1130.40002441406
716.662370409762	1117.90002441406
719.374047954676	1121.40002441406
722.08483733419	1131.19995117188
724.794739160909	1127.80004882812
727.503754045949	1127.40002441406
730.21188259892	1132.90002441406
732.919125427998	1123.69995117188
735.625483139855	1128
738.330956339723	1142.5
741.035545631374	1143.5
743.739251617106	1130.69995117188
746.44207489779	1138.80004882812
749.144016072852	1143.90002441406
751.845075740272	1148
754.545254496603	1142.69995117188
757.244552936976	1147.59997558594
759.94297165508	1141.80004882812
762.640511243222	1151.59997558594
765.337172292249	1145.30004882812
768.032955391649	1148.90002441406
770.727861129482	1154.30004882812
773.421890092413	1154.59997558594
776.11504286572	1147.30004882812
778.807320033298	1144.69995117188
781.49872217765	1147.90002441406
784.18924987991	1150.09997558594
786.87890371984	1147
789.567684275826	1150.69995117188
792.255592124908	1158.80004882812
794.94262784276	1159.19995117188
797.628792003703	1168.19995117188
800.314085180715	1175
802.998507945427	1197.09997558594
805.682060868145	1245.5
808.364744517821	1265.40002441406
811.046559462105	1250.30004882812
813.727506267311	1224.19995117188
816.407585498422	1196.5
819.08679771913	1175.69995117188
821.765143491822	1177.19995117188
824.442623377563	1183.5
827.119237936127	1195.09997558594
829.794987726003	1175.80004882812
832.469873304377	1186.80004882812
835.143895227167	1196.30004882812
837.817054048985	1205.80004882812
840.489350323205	1205.19995117188
843.160784601892	1204.69995117188
845.831357435894	1199.69995117188
848.501069374739	1174.90002441406
851.169920966753	1178.09997558594
853.837912758987	1179.80004882812
856.505045297232	1186
859.171319126071	1180.59997558594
861.836734788823	1176.09997558594
864.501292827579	1180.09997558594
867.164993783208	1173.59997558594
869.827838195361	1177.30004882812
872.489826602454	1175.09997558594
875.150959541701	1179.30004882812
877.811237549104	1169.40002441406
880.470661159456	1176.19995117188
883.129230906357	1166.69995117188
885.786947322205	1164.69995117188
888.443810938206	1171.90002441406
891.099822284385	1176.90002441406
893.754981889586	1179.09997558594
896.409290281452	1177.90002441406
899.062747986485	1183.80004882812
901.715355529999	1188.30004882812
904.367113436154	1176.19995117188
907.01802222793	1182.80004882812
909.668082427172	1174.80004882812
912.317294554574	1191.80004882812
914.965659129659	1194.30004882812
917.613176670835	1193.69995117188
920.259847695364	1196.19995117188
922.90567271936	1200.09997558594
925.550652257825	1188.59997558594
928.194786824621	1190.09997558594
930.838076932512	1200.19995117188
933.480523093109	1198
936.122125816953	1207.40002441406
938.762885613447	1202.30004882812
941.402802990899	1210.30004882812
944.041878456523	1211.09997558594
946.680112516428	1200.59997558594
949.31750567563	1187.69995117188
951.954058438081	1211.40002441406
954.589771306633	1202.19995117188
957.224644783048	1207
959.858679368044	1200.80004882812
962.491875561238	1200.09997558594
965.12423386121	1218.30004882812
967.75575476545	1235.19995117188
970.386438770423	1244.59997558594
973.016286371501	1252.59997558594
975.645298063046	1237.19995117188
978.273474338355	1221.09997558594
980.900815689674	1208.69995117188
983.527322608243	1197.09997558594
986.152995584245	1195.59997558594
988.777835106834	1210.59997558594
991.401841664148	1195.80004882812
994.025015743307	1206.80004882812
996.647357830407	1203.59997558594
999.268868410534	1201.80004882812
1001.88954796777	1201.59997558594
1004.50939698518	1198.09997558594
1007.12841594484	1207.5
1009.74660532783	1201.59997558594
1012.36396561423	1211.90002441406
1014.98049728314	1202
1017.59620081267	1209.69995117188
1020.21107667995	1210.40002441406
1022.82512536112	1204.40002441406
1025.43834733138	1211
1028.05074306493	1221.90002441406
1030.66231303501	1211.80004882812
1033.27305771392	1229.40002441406
1035.88297757299	1228.80004882812
1038.49207308257	1222.09997558594
1041.10034471211	1219.30004882812
1043.70779293008	1215.80004882812
1046.31441820402	1215.19995117188
1048.92022100052	1223
1051.52520178525	1227.69995117188
1054.12936102295	1229.19995117188
1056.73269917742	1231.69995117188
1059.33521671154	1227.69995117188
1061.93691408729	1222.40002441406
1064.53779176571	1220.90002441406
1067.13785020694	1223.09997558594
1069.73708987022	1213.5
1072.33551121386	1222.19995117188
1074.93311469528	1211.69995117188
1077.52990077103	1214.5
1080.12586989674	1218.40002441406
1082.72102252714	1229.40002441406
1085.31535911611	1232.69995117188
1087.90888011663	1227.19995117188
1090.50158598078	1222.19995117188
1093.09347715979	1221.40002441406
1095.68455410403	1220.5
1098.27481726296	1225.5
1100.86426708523	1223.19995117188
1103.45290401857	1233.80004882812
1106.04072850991	1221.80004882812
1108.6277410053	1230
1111.21394194993	1225.90002441406
1113.79933178816	1223.80004882812
1116.3839109635	1230.69995117188
1118.96767991862	1226.59997558594
1121.55063909539	1229.69995117188
1124.13278893477	1230.5
1126.71412987696	1239.5
1129.29466236132	1231.69995117188
1131.87438682637	1249.80004882812
1134.45330370982	1248.19995117188
1137.03141344858	1251.40002441406
1139.60871647872	1258.5
1142.18521323554	1262
1144.7609041535	1270.80004882812
1147.33578966629	1272
1149.90987020676	1288.80004882812
1152.48314620702	1284.90002441406
1155.05561809835	1289.5
1157.62728631125	1294.19995117188
1160.19815127545	1293.40002441406
1162.76821341988	1306.69995117188
1165.33747317271	1318.40002441406
1167.90593096133	1319.5
1170.47358721235	1290.5
1173.04044235163	1291.5
1175.60649680425	1278.90002441406
1178.17175099454	1268.19995117188
1180.73620534607	1261.40002441406
1183.29986028165	1245.80004882812
1185.86271622336	1255
1188.42477359249	1240
1190.98603280964	1253.5
1193.54649429462	1241.5
1196.10615846653	1236.90002441406
1198.66502574372	1240
1201.22309654385	1237.90002441406
1203.78037128378	1229.90002441406
1206.33685037971	1249.30004882812
1208.89253424709	1233.69995117188
1211.44742330063	1240.90002441406
1214.00151795438	1252.5
1216.55481862163	1244.40002441406
1219.10732571497	1263.19995117188
1221.65903964631	1256.90002441406
1224.20996082683	1242.40002441406
1226.760089667	1242.30004882812
1229.30942657664	1243.90002441406
1231.85797196483	1251.69995117188
1234.40572623998	1242.80004882812
1236.95268980981	1248.59997558594
1239.49886308136	1258.40002441406
1242.04424646098	1264.59997558594
1244.58884035435	1281.5
1247.13264516647	1309.40002441406
1249.67566130166	1329.09997558594
1252.21788916358	1330.40002441406
1254.75932915524	1345.69995117188
1257.29998167896	1316.5
1259.83984713639	1298.40002441406
1262.37892592857	1276.30004882812
1264.91721845586	1267
1267.45472511795	1275.69995117188
1269.9914463139	1266.19995117188
1272.52738244213	1271.19995117188
1275.0625339004	1268.69995117188
1277.59690108587	1270.19995117188
1280.130484395	1281.30004882812
1282.66328422367	1279.30004882812
1285.19530096712	1280.5
1287.72653501993	1301.30004882812
1290.25698677608	1282.80004882812
1292.78665662894	1294.69995117188
1295.31554497125	1288
1297.8436521951	1285.30004882812
1300.37097869203	1294.09997558594
1302.89752485292	1297.19995117188
1305.42329106805	1287.80004882812
1307.94827772713	1293.09997558594
1310.47248521921	1284.80004882812
1312.99591393279	1294.30004882812
1315.51856425575	1300.80004882812
1318.04043657536	1296.40002441406
1320.56153127836	1304.59997558594
1323.08184875083	1320.69995117188
1325.6013893783	1342.59997558594
1328.12015354572	1346.90002441406
1330.63814163744	1353.09997558594
1333.15535403727	1340.19995117188
1335.67179112839	1345.69995117188
1338.18745329347	1331.5
1340.70234091454	1330.40002441406
1343.21645437314	1309.09997558594
1345.72979405019	1319.80004882812
1348.24236032607	1324.90002441406
1350.75415358059	1317.19995117188
1353.26517419303	1320.80004882812
1355.7754225421	1325.80004882812
1358.28489900594	1329.69995117188
1360.79360396218	1333
1363.30153778787	1332.90002441406
1365.80870085955	1320.80004882812
1368.31509355319	1317.90002441406
1370.82071624424	1320
1373.32556930762	1314
1375.8296531177	1307.40002441406
1378.33296804832	1320.30004882812
1380.83551447282	1321
1383.33729276399	1315.40002441406
1385.83830329408	1321.90002441406
1388.33854643489	1312.09997558594
1390.83802255762	1336.09997558594
1393.33673203301	1333.09997558594
1395.83467523128	1342.80004882812
1398.33185252211	1338.40002441406
1400.82826427471	1344.19995117188
1403.32391085777	1322.5
1405.81879263947	1315.90002441406
1408.31290998752	1304.09997558594
1410.80626326908	1285.69995117188
1413.29885285087	1297.69995117188
1415.79067909909	1289.59997558594
1418.28174237944	1280.40002441406
1420.77204305717	1294.09997558594
1423.26158149702	1277.40002441406
1425.75035806323	1297
1428.2383731196	1291.30004882812
1430.72562702942	1310.69995117188
1433.21212015554	1317.90002441406
1435.69785286028	1338
1438.18282550555	1331.80004882812
1440.66703845275	1334.19995117188
1443.15049206284	1334.40002441406
1445.6331866963	1349.30004882812
1448.11512271316	1370
1450.59630047298	1378.80004882812
1453.07672033486	1387.30004882812
1455.55638265748	1388.59997558594
1458.03528779902	1386.80004882812
1460.51343611725	1397.80004882812
1462.99082796946	1370.19995117188
1465.46746371252	1350.59997558594
1467.94334370285	1342
1470.41846829642	1327.5
1472.89283784878	1326.5
1475.36645271503	1320.40002441406
1477.83931324983	1321.30004882812
1480.31141980743	1315.5
1482.78277274164	1325
1485.25337240583	1311.40002441406
1487.72321915297	1307.09997558594
1490.19231333557	1315.90002441406
1492.66065530578	1312.59997558594
1495.12824541525	1315.09997558594
1497.5950840153	1316.69995117188
1500.06117145678	1300.40002441406
1502.52650809014	1309.59997558594
1504.99109426543	1305.30004882812
1507.45493033227	1300.40002441406
1509.91801663992	1305.59997558594
1512.38035353717	1327.09997558594
1514.84194137248	1304.80004882812
1517.30278049386	1330.09997558594
1519.76287124894	1343.80004882812
1522.22221398497	1344.59997558594
1524.68080904876	1357.40002441406
1527.13865678681	1363.30004882812
1529.59575754514	1348.19995117188
1532.05211166945	1352.80004882812
1534.50771950503	1332.69995117188
1536.96258139678	1336.40002441406
1539.41669768924	1331.5
1541.87006872656	1337.90002441406
1544.32269485252	1336.69995117188
1546.77457641051	1347.40002441406
1549.22571374357	1347.90002441406
1551.67610719434	1341.59997558594
1554.12575710513	1337.80004882812
1556.57466381785	1343.40002441406
1559.02282767408	1339.59997558594
1561.47024901499	1336.59997558594
1563.91692818144	1352.80004882812
1566.3628655139	1343.30004882812
1568.80806135249	1355.80004882812
1571.252516037	1353.09997558594
1573.6962299068	1362.80004882812
1576.13920330099	1381.80004882812
1578.58143655828	1379.40002441406
1581.02293001704	1380.40002441406
1583.46368401528	1387.69995117188
1585.90369889071	1435.09997558594
1588.34297498065	1474.40002441406
1590.7815126221	1524.69995117187
1593.21931215173	1549.40002441406
1595.65637390588	1547.69995117187
1598.09269822053	1535.40002441406
1600.52828543135	1502.90002441406
1602.96313587367	1467.40002441406
1605.3972498825	1420.59997558594
1607.83062779252	1415.59997558594
1610.26326993808	1408.59997558594
1612.69517665322	1391.59997558594
1615.12634827165	1395.40002441406
1617.55678512676	1374
1619.98648755163	1357.90002441406
1622.41545587902	1363.40002441406
1624.84369044138	1358.09997558594
1627.27119157085	1351.40002441406
1629.69795959924	1344.09997558594
1632.12399485808	1352.09997558594
1634.54929767859	1353.30004882812
1636.97386839165	1348.09997558594
1639.39770732789	1351.30004882812
1641.8208148176	1343.19995117188
1644.24319119078	1352
1646.66483677715	1350.59997558594
1649.0857519061	1349.19995117188
1651.50593690677	1350
1653.92539210795	1354.19995117188
1656.3441178382	1348.30004882812
1658.76211442575	1359.09997558594
1661.17938219855	1341.59997558594
1663.59592148428	1369.30004882812
1666.01173261032	1357.90002441406
1668.42681590377	1372.30004882812
1670.84117169145	1368.5
1673.25480029991	1363.19995117188
1675.66770205541	1372.69995117188
1678.07987728393	1371
1680.49132631119	1377.80004882812
1682.90204946263	1388
1685.31204706342	1381.90002441406
1687.72131943846	1385.59997558594
1690.1298669124	1373.90002441406
1692.53768980957	1395.30004882812
1694.94478845411	1386.80004882812
1697.35116316982	1386.59997558594
1699.75681428031	1385
1702.16174210887	1373.69995117188
1704.56594697858	1393.59997558594
1706.96942921222	1406.19995117188
1709.37218913235	1391.90002441406
1711.77422706125	1398.90002441406
1714.17554332098	1382.19995117188
1716.5761382333	1400.40002441406
1718.97601211977	1391
1721.37516530169	1392
1723.77359810006	1383.09997558594
1726.17131083572	1385.59997558594
1728.56830382922	1392
1730.96457740087	1389
1733.36013187075	1378.59997558594
1735.75496755868	1396.5
1738.14908478428	1396.59997558594
1740.54248386689	1387
1742.93516512565	1380
1745.32712887946	1393.19995117188
1747.71837544697	1392.30004882812
1750.10890514662	1398.09997558594
1752.49871829661	1388.59997558594
1754.88781521492	1406.59997558594
1757.27619621929	1405.09997558594
1759.66386162726	1406.80004882812
1762.05081175612	1407.59997558594
1764.43704692297	1406.09997558594
1766.82256744465	1405.30004882812
1769.20737363782	1405
1771.59146581887	1417
1773.97484430405	1421
1776.35750940932	1422
1778.73946145048	1417
1781.12070074309	1406.40002441406
1783.50122760249	1423.19995117188
1785.88104234385	1432.40002441406
1788.26014528209	1425.69995117188
1790.63853673196	1418.90002441406
1793.01621700796	1440.19995117188
1795.39318642443	1434.5
1797.76944529549	1431
1800.14499393503	1437.69995117188
1802.51983265681	1426.40002441406
1804.8939617743	1443.40002441406
1807.26738160085	1449.90002441406
1809.64009244957	1430.80004882812
1812.01209463339	1432.40002441406
1814.38338846504	1445.19995117187
1816.75397425706	1437.09997558594
1819.12385232181	1442.80004882813
1821.49302297142	1446.59997558594
1823.86148651789	1428.40002441406
1826.22924327299	1427.90002441406
1828.59629354831	1450
1830.96263765526	1431.40002441406
1833.32827590507	1436.40002441406
1835.69320860877	1442.90002441406
1838.05743607724	1442.30004882813
1840.42095862113	1444.30004882813
1842.78377655097	1446.09997558594
1845.14589017707	1440.69995117188
1847.50729980956	1441
1849.86800575843	1448.09997558594
1852.22800833346	1450.19995117187
1854.58730784427	1445.19995117187
1856.94590460032	1447.59997558594
1859.30379891087	1453.30004882813
1861.66099108503	1453.40002441406
1864.01748143175	1466
1866.37327025978	1453
1868.72835787773	1452.30004882813
1871.08274459403	1455.30004882813
1873.43643071697	1455.30004882813
1875.78941655464	1468.69995117187
1878.14170241498	1455.30004882813
1880.4932886058	1474
1882.84417543469	1466.90002441406
1885.19436320915	1470.80004882813
1887.54385223646	1478.80004882813
1889.89264282378	1485.90002441406
1892.24073527809	1494.5
1894.58812990625	1477.90002441406
1896.93482701493	1495.30004882813
1899.28082691067	1490.69995117187
1901.62612989984	1507.90002441406
1903.97073628868	1495.59997558594
1906.31464638326	1520.19995117187
1908.6578604895	1500.40002441406
1911.00037891321	1513.69995117187
1913.34220196	1521.5
1915.68332993537	1525.59997558594
1918.02376314468	1517.90002441406
1920.36350189311	1531.69995117187
1922.70254648573	1527.19995117187
1925.04089722744	1532.19995117187
1927.37855442303	1524.80004882813
1929.71551837715	1527.19995117187
1932.05178939426	1519.19995117187
1934.38736777876	1529.80004882813
1936.72225383484	1532.19995117187
1939.0564478666	1544.69995117187
1941.38995017799	1528.90002441406
1943.72276107283	1544.19995117187
1946.05488085479	1536.5
1948.38630982744	1525.09997558594
1950.71704829419	1545.19995117187
1953.04709655832	1525.69995117187
1955.376454923	1540.30004882813
1957.70512369126	1527.30004882813
1960.03310316599	1541.5
1962.36039364999	1530.30004882813
1964.68699544589	1539.30004882813
1967.01290885622	1545.40002441406
1969.33813418338	1548.90002441406
1971.66267172965	1538.90002441406
1973.98652179718	1563.90002441406
1976.309684688	1537.90002441406
1978.63216070402	1566.90002441406
1980.95395014705	1568.69995117187
1983.27505331873	1549.59997558594
1985.59547052063	1553
1987.9152020542	1564.90002441406
1990.23424822074	1562.40002441406
1992.55260932146	1565.40002441406
1994.87028565746	1562.30004882813
1997.18727752968	1577.59997558594
1999.503585239	1586.80004882813
2001.81920908618	1580.19995117187
2004.13414937184	1576.5
2006.44840639651	1596.40002441406
2008.7619804606	1596.30004882813
2011.07487186442	1616
2013.38708090815	1607.80004882813
2015.6986078919	1609.19995117187
2018.00945311564	1612.30004882813
2020.31961687923	1610
2022.62909948246	1617.5
2024.93790122498	1614.40002441406
2027.24602240636	1616
2029.55346332604	1639.69995117187
2031.86022428337	1626.80004882813
2034.16630557761	1632.19995117187
2036.47170750791	1635.40002441406
2038.77643037331	1628.30004882813
2041.08047447275	1657.80004882813
2043.38384010509	1635.80004882813
2045.68652756907	1625.69995117187
2047.98853716335	1619
2050.28986918648	1645.40002441406
2052.59052393692	1647.90002441406
2054.89050171302	1641.30004882813
2057.18980281306	1662.30004882813
2059.4884275352	1655.40002441406
2061.78637617753	1639.30004882813
2064.08364903802	1633.59997558594
2066.38024641457	1646
2068.67616860497	1650.30004882813
2070.97141590694	1646.90002441406
2073.26598861809	1649.30004882813
2075.55988703595	1626.90002441406
2077.85311145796	1648.19995117187
2080.14566218145	1652.90002441406
2082.43753950371	1631
2084.72874372188	1651.69995117187
2087.01927513307	1651.69995117187
2089.30913403428	1648.19995117187
2091.59832072241	1647.90002441406
2093.88683549429	1648.5
2096.17467864666	1652.80004882813
2098.46185047619	1665.59997558594
2100.74835127944	1652.59997558594
2103.03418135292	1681.30004882813
2105.31934099303	1657.90002441406
2107.6038304961	1660.09997558594
2109.88765015838	1666.40002441406
2112.17080027602	1671.5
2114.45328114513	1671.40002441406
2116.7350930617	1674.30004882813
2119.01623632165	1667.19995117187
2121.29671122085	1678.30004882813
2123.57651805505	1669.90002441406
2125.85565711996	1681.09997558594
2128.13412871117	1695.40002441406
2130.41193312424	1677.59997558594
2132.68907065462	1687.19995117187
2134.96554159771	1691
2137.24134624881	1693.59997558594
2139.51648490317	1694.09997558594
2141.79095785593	1706.30004882813
2144.0647654022	1719.90002441406
2146.33790783698	1711.5
2148.61038545524	1697.90002441406
2150.88219855182	1719.09997558594
2153.15334742154	1732.69995117187
2155.42383235911	1729.40002441406
2157.6936536592	1723.09997558594
2159.9628116164	1712.69995117187
2162.23130652522	1732.09997558594
2164.49913868011	1722.30004882813
2166.76630837544	1730.30004882813
2169.03281590552	1734.90002441406
2171.2986615646	1728.19995117187
2173.56384564685	1719.40002441406
2175.82836844637	1732.19995117187
2178.0922302572	1732
2180.35543137332	1731.09997558594
2182.61797208862	1739.09997558594
2184.87985269695	1724.5
2187.14107349208	1727.5
2189.40163476773	1734.5
2191.66153681753	1731.5
2193.92077993507	1734.40002441406
2196.17936441386	1720.80004882813
2198.43729054735	1737.40002441406
2200.69455862894	1746.40002441406
2202.95116895194	1748.59997558594
2205.20712180962	1738.09997558594
2207.46241749519	1738.09997558594
2209.71705630179	1748.5
2211.97103852248	1737.40002441406
2214.2243644503	1744.59997558594
2216.47703437819	1738.19995117187
2218.72904859905	1736.90002441406
2220.98040740571	1751.19995117187
2223.23111109095	1750.19995117187
2225.4811599475	1745.90002441406
2227.73055426799	1734.5
2229.97929434504	1749.19995117187
2232.22738047118	1759.40002441406
2234.47481293889	1747
2236.72159204058	1761.80004882813
2238.96771806864	1751.69995117187
2241.21319131536	1748.19995117187
2243.458012073	1740.5
2245.70218063374	1754.90002441406
2247.94569728973	1757
2250.18856233304	1751.30004882813
2252.4307760557	1742.90002441406
2254.67233874967	1748.69995117187
2256.91325070687	1744.09997558594
2259.15351221915	1768.09997558594
2261.39312357831	1769
2263.63208507611	1756
2265.87039700422	1756
2268.1080596543	1768.69995117187
2270.34507331792	1764.69995117187
2272.5814382866	1751.09997558594
2274.81715485183	1768.30004882813
2277.05222330502	1762.5
2279.28664393755	1765.09997558594
2281.52041704072	1764.09997558594
2283.75354290581	1755.59997558594
2285.98602182401	1773.5
2288.21785408648	1774.80004882813
2290.44903998434	1766.59997558594
2292.67957980862	1768.80004882813
2294.90947385033	1768.80004882813
2297.1387224004	1773.30004882813
2299.36732574975	1784.69995117187
2301.59528418921	1763.90002441406
2303.82259800958	1791.30004882813
2306.04926750158	1771.40002441406
2308.27529295593	1773
2310.50067466325	1773.30004882813
2312.72541291412	1786.5
2314.9495079991	1774.09997558594
2317.17296020866	1779.09997558594
2319.39576983323	1768.80004882813
2321.61793716322	1772.09997558594
2323.83946248894	1764.69995117187
2326.06034610069	1784.80004882813
2328.28058828871	1781.5
2330.50018934317	1779.5
2332.7191495542	1777.90002441406
2334.93746921192	1777.09997558594
2337.15514860633	1790.90002441406
2339.37218802743	1785.09997558594
2341.58858776516	1779.30004882813
2343.80434810941	1786.90002441406
2346.01946935001	1769.80004882813
2348.23395177675	1778.40002441406
2350.44779567939	1781.40002441406
2352.66100134759	1776.90002441406
2354.87356907101	1787.59997558594
2357.08549913925	1768.19995117187
2359.29679184185	1779.90002441406
2361.50744746829	1784.5
2363.71746630804	1781.69995117187
2365.92684865048	1781.5
2368.13559478499	1777.69995117187
2370.34370500083	1782
2372.55117958727	1775.30004882813
2374.75801883352	1759.80004882813
2376.96422302874	1777.40002441406
2379.16979246202	1767.30004882813
2381.37472742243	1769
2383.57902819898	1779.19995117187
2385.78269508063	1779.40002441406
2387.98572835629	1763.30004882813
2390.18812831482	1779.19995117187
2392.38989524505	1769.59997558594
2394.59102943573	1764.30004882813
2396.79153117559	1772.19995117187
2398.9914007533	1760.59997558594
2401.19063845748	1756.40002441406
2403.38924457672	1760.80004882813
2405.58721939951	1764.19995117187
2407.78456321435	1750.5
2409.98127630966	1766.90002441406
2412.17735897382	1774.19995117187
2414.37281149517	1755.69995117187
2416.56763416198	1752.09997558594
2418.76182726249	1772
2420.95539108487	1763.80004882813
2423.14832591726	1764
2425.34063204776	1769.69995117187
2427.53230976439	1754.69995117187
2429.72335935513	1763.09997558594
2431.91378110795	1763.30004882813
2434.10357531071	1754.19995117187
2436.29274225125	1759
2438.48128221739	1773.90002441406
2440.66919549683	1751.80004882813
2442.8564823773	1746.09997558594
2445.04314314641	1760.59997558594
2447.22917809176	1758.5
2449.4145875009	1769.09997558594
2451.59937166131	1757.69995117187
2453.78353086044	1754.90002441406
2455.96706538568	1759.09997558594
2458.14997552436	1740.80004882813
2460.33226156379	1748.40002441406
2462.51392379119	1758.69995117187
2464.69496249376	1744.09997558594
2466.87537795862	1746.19995117187
2469.05517047288	1734.80004882813
2471.23434032357	1753.40002441406
2473.41288779767	1756.69995117187
2475.59081318211	1744.09997558594
2477.76811676378	1755.90002441406
2479.9447988295	1754.59997558594
2482.12085966605	1731
2484.29629956016	1732.5
2486.4711187985	1749.5
2488.64531766769	1749.5
2490.8188964543	1740.69995117187
2492.99185544484	1735.09997558594
2495.16419492579	1734.30004882813
2497.33591518353	1747.59997558594
2499.50701650444	1729.19995117187
2501.67749917482	1744.59997558594
2503.84736348091	1749.90002441406
2506.01660970891	1736.69995117187
2508.18523814496	1741.5
2510.35324907514	1763.40002441406
2512.52064278551	1763.40002441406
2514.68741956201	1751.5
2516.85357969058	1760
2519.01912345709	1757.30004882813
2521.18405114735	1752.5
2523.34836304711	1756.69995117187
2525.51205944208	1756.5
2527.6751406179	1752.19995117187
2529.83760686016	1774.40002441406
2531.99945845439	1761.90002441406
2534.16069568606	1759.90002441406
2536.3213188406	1773.30004882813
2538.48132820336	1743.40002441406
2540.64072405965	1760.90002441406
2542.79950669471	1774.69995117187
2544.95767639373	1765.59997558594
2547.11523344184	1755.80004882813
2549.27217812411	1762.69995117187
2551.42851072555	1761.5
2553.58423153111	1762.80004882813
2555.73934082569	1759.5
2557.89383889412	1747.90002441406
2560.04772602118	1766.59997558594
2562.20100249158	1745.80004882813
2564.35366858996	1750.30004882813
2566.50572460093	1753.09997558594
2568.65717080901	1737.09997558594
2570.80800749867	1735.19995117187
2572.95823495433	1743.80004882813
2575.10785346031	1745.90002441406
2577.25686330093	1738.40002441406
2579.40526476038	1731.5
2581.55305812282	1731.40002441406
2583.70024367237	1725.30004882813
2585.84682169303	1740.90002441406
2587.99279246879	1737.40002441406
2590.13815628354	1718.59997558594
2592.28291342112	1729.19995117187
2594.42706416531	1721
2596.5706087998	1733.19995117187
2598.71354760826	1726.09997558594
2600.85588087425	1717
2602.99760888127	1722.5
2605.13873191278	1724.90002441406
2607.27925025214	1716.69995117187
2609.41916418269	1725.30004882813
2611.55847398764	1725.69995117187
2613.69717995017	1722.59997558594
2615.83528235339	1728.69995117187
2617.97278148034	1728.59997558594
2620.10967761398	1731
2622.2459710372	1742.5
2624.38166203284	1717.90002441406
2626.51675088365	1732.19995117187
2628.65123787231	1717
2630.78512328145	1732.19995117187
2632.9184073936	1718.80004882813
2635.05109049124	1743.09997558594
2637.18317285676	1741.69995117187
2639.31465477248	1734.69995117187
2641.44553652067	1743.59997558594
2643.5758183835	1739.09997558594
2645.70550064309	1747.5
2647.83458358144	1741.80004882813
2649.96306748053	1744.80004882813
2652.09095262223	1750.09997558594
2654.21823928836	1756.90002441406
2656.34492776063	1735.40002441406
2658.47101832071	1752.69995117187
2660.59651125015	1751.69995117187
2662.72140683047	1749.09997558594
2664.84570534309	1746.5
2666.96940706934	1743.59997558594
2669.0925122905	1743
2671.21502128773	1745
2673.33693434215	1745.69995117187
2675.45825173479	1757.90002441406
2677.57897374658	1747.80004882813
2679.69910065839	1756.59997558594
2681.818632751	1753.80004882813
2683.93757030511	1746.69995117187
2686.05591360133	1764.09997558594
2688.17366292021	1755.09997558594
2690.29081854218	1743.5
2692.40738074762	1745.40002441406
2694.52334981681	1752
2696.63872602995	1737
2698.75350966713	1750.30004882813
2700.86770100841	1753.80004882813
2702.98130033371	1757.90002441406
2705.09430792289	1751.30004882813
2707.20672405571	1760.19995117187
2709.31854901185	1759.19995117187
2711.42978307091	1763
2713.54042651238	1762.69995117187
2715.65047961567	1786.80004882813
2717.7599426601	1775.59997558594
2719.86881592491	1781.09997558594
2721.97709968924	1783.40002441406
2724.08479423213	1787.69995117187
2726.19189983255	1783.40002441406
2728.29841676934	1772.09997558594
2730.4043453213	1768.40002441406
2732.5096857671	1780
2734.61443838532	1767.30004882813
2736.71860345444	1763.09997558594
2738.82218125286	1766.40002441406
2740.92517205889	1765.69995117187
2743.02757615072	1775.09997558594
2745.12939380646	1756.59997558594
2747.23062530411	1768.5
2749.33127092159	1767.09997558594
2751.4313309367	1753.19995117187
2753.53080562716	1756.90002441406
2755.62969527058	1780.30004882813
2757.72800014448	1780.19995117187
2759.82572052625	1763.19995117187
2761.92285669323	1747
2764.0194089226	1762.69995117187
2766.11537749147	1770
2768.21076267686	1758.59997558594
2770.30556475566	1768.69995117187
2772.39978400465	1751.59997558594
2774.49342070054	1758.30004882813
2776.58647511991	1762
2778.67894753923	1759
2780.77083823487	1782.69995117187
2782.8621474831	1754.90002441406
2784.95287556007	1767.5
2787.04302274184	1755.09997558594
2789.13258930433	1764.69995117187
2791.22157552338	1751.09997558594
2793.30998167471	1763.69995117187
2795.39780803392	1771.09997558594
2797.4850548765	1762.69995117187
2799.57172247786	1763.09997558594
2801.65781111324	1762.90002441406
2803.74332105781	1765.5
2805.82825258661	1760.40002441406
2807.91260597457	1765.5
2809.9963814965	1757
2812.07957942711	1764.80004882813
2814.16220004096	1770.80004882813
2816.24424361252	1766.09997558594
2818.32571041614	1779.09997558594
2820.40660072604	1789.09997558594
2822.48691481631	1794.19995117187
2824.56665296098	1795.90002441406
2826.64581543388	1802.09997558594
2828.72440250876	1831.09997558594
2830.80241445925	1851.30004882813
2832.87985155885	1898.09997558594
2834.95671408093	1939.19995117187
2837.03300229875	1987.09997558594
2839.10871648544	2023.09997558594
2841.18385691399	2034.30004882813
2843.25842385729	2010.5
2845.33241758808	1979.69995117187
2847.40583837898	1980.09997558594
2849.4786865025	1980.5
2851.550962231	1967.5
2853.6226658367	1958.5
2855.69379759173	1950.30004882813
2857.76435776806	1977.90002441406
2859.83434663753	2015.80004882813
2861.90376447184	2066.5
2863.97261154259	2099.80004882813
2866.0408881212	2166.69995117187
2868.10859447901	2199.19995117187
2870.17573088717	2205.80004882813
2872.24229761673	2215
2874.30829493859	2202.89990234375
2876.37372312352	2236.60009765625
2878.43858244215	2277.89990234375
2880.50287316496	2314.60009765625
2882.56659556231	2327.5
2884.62974990439	2336.5
2886.69233646129	2302.5
2888.75435550293	2274.89990234375
2890.81580729909	2257.5
2892.87669211941	2225
2894.93701023339	2205.80004882813
2896.99676191039	2207.5
2899.05594741961	2205.60009765625
2901.1145670301	2212.10009765625
2903.1726210108	2221
2905.23010963045	2248.30004882813
2907.28703315768	2240
2909.34339186096	2232.69995117187
2911.39918600861	2186.89990234375
2913.45441586879	2162.10009765625
2915.50908170952	2169.10009765625
2917.56318379867	2146.89990234375
2919.61672240395	2161.19995117187
2921.66969779291	2149.19995117187
2923.72211023295	2158.19995117187
2925.77395999134	2144.60009765625
2927.82524733515	2132.39990234375
2929.87597253132	2086
2931.92613584663	2054.60009765625
2933.97573754769	2019
2936.02477790097	1983.59997558594
2938.07325717276	1960.5
2940.1211756292	1959.30004882813
2942.16853353626	1944.69995117187
2944.21533115976	1983.40002441406
2946.26156876536	2016.5
2948.30724661853	2058.80004882813
2950.3523649846	2092.19995117187
2952.39692412872	2107.89990234375
2954.44092431587	2128
2956.48436581089	2145.10009765625
2958.52724887843	2210.10009765625
2960.56957378296	2247.5
2962.6113407888	2236.30004882813
2964.65255016011	2196
2966.69320216083	2147.89990234375
2968.73329705479	2060.69995117187
2970.77283510559	2009.69995117187
2972.81181657671	1957
2974.8502417314	1917.19995117187
2976.88811083279	1896.5
2978.92542414378	1892.69995117187
2980.96218192713	1873.80004882813
2982.99838444541	1856.59997558594
2985.034031961	1850.90002441406
2987.06912473612	1844.09997558594
2989.1036630328	1824.19995117187
2991.13764711288	1830.30004882813
2993.17107723804	1833.19995117187
2995.20395366974	1827.40002441406
2997.23627666931	1822.69995117187
2999.26804649782	1834.09997558594
3001.29926341624	1817.19995117187
3003.32992768528	1821.80004882813
3005.3600395655	1831.90002441406
3007.38959931726	1818.69995117187
3009.41860720076	1824.90002441406
3011.44706347595	1828.5
3013.47496840263	1822.30004882813
3015.50232224041	1823.40002441406
3017.5291252487	1832.40002441406
3019.5553776867	1822.09997558594
3021.58107981344	1832.19995117187
3023.60623188773	1847.30004882813
3025.63083416822	1835.69995117187
3027.65488691331	1834.30004882813
3029.67839038125	1832.40002441406
3031.70134483007	1840.69995117187
3033.72375051759	1853.30004882813
3035.74560770144	1841.30004882813
3037.76691663907	1838.40002441406
3039.78767758768	1844.19995117187
3041.80789080431	1852
3043.82755654577	1848
3045.84667506867	1843.69995117187
3047.8652466294	1842.59997558594
3049.88327148418	1855.5
3051.90074988899	1845.30004882813
3053.91768209961	1853
3055.9340683716	1833.09997558594
3057.94990896033	1834.90002441406
3059.96520412095	1853.80004882813
3061.97995410838	1834.69995117187
3063.99415917734	1844.69995117187
3066.00781958234	1854.90002441406
3068.02093557766	1843.80004882813
3070.03350741738	1842.69995117187
3072.04553535535	1843.30004882813
3074.05701964521	1854.90002441406
3076.06796054036	1844.59997558594
3078.078358294	1833.59997558594
3080.08821315912	1841
3082.09752538846	1845.90002441406
3084.10629523454	1836.69995117187
3086.11452294967	1850.30004882813
3088.12220878592	1854.69995117187
3090.12935299515	1832.19995117187
3092.13595582898	1845
3094.1420175388	1837.09997558594
3096.14753837579	1855.90002441406
3098.15251859088	1838.80004882813
3100.15695843477	1851.69995117187
3102.16085815793	1833.80004882813
3104.16421801061	1839.90002441406
3106.16703824282	1833.40002441406
3108.16931910432	1851.69995117187
3110.17106084464	1836.5
3112.17226371308	1844.5
3114.17292795872	1857.59997558594
3116.17305383034	1862.09997558594
3118.17264157657	1845.09997558594
3120.17169144571	1841.69995117187
3122.17020368587	1854.90002441406
3124.16817854492	1867.19995117187
3126.16561627044	1876.19995117187
3128.16251710982	1875.80004882813
3130.15888131017	1865.69995117187
3132.15470911837	1872.90002441406
3134.15000078104	1871.19995117187
3136.14475654455	1865.80004882813
3138.13897665502	1882.5
3140.13266135835	1874.80004882813
3142.12581090014	1861.5
3144.11842552577	1875.80004882813
3146.11050548036	1891.69995117187
3148.10205100875	1873.30004882813
3150.09306235557	1889.59997558594
3152.08353976515	1868.19995117187
3154.07348348158	1878.59997558594
3156.06289374869	1893.30004882813
3158.05177081006	1888.59997558594
3160.04011490899	1887.30004882813
3162.02792628852	1897.09997558594
3164.01520519145	1876.19995117187
3166.00195186029	1892
3167.98816653728	1886.30004882813
3169.97384946442	1890.90002441406
3171.95900088344	1870.5
3173.94362103577	1877.09997558594
3175.92771016259	1901.30004882813
3177.91126850484	1895.69995117187
3179.89429630312	1894.5
3181.87679379782	1886.59997558594
3183.85876122903	1899.90002441406
3185.84019883657	1887.5
3187.82110685997	1905
3189.80148553851	1900.19995117187
3191.78133511116	1911.30004882813
3193.76065581664	1901.5
3195.73944789337	1904.30004882813
3197.7177115795	1898.30004882813
3199.6954471129	1903.40002441406
3201.67265473114	1911.80004882813
3203.64933467153	1902.59997558594
3205.62548717107	1906.09997558594
3207.60111246648	1901.90002441406
3209.57621079421	1894.90002441406
3211.55078239041	1899.80004882813
3213.52482749093	1903.19995117187
3215.49834633133	1913.69995117187
3217.4713391469	1915.09997558594
3219.44380617262	1917.5
3221.41574764317	1918.90002441406
3223.38716379296	1911.40002441406
3225.35805485607	1914
3227.32842106631	1915.59997558594
3229.29826265718	1923
3231.26757986187	1909
3233.2363729133	1922.09997558594
3235.20464204405	1928.19995117187
3237.17238748643	1930
3239.13960947243	1935.5
3241.10630823374	1935.5
3243.07248400174	1919
3245.03813700748	1942.40002441406
3247.00326748177	1951
3248.96787565503	1935.40002441406
3250.93196175742	1944.90002441406
3252.89552601877	1943.5
3254.8585686686	1928.40002441406
3256.82108993612	1936.5
3258.78309005022	1949.5
3260.74456923948	1937
3262.70552773215	1948.59997558594
3264.66596575617	1944.30004882813
3266.62588353916	1940.09997558594
3268.58528130843	1934
3270.54415929094	1939.69995117187
3272.50251771336	1944.40002441406
3274.46035680201	1960.69995117187
3276.4176767829	1956.69995117187
3278.37447788171	1948.40002441406
3280.33076032379	1963.69995117187
3282.28652433416	1929.59997558594
3284.24177013751	1949.59997558594
3286.1964979582	1948.90002441406
3288.15070802027	1944.09997558594
3290.10440054741	1957.69995117187
3292.05757576298	1940.09997558594
3294.01023389001	1954.69995117187
3295.96237515119	1950.80004882813
3297.91399976887	1960.59997558594
3299.86510796506	1959.5
3301.81569996142	1958
3303.76577597932	1944.19995117187
3305.7153362397	1967.80004882813
3307.66438096324	1955.80004882813
3309.61291037024	1962.30004882813
3311.56092468064	1952
3313.50842411404	1944.90002441406
3315.45540888971	1963.19995117187
3317.40187922656	1955.09997558594
3319.34783534315	1948.40002441406
3321.29327745768	1959.19995117187
3323.23820578801	1932
3325.18262055164	1947.30004882813
3327.1265219657	1948.59997558594
3329.06991024699	1955.59997558594
3331.01278561194	1961.09997558594
3332.95514827662	1948
3334.89699845674	1950.40002441406
3336.83833636766	1965.80004882813
3338.77916222434	1941.80004882813
3340.71947624143	1939.30004882813
3342.65927863317	1952.80004882813
3344.59856961346	1950.30004882813
3346.53734939584	1959.40002441406
3348.47561819344	1953.09997558594
3350.41337621906	1943.40002441406
3352.35062368513	1953.59997558594
3354.28736080368	1961.5
3356.22358778637	1949.5
3358.15930484452	1968.5
3360.09451218904	1954.30004882813
3362.02921003047	1948.30004882813
3363.96339857898	1972.30004882813
3365.89707804436	1967
3367.83024863602	1967.69995117187
3369.76291056299	1956.19995117187
3371.69506403389	1958.59997558594
3373.62670925699	1977.30004882813
3375.55784644016	1976
3377.4884757909	1957.59997558594
3379.41859751629	1978.80004882813
3381.34821182305	1984.59997558594
3383.27731891749	1984.40002441406
3385.20591900555	1996.30004882813
3387.13401229276	1979.40002441406
3389.06159898426	1986.40002441406
3390.9886792848	1986.09997558594
3392.91525339872	2004.59997558594
3394.84132152998	1995.69995117187
3396.76688388213	2000.90002441406
3398.69194065833	2002.80004882813
3400.61649206133	1994.5
3402.54053829348	2005.90002441406
3404.46407955672	2015.09997558594
3406.3871160526	1997.69995117187
3408.30964798225	1998
3410.23167554639	2008.69995117187
3412.15319894535	2002.19995117187
3414.07421837904	1997.19995117187
3415.99473404695	2016.80004882813
3417.91474614817	2006.80004882813
3419.83425488136	2010.19995117187
3421.75326044479	2006.59997558594
3423.67176303631	2005.09997558594
3425.58976285332	2027.09997558594
3427.50726009282	2014.09997558594
3429.42425495143	2010.09997558594
3431.34074762528	2021.19995117187
3433.25673831012	1997
3435.17222720127	2001.59997558594
3437.08721449362	2009.5
3439.00170038164	2007.40002441406
3440.91568505936	2016.5
3442.82916872039	1988.80004882813
3444.74215155791	2000.80004882813
3446.65463376468	1994
3448.566615533	2009.5
3450.47809705476	1987.69995117187
3452.3890785214	1985.09997558594
3454.29956012393	2013.19995117187
3456.20954205293	1996
3458.11902449853	1990.5
3460.02800765041	1991.80004882813
3461.93649169784	1995.30004882813
3463.84447682962	1982.09997558594
3465.75196323412	1997
3467.65895109925	1989.09997558594
3469.56544061249	1969.30004882813
3471.47143196086	1991.19995117187
3473.37692533093	1996.90002441406
3475.28192090884	1978.40002441406
3477.18641888026	1987.09997558594
3479.09041943039	1979.09997558594
3480.99392274402	1986.40002441406
3482.89692900545	1993.40002441406
3484.79943839853	1972.59997558594
3486.70145110666	1980.90002441406
3488.60296731277	1971.69995117187
3490.50398719933	1967.30004882813
3492.40451094836	1966.90002441406
3494.30453874141	1968.90002441406
3496.20407075956	1965.5
3498.10310718342	1976.69995117187
3500.00164819315	1975.30004882813