200.090469251518	671.25
202.974751419362	671.25
205.858021632263	667.75
208.740280737522	665.5
211.621529580443	673.5
214.501769004371	671.5
217.380999850626	665.25
220.25922295859	667.75
223.136439165646	668
226.012649307235	674
228.88785421682	675
231.762054725918	667.5
234.635251664113	677.25
237.507445859021	684.5
240.378638136346	691.75
243.248829319855	708.5
246.11802023137	708.5
248.986211690826	721.5
251.853404516227	718.5
254.719599523654	704.75
257.584797527335	702.5
260.44899933954	685
263.312205770682	680.75
266.174417629303	680.25
269.035635722015	665.25
271.895860853609	660.75
274.755093826978	656.25
277.613335443144	659.5
280.470586501309	660.75
283.326847798766	665.25
286.182120131019	661.75
289.036404291684	658.5
291.889701072574	654
294.742011263643	656.25
297.593335653048	644.5
300.443675027094	654.5
303.293030170295	657.5
306.141401865367	659
308.988790893174	666
311.835198032837	675.5
314.680624061635	686.25
317.525069755113	692
320.36853588697	693.25
323.211023229178	678
326.052532551923	683.75
328.893064623604	664
331.732620210885	672.5
334.57120007867	660.75
337.408804990093	659
340.245435706565	655.75
343.081092987733	651.25
345.915777591523	653
348.749490274145	652
351.582231790049	653
354.414002891997	651.25
357.244804331021	647.75
360.074636856443	648.75
362.903501215886	652.5
365.731398155265	652.5
368.558328418814	661
371.384292749062	655.25
374.209291886869	658.5
377.033326571407	665.75
379.85639754017	672.75
382.678505529009	685.5
385.499651272065	699.5
388.319835501872	743
391.139058949258	794
393.957322343453	876.25
396.774626412011	935.25
399.590971880847	914
402.406359474258	851.75
405.220789914893	798.5
408.034263923801	740
410.8467822204	705
413.658345522483	704
416.468954546242	687.5
419.278610006277	680.75
422.087312615557	672
424.895063085503	676
427.701862125901	677.75
430.507710444981	676.75
433.312608749366	670.75
436.116557744146	672.5
438.919558132791	682
441.721610617238	687.75
444.522715897856	699.75
447.322874673457	725.75
450.122087641299	743
452.920355497092	764
455.717678935009	756.75
458.514058647681	739.5
461.309495326219	736
464.103989660191	709.5
466.89754233765	687.75
469.690154045114	680
472.481825467625	665.75
475.272557288674	667.5
478.062350190281	658.75
480.851204852952	666.75
483.639121955683	660.25
486.426102176007	657.75
489.212146189955	666.25
491.997254672093	661.75
494.781428295471	657.75
497.564667731716	664.5
500.346973650958	657.75
503.128346721878	661.75
505.90878761169	665.25
508.688296986151	669.75
511.46687550957	671.5
514.244523844831	673.5
517.021242653354	690
519.797032595132	701.25
522.571894328732	722.75
525.345828511279	735.75
528.11883579849	741.25
530.890916844655	726.5
533.662072302668	709.25
536.432302823985	691.75
539.201609058684	681.75
541.96999165542	671.5
544.737451261473	668.5
547.503988522723	663.75
550.26960408366	664.25
553.034298587394	662.25
555.798072675669	660.25
558.560926988819	664.25
561.322862165849	653.75
564.083878844369	655.25
566.843977660654	662
569.603159249604	655.75
572.361424244769	657.5
575.118773278369	648.25
577.87520698124	653.25
580.630725982905	647.75
583.385330911566	650
586.139022394076	658.5
588.891801055954	651.75
591.643667521406	652.75
594.394622413318	649.25
597.144666353273	645.75
599.893799961512	654
602.64202385701	644.25
605.389338657413	645.5
608.135744979089	648.5
610.881243437092	648.75
613.625834645191	654.75
616.369519215881	644.25
619.112297760374	646
621.854170888604	650.5
624.595139209225	642.5
627.335203329614	653.5
630.074363855914	650
632.81262139299	652.25
635.549976544436	643.25
638.286429912612	647.5
641.021982098635	644.75
643.756633702364	645.25
646.49038532241	646
649.223237556176	642.75
651.955190999808	648
654.686246248224	650.5
657.416403895135	642.25
660.145664533011	650.75
662.874028753133	655.5
665.601497145537	653.75
668.328070299071	652
671.05374880138	651.5
673.778533238885	648.75
676.502424196839	646.5
679.225422259297	653
681.947528009099	650.75
684.668742027927	650.75
687.389064896281	650
690.108497193465	656
692.827039497621	658.25
695.544692385724	656.25
698.261456433585	645.75
700.977332215847	654.5
703.692320305981	648.5
706.406421276337	655.5
709.11963569808	650.5
711.831964141256	648.25
714.54340717474	650.75
717.253965366304	653.25
719.963639282552	651
722.672429488961	647.25
725.380336549904	653.5
728.087361028596	660
730.793503487166	653.5
733.498764486594	647.25
736.203144586758	655
738.906644346447	658.75
741.60926432331	652.5
744.311005073912	661
747.011867153727	656
749.711851117121	656.25
752.410957517375	662.75
755.109186906677	660.75
757.806539836132	658.5
760.503016855779	663.75
763.198618514551	670.25
765.893345360346	670.5
768.587197939964	667.75
771.28017679914	670.75
773.972282482566	671
776.663515533859	670.25
779.353876495581	676.75
782.043365909241	673.25
784.731984315327	684
787.419732253235	684.5
790.106610261366	694
792.792618877058	709
795.477758636618	733
798.162030075313	780
800.845433727423	867.75
803.52797012615	1034.5
806.209639803714	1218.5
808.890443291304	1268.75
811.570381119098	1109.5
814.249453816265	934.5
816.927661910959	825.25
819.60500593036	764.25
822.281486400603	752.75
824.957103846864	756
827.631858793316	770
830.305751763135	794.5
832.978783278519	832.5
835.650953860677	896
838.322264029848	954.25
840.992714305292	991.5
843.662305205289	930
846.331037247157	831.5
848.998910947241	770
851.665926820933	734.5
854.332085382674	726
856.997387145915	708.75
859.661832623191	707.25
862.325422326066	698.5
864.988156765172	690
867.650036450181	691.25
870.311061889846	679.5
872.971233591961	677
875.630552063409	671
878.28901781013	677.5
880.946631337138	680.5
883.603393148533	678.5
886.259303747484	678.75
888.914363636246	685.75
891.568573316155	696
894.22193328767	700
896.874444050281	703.5
899.526106102625	713
902.176919942416	701.75
904.826886066483	687.5
907.476004970747	686.75
910.124277150255	677
912.77170309913	672
915.418283310642	673.25
918.064018277175	681.75
920.708908490222	680.25
923.352954440405	679.75
925.996156617486	676.75
928.638515510334	679.5
931.280031606966	693.25
933.920705394521	721.75
936.560537359303	737.5
939.199527986737	752.5
941.837677761392	747.75
944.474987167006	739
947.111456686438	712
949.747086801734	707
952.38187799407	702.5
955.015830743792	701
957.648945530418	703.75
960.281222832633	729.25
962.91266312826	736
965.543266894336	801
968.173034607058	908.75
970.801966741779	978
973.43006377307	980
976.057326174661	915.75
978.683754419471	823.5
981.309348979623	744.5
983.93411032642	717.75
986.558038930361	708.25
989.181135261144	726
991.803399787692	746.25
994.424832978086	773.5
997.045435299653	786.25
999.665207218906	783.5
1002.2841492016	743.5
1004.90226171266	729.5
1007.51954521628	707.25
1010.13600017584	708
1012.75162705397	698.75
1015.3664263125	700.25
1017.9803984125	703
1020.5935438143	701.75
1023.20586297741	704
1025.81735636063	720.25
1028.42802442196	732.75
1031.03786761869	754.75
1033.64688640732	777.5
1036.2550812436	784.5
1038.86245258255	793.75
1041.46900087844	781.5
1044.07472658479	756.25
1046.67963015438	738
1049.28371203927	723.5
1051.88697269075	713.25
1054.48941255943	703.25
1057.09103209513	703.25
1059.691831747	695.25
1062.29181196343	694.25
1064.89097319211	698.25
1067.48931587999	691
1070.08684047333	690
1072.68354741766	687
1075.27943715779	692.5
1077.87451013787	697
1080.46876680127	698.25
1083.06220759071	709.25
1085.65483294822	701.75
1088.24664331509	704.25
1090.83763913194	698.25
1093.42782083869	693.75
1096.01718887459	704.75
1098.60574367818	710.25
1101.19348568732	713.75
1103.78041533919	710.5
1106.3665330703	704
1108.95183931646	702
1111.53633451284	689.5
1114.12001909391	698.5
1116.70289349349	694.75
1119.2849581447	697
1121.86621348005	696
1124.44665993134	702.75
1127.02629792973	706.5
1129.60512790574	700.5
1132.18315028919	714.5
1134.76036550929	715.5
1137.3367739946	720.75
1139.912376173	750.5
1142.48717247176	772.5
1145.06116331748	816.5
1147.63434913616	874.5
1150.20673035312	938.5
1152.77830739307	947.75
1155.34908068007	927
1157.91905063757	926
1160.48821768838	928.25
1163.05658225471	990.5
1165.6241447581	1039.25
1168.19090561951	1043.75
1170.75686525927	969.5
1173.32202409708	876.5
1175.88638255206	786
1178.44994104269	742.25
1181.01269998684	732.25
1183.57465980182	726.25
1186.13582090427	702.5
1188.69618371026	714
1191.25574863529	707.25
1193.8145160942	706.25
1196.37248650129	713
1198.92966027025	708.5
1201.48603781416	723.25
1204.04161954556	711
1206.59640587635	723.75
1209.15039721788	733
1211.70359398092	757.75
1214.25599657564	794.25
1216.80760541166	816.75
1219.35842089801	821.75
1221.90844344314	811.75
1224.45767345496	759.75
1227.00611134077	731.25
1229.55375750736	727.5
1232.10061236092	722.25
1234.64667630707	703.75
1237.1919497509	706
1239.73643309692	706.25
1242.28012674912	715.75
1244.82303111089	716
1247.36514658511	730.25
1249.9064735741	740.75
1252.44701247964	763.25
1254.98676370294	769.75
1257.52572764469	751.25
1260.06390470506	726
1262.60129528365	713.75
1265.13789977954	708.5
1267.67371859128	711.75
1270.20875211688	714.5
1272.74300075384	711.5
1275.2764648991	718.75
1277.80914494911	709.5
1280.34104129978	713.75
1282.87215434652	709
1285.40248448419	720.75
1287.93203210715	736.75
1290.46079760927	739
1292.98878138385	759.25
1295.51598382375	762.25
1298.04240532127	767
1300.56804626822	771.25
1303.09290705593	781.75
1305.6169880752	776.5
1308.14028971632	766.5
1310.66281236913	744.75
1313.18455642292	756
1315.70552226653	769.5
1318.22571028829	806.5
1320.74512087603	858.5
1323.26375441711	920.5
1325.7816112984	1025.5
1328.29869190629	1085.25
1330.81499662666	1025.75
1333.33052584497	953
1335.84527994613	869
1338.35925931464	815.75
1340.87246433446	787
1343.38489538916	770.25
1345.89655286177	764.75
1348.40743713487	775.5
1350.91754859059	797.75
1353.42688761059	835.25
1355.93545457606	877
1358.44324986772	896
1360.95027386588	875.5
1363.45652695032	834.25
1365.96200950042	797
1368.4667218951	781.75
1370.97066451281	782
1373.47383773156	770
1375.97624192891	777.25
1378.47787748199	752.5
1380.97874476746	745.25
1383.47884416157	728.75
1385.97817604009	719.75
1388.4767407784	707.75
1390.9745387514	705.5
1393.47157033358	709.75
1395.96783589898	709.5
1398.46333582124	708.75
1400.95807047354	709.25
1403.45204022864	699.25
1405.94524545889	696.5
1408.4376865362	704.25
1410.92936383205	712.5
1413.42027771752	712.75
1415.91042856328	707.25
1418.39981673955	715.75
1420.88844261615	714
1423.37630656249	723.5
1425.86340894757	734.5
1428.34975013999	776
1430.83533050792	836.75
1433.32015041912	883.5
1435.80421024098	896
1438.28751034045	886.25
1440.77005108411	858.5
1443.25183283812	862
1445.73285596824	870.25
1448.21312083984	919.5
1450.69262781791	1004.25
1453.17137726702	1081.25
1455.64936955137	1163.75
1458.12660503477	1212.5
1460.60308408063	1199
1463.07880705197	1091.25
1465.55377431145	972.75
1468.02798622133	886.5
1470.50144314348	823
1472.97414543941	786.25
1475.44609347024	755
1477.91728759673	744.75
1480.38772817924	742.5
1482.85741557777	728.5
1485.32635015194	727.75
1487.79453226103	725.75
1490.26196226391	716.25
1492.72864051911	714
1495.1945673848	716.25
1497.65974321874	709.25
1500.1241683784	711.75
1502.58784322083	712
1505.05076810274	717
1507.51294338049	719.75
1509.97436941009	706.25
1512.43504654717	707.25
1514.89497514704	710.75
1517.35415556462	711.75
1519.81258815451	713.25
1522.27027327095	707.5
1524.72721126784	710
1527.18340249874	710.75
1529.63884731684	716.5
1532.09354607502	711.25
1534.5474991258	717
1537.00070682136	715
1539.45316951355	708.25
1541.90488755388	714.5
1544.35586129353	710.75
1546.80609108336	710.75
1549.25557727385	707.5
1551.70432021519	714.25
1554.15232025725	713
1556.59957774953	718.25
1559.04609304125	710.75
1561.49186648127	715.75
1563.93689841815	707.75
1566.38118920011	726.5
1568.82473917506	716.25
1571.2675486906	724.5
1573.70961809399	720.25
1576.15094773219	717.75
1578.59153795184	717.5
1581.03138909928	723
1583.47050152051	723.75
1585.90887556123	723.75
1588.34651156686	722.75
1590.78340988246	724.25
1593.21957085283	716.25
1595.65499482245	716.5
1598.08968213547	720.5
1600.52363313578	722.25
1602.95684816694	725.75
1605.38932757224	732.25
1607.82107169462	733.75
1610.25208087677	719.5
1612.68235546107	721.75
1615.1118957896	723.25
1617.54070220415	720.25
1619.96877504621	722.75
1622.39611465701	729.25
1624.82272137746	725.5
1627.24859554818	715.5
1629.67373750953	708
1632.09814760155	724
1634.52182616404	731.25
1636.94477353647	729
1639.36699005806	719.75
1641.78847606776	720.75
1644.20923190418	717.25
1646.62925790573	724.5
1649.04855441048	723.75
1651.46712175628	725
1653.88496028066	727
1656.3020703209	734.75
1658.71845221401	728
1661.13410629671	727.25
1663.54903290547	725.75
1665.96323237649	720.5
1668.37670504571	731
1670.78945124877	727.5
1673.20147132109	733.75
1675.61276559779	737.75
1678.02333441377	734
1680.43317810362	737
1682.84229700171	732.5
1685.25069144213	737.5
1687.65836175872	741.5
1690.06530828507	732.5
1692.47153135451	737
1694.87703130009	736.25
1697.28180845467	729.25
1699.6858631508	735
1702.08919572081	732.75
1704.49180649676	737
1706.89369581049	739.25
1709.29486399355	739.75
1711.69531137731	736.75
1714.09503829282	734.75
1716.49404507095	741.25
1718.89233204229	729.5
1721.28989953721	731.75
1723.68674788581	742.5
1726.08287741798	734.75
1728.47828846338	746.5
1730.87298135139	737
1733.26695641119	741
1735.66021397173	741.5
1738.05275436169	731.25
1740.44457790954	745.5
1742.83568494354	737.25
1745.22607579168	747.25
1747.61575078175	737.75
1750.00471024128	736.75
1752.39295449761	745.25
1754.78048387783	742.75
1757.16729870881	738.5
1759.5533993172	737.25
1761.93878602942	745.25
1764.32345917168	740
1766.70741906995	740
1769.09066604999	741.5
1771.47320043735	752
1773.85502255735	744.25
1776.2361327351	750.25
1778.61653129548	744.5
1780.99621856318	748.25
1783.37519486264	740.25
1785.75346051813	746
1788.13101585368	750
1790.5078611931	745.25
1792.88399686002	744
1795.25942317785	746.5
1797.63414046977	753
1800.00814905878	738.25
1802.38144926766	749.5
1804.75404141898	754.75
1807.12592583514	741.5
1809.49710283829	753.25
1811.86757275039	746.75
1814.23733589322	761.75
1816.60639258834	752.25
1818.97474315712	751.75
1821.34238792073	755.75
1823.70932720012	751
1826.07556131608	755.5
1828.44109058918	747.25
1830.8059153398	761.25
1833.17003588812	944.75
1835.53345255413	1844.25
1837.89616565765	758.25
1840.25817551827	747
1842.61948245541	747.75
1844.9800867883	751
1847.33998883598	749.75
1849.69918891729	755
1852.05768735091	751.75
1854.4154844553	765.75
1856.77258054875	756.75
1859.12897594938	745.25
1861.4846709751	750
1863.83966594366	750.5
1866.19396117261	764.75
1868.54755697932	764.5
1870.90045368099	758.25
1873.25265159463	753.25
1875.60415103708	765.5
1877.95495232501	766.25
1880.30505577486	752.5
1882.65446170299	765.5
1885.00317042548	770.75
1887.35118225832	757
1889.69849751726	757.75
1892.04511651792	765.75
1894.39103957574	766.5
1896.73626700596	761.5
1899.08079912368	763.5
1901.42463624384	767.5
1903.76777868116	772.75
1906.11022675025	764.75
1908.4519807655	773.25
1910.79304104117	770.25
1913.13340789134	774.75
1915.47308162992	774.25
1917.81206257067	758.5
1920.15035102718	772.25
1922.48794731286	765.75
1924.82485174096	769.25
1927.16106462461	771.25
1929.49658627672	774
1931.83141701008	779.5
1934.1655571373	773.75
1936.49900697085	767.5
1938.83176682301	773.5
1941.16383700594	780.5
1943.49521783161	774.5
1945.82590961186	764
1948.15591265835	777
1950.48522728262	775.25
1952.81385379602	773
1955.14179250976	777
1957.46904373489	763.5
1959.79560778233	769.5
1962.12148496284	771
1964.44667558701	775.25
1966.77117996529	771.5
1969.09499840799	768.5
1971.41813122527	772
1973.74057872714	774.75
1976.06234122345	770.25
1978.38341902391	771.5
1980.7038124381	774.5
1983.02352177543	772.5
1985.34254734518	774.25
1987.66088945649	772.5
1989.97854841833	776.75
1992.29552453956	777.25
1994.61181812887	775.25
1996.92742949483	783
1999.24235894586	772.75
2001.55660679023	768.5
2003.87017333608	780
2006.18305889143	786.75
2008.49526376413	775.5
2010.80678826189	785.25
2013.1176326923	772.5
2015.42779736282	785.25
2017.73728258075	786
2020.04608865326	790.75
2022.3542158874	782
2024.66166459008	789.25
2026.96843506807	782
2029.274527628	795.5
2031.57994257637	801.25
2033.88468021957	777.75
2036.18874086383	789
2038.49212481526	789
2040.79483237983	796.5
2043.0968638634	780.25
2045.39821957169	791
2047.69889981028	791.25
2049.99890488462	784
2052.29823510006	789.25
2054.59689076181	792.5
2056.89487217492	793.25
2059.19217964437	794
2061.48881347497	785.25
2063.7847739714	794.25
2066.08006143826	789.25
2068.37467618	793.75
2070.66861850093	799
2072.96188870527	789.25
2075.25448709707	784
2077.54641398031	796.5
2079.83766965881	791
2082.12825443629	786.75
2084.41816861634	792
2086.70741250242	790.25
2088.99598639789	794
2091.28389060597	794.5
2093.57112542978	790
2095.85769117232	789.75
2098.14358813644	797
2100.42881662491	785.75
2102.71337694037	793.25
2104.99726938532	784.5
2107.28049426219	797.75
2109.56305187325	790.75
2111.84494252069	798.75
2114.12616650655	787
2116.40672413278	800.75
2118.68661570121	787.5
2120.96584151355	797.75
2123.24440187138	803.75
2125.52229707622	798.25
2127.79952742943	807.75
2130.07609323227	796.5
2132.35199478588	806.5
2134.62723239132	799.75
2136.90180634949	812
2139.17571696123	799
2141.44896452723	798.25
2143.72154934809	814.75
2145.99347172429	811.5
2148.26473195623	805.5
2150.53533034415	805
2152.80526718821	809.25
2155.07454278848	812.25
2157.3431574449	812
2159.61111145728	809.5
2161.87840512538	809
2164.1450387488	807
2166.41101262707	801.25
2168.67632705959	804.25
2170.94098234567	803.75
2173.20497878451	820.5
2175.46831667519	819.5
2177.73099631672	809.25
2179.99301800797	815.5
2182.25438204772	802.25
2184.51508873466	808.5
2186.77513836735	815.75
2189.03453124427	810.5
2191.29326766378	802.25
2193.55134792416	807
2195.80877232355	810
2198.06554116004	809.5
2200.32165473157	811
2202.577113336	807.25
2204.83191727111	815.75
2207.08606683453	808.75
2209.33956232384	800.25
2211.59240403648	804
2213.84459226982	810
2216.09612732112	804
2218.34700948753	806.75
2220.59723906612	815.25
2222.84681635385	815
2225.09574164758	821
2227.34401524408	819.25
2229.59163744002	807
2231.83860853197	812.25
2234.08492881639	813.75
2236.33059858968	822.75
2238.5756181481	821
2240.81998778784	823
2243.06370780499	814.75
2245.30677849555	820.5
2247.54920015539	816.75
2249.79097308033	823
2252.03209756607	822.5
2254.27257390822	820
2256.51240240228	823
2258.75158334369	825.25
2260.99011702777	824
2263.22800374976	813.75
2265.46524380477	825.25
2267.70183748786	822.75
2269.93778509399	816.25
2272.17308691801	816.5
2274.40774325467	819
2276.64175439866	827.75
2278.87512064454	821.25
2281.10784228682	822
2283.33991961987	831.5
2285.571352938	824.75
2287.80214253541	831
2290.03228870623	828
2292.26179174449	831.5
2294.4906519441	825.25
2296.71886959892	833
2298.9464450027	827.25
2301.1733784491	837.75
2303.39967023169	817.25
2305.62532064395	824.5
2307.85032997926	828.75
2310.07469853093	835.75
2312.29842659216	818.5
2314.52151445608	829
2316.7439624157	826
2318.96577076397	821.25
2321.18693979374	822.75
2323.40746979777	839
2325.62736106873	826.75
2327.8466138992	840.5
2330.06522858166	833.75
2332.28320540853	828.25
2334.50054467212	834.25
2336.71724666465	834
2338.93331167827	834.5
2341.14874000501	827.75
2343.36353193685	826.75
2345.57768776564	828
2347.79120778319	833.25
2350.00409228117	823.25
2352.21634155121	819.5
2354.42795588482	832.75
2356.63893557342	835.25
2358.84928090838	828.25
2361.05899218094	827
2363.26806968228	824.5
2365.47651370347	835.5
2367.68432453552	821.75
2369.89150246933	826
2372.09804779571	816.25
2374.30396080541	829.5
2376.50924178907	831
2378.71389103725	835.25
2380.91790884042	825.75
2383.12129548897	820
2385.3240512732	822.5
2387.52617648332	821.25
2389.72767140946	826.75
2391.92853634165	827
2394.12877156985	824
2396.32837738392	822.5
2398.52735407365	826.75
2400.72570192873	820
2402.92342123875	828.75
2405.12051229325	821.5
2407.31697538167	822.75
2409.51281079333	826.5
2411.70801881751	819.5
2413.90259974339	822
2416.09655386004	825
2418.28988145648	822.5
2420.48258282162	829
2422.6746582443	820.75
2424.86610801325	821.25
2427.05693241713	822.25
2429.24713174452	826
2431.43670628389	824.5
2433.62565632365	825.75
2435.81398215212	832.25
2438.00168405752	823.5
2440.18876232799	822.25
2442.37521725158	814.75
2444.56104911628	815
2446.74625820994	817.25
2448.93084482038	809.5
2451.1148092353	825
2453.29815174233	826.75
2455.480872629	819.5
2457.66297218275	824.25
2459.84445069097	822.5
2462.02530844092	820.75
2464.2055457198	815
2466.38516281471	820.25
2468.56416001267	809.75
2470.74253760061	817.25
2472.92029586537	822.5
2475.09743509372	817.5
2477.27395557232	814.75
2479.44985758777	817.75
2481.62514142655	820
2483.79980737508	823.25
2485.97385571969	810
2488.14728674661	814.75
2490.32010074198	827
2492.49229799188	815.75
2494.66387878228	813.5
2496.83484339905	825.5
2499.00519212802	818
2501.17492525488	823.5
2503.34404306528	813.25
2505.51254584473	818.5
2507.6804338787	832
2509.84770745254	812.5
2512.01436685153	815.25
2514.18041236085	834
2516.34584426561	831
2518.51066285081	831.25
2520.67486840138	820.75
2522.83846120214	828.5
2525.00144153784	836.75
2527.16380969314	827.75
2529.32556595261	832.75
2531.48671060072	825
2533.64724392186	834
2535.80716620033	810
2537.96647772034	828.25
2540.12517876602	829
2542.2832696214	826.5
2544.44075057041	822
2546.59762189691	824.25
2548.75388388466	831.25
2550.90953681735	829.25
2553.06458097853	832.5
2555.21901665172	820.5
2557.37284412031	834.25
2559.5260636676	817.5
2561.67867557684	829.5
2563.83068013113	810.25
2565.98207761351	827.75
2568.13286830695	835.5
2570.28305249429	831.75
2572.43263045829	821.5
2574.58160248163	823.5
2576.72996884689	824.75
2578.87772983655	829.5
2581.02488573303	835.25
2583.1714368186	844.75
2585.31738337549	823.5
2587.46272568582	836.25
2589.60746403161	839
2591.75159869479	846.5
2593.89512995722	845.75
2596.03805810061	835.75
2598.18038340665	833.5
2600.32210615686	842
2602.46322663274	841.75
2604.60374511563	839
2606.74366188683	831.5
2608.88297722751	847.5
2611.02169141875	850.25
2613.15980474156	844.25
2615.29731747681	846.75
2617.43422990532	836.5
2619.57054230779	833
2621.70625496483	841
2623.84136815694	847.5
2625.97588216456	832.5
2628.10979726799	831.75
2630.24311374746	847.25
2632.3758318831	838.75
2634.50795195493	851.25
2636.6394742429	844.25
2638.77039902682	853
2640.90072658645	854.25
2643.0304572014	862.5
2645.15959115123	865.25
2647.28812871538	880
2649.41607017319	871.25
2651.5434158039	877.5
2653.67016588665	877
2655.79632070049	878.25
2657.92188052436	888
2660.04684563711	886
2662.17121631749	884
2664.29499284413	880
2666.41817549558	870.75
2668.54076455027	882.5
2670.66276028656	871.5
2672.78416298267	879.5
2674.90497291675	879.5
2677.02519036682	874.25
2679.14481561082	878.5
2681.26384892658	883.25
2683.38229059182	879.25
2685.50014088417	884.25
2687.61740008114	885.5
2689.73406846017	873
2691.85014629854	893.25
2693.96563387347	890.75
2696.08053146206	899.25
2698.1948393413	901.5
2700.3085577881	913.25
2702.42168707924	933.5
2704.53422749139	944.25
2706.64617930112	965.5
2708.75754278492	973.5
2710.86831821913	980.5
2712.97850588002	1008.25
2715.08810604372	1043
2717.19711898628	1073.5
2719.30554498363	1107.25
2721.41338431158	1114
2723.52063724586	1114.75
2725.62730406206	1084.75
2727.73338503569	1047.75
2729.83888044213	1025.25
2731.94379055664	998.75
2734.04811565441	976.75
2736.15185601048	954
2738.25501189979	951.5
2740.35758359718	937
2742.45957137738	940.5
2744.56097551499	931.5
2746.6617962845	926
2748.7620339603	914.25
2750.86168881666	914
2752.96076112774	906
2755.05925116758	904.25
2757.15715921012	885
2759.25448552917	907.75
2761.35123039843	883.75
2763.44739409148	876.75
2765.5429768818	869.75
2767.63797904275	867.75
2769.73240084756	857.5
2771.82624256934	874.25
2773.91950448113	878
2776.01218685579	879
2778.10428996609	867.5
2780.19581408469	884.5
2782.28675948414	858.75
2784.37712643683	867.75
2786.46691521507	878.75
2788.55612609104	885.75
2790.64475933678	887.75
2792.73281522425	901
2794.82029402525	899
2796.90719601149	898.5
2798.99352145453	903.25
2801.07927062583	894.25
2803.16444379672	905
2805.24904123841	920
2807.33306322197	928.75
2809.41651001838	945.25
2811.49938189847	950.75
2813.58167913296	964.75
2815.66340199243	986.5
2817.74455074734	983
2819.82512566805	1012.75
2821.90512702475	1055.75
2823.98455508754	1091.25
2826.06341012637	1160.75
2828.14169241109	1278.5
2830.2194022114	1477
2832.29653979686	1743
2834.37310543694	2119.5
2836.44909940096	2430
2838.5245219581	2543
2840.59937337744	2482.75
2842.67365392791	2248
2844.74736387829	1996
2846.82050349727	1772.25
2848.8930730534	1619
2850.96507281506	1526.25
2853.03650305056	1511.25
2855.10736402802	1555.25
2857.17765601545	1683.25
2859.24737928074	1937.75
2861.31653409164	2394.5
2863.38512071574	2884.5
2865.45313942054	3214.75
2867.52059047335	3306.75
2869.58747414139	3281.75
2871.65379069173	3295
2873.7195403913	3402.5
2875.78472350688	3651.5
2877.84934030515	3994
2879.91339105262	4257
2881.97687601567	4363.25
2884.03979546053	4294.25
2886.10214965332	4093.75
2888.16393886	3886.5
2890.22516334639	3608.75
2892.28582337816	3415
2894.34591922087	3272.5
2896.40545113992	3243.5
2898.46441940054	3322
2900.52282426787	3439.75
2902.58066600687	3571.75
2904.63794488237	3662
2906.69466115906	3498.75
2908.75081510147	3307.5
2910.806406974	3075.75
2912.8614370409	2884.5
2914.91590556626	2787.5
2916.96981281404	2781
2919.02315904807	2816.75
2921.07594453199	2837.25
2923.12816952932	2859
2925.17983430343	2834.25
2927.23093911753	2700.75
2929.28148423469	2499.75
2931.33146991782	2283.5
2933.3808964297	2066
2935.42976403294	1914.25
2937.47807299	1783.25
2939.5258235632	1705.75
2941.57301601469	1758.5
2943.61965060648	1922.25
2945.66572760042	2150.5
2947.71124725823	2472
2949.75620984143	2740.5
2951.80061561143	2882.5
2953.84446482945	2984
2955.88775775656	3055.5
2957.9304946537	3246.25
2959.97267578162	3380.5
2962.01430140095	3235.5
2964.05537177211	2972.5
2966.09588715541	2651.75
2968.13584781097	2370.25
2970.17525399875	2067
2972.21410597859	1802.75
2974.25240401011	1587.75
2976.29014835283	1447.25
2978.32733926604	1317.5
2980.36397700892	1253.5
2982.40006184049	1173.5
2984.43559401955	1135.75
2986.4705738048	1101.5
2988.50500145473	1072.25
2990.53887722771	1029.75
2992.57220138189	1018
2994.6049741753	1017.5
2996.63719586576	982.75
2998.66886671097	979.5
3000.69998696843	974.75
3002.73055689549	975
3004.7605767493	965.25
3006.79004678688	948
3008.81896726505	954
3010.84733844048	939
3012.87516056966	941.5
3014.9024339089	924.25
3016.92915871433	925.25
3018.95533524196	922
3020.98096374756	926.5
3023.00604448675	921.75
3025.030577715	905.25
3027.05456368757	911.75
3029.07800265956	914.5
3031.10089488589	908
3033.12324062131	904.5
3035.14504012038	902.5
3037.16629363749	900.5
3039.18700142685	906.5
3041.20716374249	900.75
3043.22678083826	890.25
3045.24585296782	895.25
3047.26438038468	900.75
3049.28236334212	892
3051.29980209329	896.75
3053.31669689111	880.75
3055.33304798835	892.5
3057.34885563757	898
3059.36412009117	897.5
3061.37884160134	890
3063.39302042011	895.75
3065.40665679931	893.5
3067.41975099058	893.75
3069.43230324538	881.75
3071.44431381495	883.5
3073.45578295041	895
3075.46671090261	877.25
3077.47709792227	890.5
3079.48694425989	890
3081.49625016578	892.25
3083.50501589008	891.75
3085.5132416827	892
3087.5209277934	884.75
3089.52807447169	892
3091.53468196695	894.75
3093.54075052832	883.5
3095.54628040476	884.25
3097.55127184503	894
3099.55572509769	883.75
3101.55964041111	893
3103.56301803346	869.25
3105.5658582127	880.75
3107.56816119661	882.75
3109.56992723275	890.5
3111.57115656849	893.75
3113.571849451	894.25
3115.57200612724	891.5
3117.57162684397	905.75
3119.57071184775	892.25
3121.56926138493	894.25
3123.56727570166	880.75
3125.56475504389	893.25
3127.56169965735	899.75
3129.55810978757	901.75
3131.55398567987	896.25
3133.54932757937	899.75
3135.54413573099	907.75
3137.53841037939	889.25
3139.53215176909	898.75
3141.52536014435	896.75
3143.51803574924	909.75
3145.51017882762	905
3147.50178962311	911.5
3149.49286837916	911.75
3151.48341533897	924
3153.47343074553	913.25
3155.46291484164	907
3157.45186786985	905.25
3159.44029007252	898.5
3161.42818169179	899.5
3163.41554296955	898
3165.40237414753	916.5
3167.38867546718	909.75
3169.37444716975	914
3171.35968949631	900.25
3173.34440268764	924.25
3175.32858698436	913
3177.31224262682	907
3179.29536985517	904
3181.27796890934	896.25
3183.26004002902	921.75
3185.24158345368	913
3187.22259942256	920.75
3189.2030881747	907.5
3191.18304994886	922
3193.16248498363	908.25
3195.14139351733	919.75
3197.11977578807	915.25
3199.09763203371	918
3201.07496249191	917
3203.05176740007	916
3205.02804699537	920.25
3207.00380151475	909.5
3208.97903119493	921
3210.95373627238	929.5
3212.92791698335	915.5
3214.90157356383	917.75
3216.8747062496	924.5
3218.84731527619	913
3220.81940087889	921
3222.79096329275	913.5
3224.76200275259	919.25
3226.73251949298	921
3228.70251374825	915.5
3230.67198575251	912
3232.64093573959	908.25
3234.6093639431	900.25
3236.57727059641	904.75
3238.54465593261	918
3240.51152018461	907.25
3242.47786358502	901.75
3244.44368636621	895.25
3246.40898876031	904.25
3248.37377099923	910
3250.33803331458	902.25
3252.30177593775	912
3254.26499909987	899.75
3256.22770303184	908
3258.18988796427	903.5
3260.15155412755	913.25
3262.1127017518	904.5
3264.0733310669	908.5
3266.03344230246	908
3267.99303568784	904.5
3269.95211145215	905
3271.91066982422	914.75
3273.86871103267	887.5
3275.82623530581	917
3277.7832428717	906
3279.73973395818	898.75
3281.69570879278	904
3283.6511676028	914.25
3285.60611061527	896.25
3287.56053805694	903.75
3289.51445015432	899.25
3291.46784713364	906.25
3293.42072922088	905
3295.37309664173	910
3297.32494962163	904.75
3299.27628838575	895
3301.227113159	905.75
3303.17742416601	906.75
3305.12722163114	906.5
3307.07650577848	913
3309.02527683185	908
3310.9735350148	909.25
3312.9212805506	905
3314.86851366225	913.5
3316.81523457249	904.75
3318.76144350377	913.25
3320.70714067825	905.75
3322.65232631783	913
3324.59700064415	915.25
3326.54116387854	909
3328.48481624207	904.5
3330.42795795551	906.75
3332.37058923938	898.25
3334.31271031389	906.25
3336.25432139898	903.25
3338.19542271432	908.5
3340.13601447927	915.75
3342.07609691292	896.5
3344.01567023407	915.75
3345.95473466124	922.75
3347.89329041266	901.5
3349.83133770627	898
3351.76887675973	898.75
3353.70590779039	910.25
3355.64243101534	908
3357.57844665135	909.25
3359.51395491492	913.25
3361.44895602224	910
3363.38345018922	906.75
3365.31743763148	903
3367.25091856432	905.75
3369.18389320278	902
3371.11636176156	900
3373.0483244551	905.25
3374.97978149754	907.5
3376.91073310269	914
3378.84117948409	895.5
3380.77112085498	896
3382.70055742826	909.75
3384.62948941659	912
3386.55791703227	897.25
3388.48584048733	901.25
3390.41325999348	909
3392.34017576214	907.5
3394.2665880044	907
3396.19249693107	906
3398.11790275263	910
3400.04280567926	916
3401.96720592084	922.5
3403.89110368692	904
3405.81449918675	911
3407.73739262928	921
3409.65978422311	921.5
3411.58167417658	903
3413.50306269768	921.25
3415.42394999408	915.75
3417.34433627316	930.25
3419.26422174195	913.25
3421.18360660721	923
3423.10249107532	906
3425.02087535239	914
3426.93875964421	923.75
3428.8561441562	923
3430.77302909353	909.25
3432.68941466097	908
3434.60530106301	913
3436.52068850383	926
3438.43557718726	916.25
3440.34996731681	910
3442.26385909565	908
3444.17725272664	912.5
3446.09014841231	917.5
3448.00254635486	917.25
3449.91444675614	918
3451.82584981771	916.5
3453.73675574076	920.25
3455.64716472616	904.75
3457.55707697445	903.75
3459.46649268584	911
3461.37541206018	900.25
3463.28383529703	915
3465.19176259555	908.5
3467.09919415464	908
3469.00613017278	908.25
3470.91257084817	906
3472.81851637863	890.25
3474.72396696168	926.5
3476.62892279446	920.5
3478.53338407379	899.75
3480.43735099614	896.5
3482.34082375764	905.75
3484.24380255404	908.5
3486.1462875808	908.75
3488.048279033	918.25
3489.94977710537	898
3491.85078199231	913.5
3493.75129388783	906.5
3495.65131298566	910.5
3497.5508394791	901.25
3499.44987356115	887.75