200.090469251518	1890
202.974751419362	1855
205.858021632263	1874
208.740280737522	1862
211.621529580443	1870
214.501769004371	1919
217.380999850626	1883
220.25922295859	1953
223.136439165646	1904
226.012649307235	1918
228.88785421682	1892
231.762054725918	1903
234.635251664113	1887
237.507445859021	1933
240.378638136346	1959
243.248829319855	1986
246.11802023137	1953
248.986211690826	1925
251.853404516227	1984
254.719599523654	1953
257.584797527335	1931
260.44899933954	2006
263.312205770682	1985
266.174417629303	1980
269.035635722015	1967
271.895860853609	1967
274.755093826978	1924
277.613335443144	1986
280.470586501309	1965
283.326847798766	1945
286.182120131019	1979
289.036404291684	1986
291.889701072574	2005
294.742011263643	2019
297.593335653048	2009
300.443675027094	2008
303.293030170295	2012
306.141401865367	2028
308.988790893174	2021
311.835198032837	1976
314.680624061635	2060
317.525069755113	1978
320.36853588697	2033
323.211023229178	2018
326.052532551923	2028
328.893064623604	2062
331.732620210885	2069
334.57120007867	2067
337.408804990093	1991
340.245435706565	2086
343.081092987733	2046
345.915777591523	2090
348.749490274145	2066
351.582231790049	2092
354.414002891997	2109
357.244804331021	2051
360.074636856443	2082
362.903501215886	2110
365.731398155265	2102
368.558328418814	2132
371.384292749062	2148
374.209291886869	2153
377.033326571407	2185
379.85639754017	2164
382.678505529009	2124
385.499651272065	2201
388.319835501872	2154
391.139058949258	2164
393.957322343453	2146
396.774626412011	2120
399.590971880847	2107
402.406359474258	2180
405.220789914893	2203
408.034263923801	2187
410.8467822204	2158
413.658345522483	2188
416.468954546242	2177
419.278610006277	2210
422.087312615557	2176
424.895063085503	2210
427.701862125901	2248
430.507710444981	2220
433.312608749366	2251
436.116557744146	2263
438.919558132791	2203
441.721610617238	2270
444.522715897856	2243
447.322874673457	2244
450.122087641299	2254
452.920355497092	2296
455.717678935009	2225
458.514058647681	2255
461.309495326219	2277
464.103989660191	2223
466.89754233765	2273
469.690154045114	2265
472.481825467625	2205
475.272557288674	2231
478.062350190281	2287
480.851204852952	2253
483.639121955683	2232
486.426102176007	2307
489.212146189955	2265
491.997254672093	2342
494.781428295471	2293
497.564667731716	2313
500.346973650958	2267
503.128346721878	2318
505.90878761169	2303
508.688296986151	2359
511.46687550957	2339
514.244523844831	2311
517.021242653354	2349
519.797032595132	2367
522.571894328732	2337
525.345828511279	2301
528.11883579849	2359
530.890916844655	2342
533.662072302668	2350
536.432302823985	2333
539.201609058684	2320
541.96999165542	2362
544.737451261473	2344
547.503988522723	2313
550.26960408366	2344
553.034298587394	2352
555.798072675669	2328
558.560926988819	2382
561.322862165849	2368
564.083878844369	2364
566.843977660654	2368
569.603159249604	2353
572.361424244769	2360
575.118773278369	2395
577.87520698124	2398
580.630725982905	2429
583.385330911566	2420
586.139022394076	2370
588.891801055954	2429
591.643667521406	2409
594.394622413318	2409
597.144666353273	2423
599.893799961512	2437
602.64202385701	2430
605.389338657413	2374
608.135744979089	2387
610.881243437092	2397
613.625834645191	2425
616.369519215881	2434
619.112297760374	2394
621.854170888604	2384
624.595139209225	2378
627.335203329614	2411
630.074363855914	2463
632.81262139299	2423
635.549976544436	2437
638.286429912612	2432
641.021982098635	2436
643.756633702364	2408
646.49038532241	2438
649.223237556176	2468
651.955190999808	2467
654.686246248224	2509
657.416403895135	2444
660.145664533011	2486
662.874028753133	2476
665.601497145537	2425
668.328070299071	2520
671.05374880138	2532
673.778533238885	2539
676.502424196839	2557
679.225422259297	2587
681.947528009099	2518
684.668742027927	2524
687.389064896281	2503
690.108497193465	2500
692.827039497621	2508
695.544692385724	2533
698.261456433585	2519
700.977332215847	2528
703.692320305981	2528
706.406421276337	2508
709.11963569808	2517
711.831964141256	2513
714.54340717474	2492
717.253965366304	2584
719.963639282552	2541
722.672429488961	2573
725.380336549904	2590
728.087361028596	2611
730.793503487166	2622
733.498764486594	2549
736.203144586758	2560
738.906644346447	2573
741.60926432331	2575
744.311005073912	2598
747.011867153727	2600
749.711851117121	2633
752.410957517375	2612
755.109186906677	2605
757.806539836132	2631
760.503016855779	2658
763.198618514551	2613
765.893345360346	2675
768.587197939964	2631
771.28017679914	2637
773.972282482566	2666
776.663515533859	2663
779.353876495581	2615
782.043365909241	2586
784.731984315327	2692
787.419732253235	2707
790.106610261366	2662
792.792618877058	2645
795.477758636618	2655
798.162030075313	2708
800.845433727423	2644
803.52797012615	2696
806.209639803714	2694
808.890443291304	2689
811.570381119098	2682
814.249453816265	2700
816.927661910959	2700
819.60500593036	2724
822.281486400603	2748
824.957103846864	2694
827.631858793316	2755
830.305751763135	2745
832.978783278519	2745
835.650953860677	2730
838.322264029848	2790
840.992714305292	2763
843.662305205289	2859
846.331037247157	2806
848.998910947241	2856
851.665926820933	2804
854.332085382674	2822
856.997387145915	2852
859.661832623191	2764
862.325422326066	2772
864.988156765172	2842
867.650036450181	2824
870.311061889846	2798
872.971233591961	2889
875.630552063409	2817
878.28901781013	2877
880.946631337138	2831
883.603393148533	2917
886.259303747484	2892
888.914363636246	2870
891.568573316155	2872
894.22193328767	2906
896.874444050281	2847
899.526106102625	2859
902.176919942416	2889
904.826886066483	2896
907.476004970747	2971
910.124277150255	2953
912.77170309913	2935
915.418283310642	3044
918.064018277175	2946
920.708908490222	2919
923.352954440405	2949
925.996156617486	2974
928.638515510334	2923
931.280031606966	2899
933.920705394521	3040
936.560537359303	3029
939.199527986737	3033
941.837677761392	3047
944.474987167006	3000
947.111456686438	3019
949.747086801734	3089
952.38187799407	3053
955.015830743792	3112
957.648945530418	3046
960.281222832633	3004
962.91266312826	3096
965.543266894336	3023
968.173034607058	3084
970.801966741779	3055
973.43006377307	3051
976.057326174661	3029
978.683754419471	3100
981.309348979623	3126
983.93411032642	3121
986.558038930361	3165
989.181135261144	3082
991.803399787692	3131
994.424832978086	3152
997.045435299653	3186
999.665207218906	3191
1002.2841492016	3171
1004.90226171266	3172
1007.51954521628	3262
1010.13600017584	3208
1012.75162705397	3195
1015.3664263125	3259
1017.9803984125	3294
1020.5935438143	3336
1023.20586297741	3238
1025.81735636063	3341
1028.42802442196	3273
1031.03786761869	3363
1033.64688640732	3327
1036.2550812436	3339
1038.86245258255	3337
1041.46900087844	3389
1044.07472658479	3373
1046.67963015438	3381
1049.28371203927	3462
1051.88697269075	3477
1054.48941255943	3473
1057.09103209513	3574
1059.691831747	3705
1062.29181196343	3614
1064.89097319211	3596
1067.48931587999	3564
1070.08684047333	3513
1072.68354741766	3465
1075.27943715779	3584
1077.87451013787	3484
1080.46876680127	3467
1083.06220759071	3612
1085.65483294822	3534
1088.24664331509	3641
1090.83763913194	3548
1093.42782083869	3616
1096.01718887459	3558
1098.60574367818	3600
1101.19348568732	3541
1103.78041533919	3668
1106.3665330703	3615
1108.95183931646	3570
1111.53633451284	3709
1114.12001909391	3678
1116.70289349349	3707
1119.2849581447	3779
1121.86621348005	3838
1124.44665993134	3935
1127.02629792973	3940
1129.60512790574	4004
1132.18315028919	4006
1134.76036550929	3892
1137.3367739946	3880
1139.912376173	3900
1142.48717247176	3932
1145.06116331748	3851
1147.63434913616	3957
1150.20673035312	3915
1152.77830739307	3919
1155.34908068007	3967
1157.91905063757	3967
1160.48821768838	3993
1163.05658225471	3926
1165.6241447581	4092
1168.19090561951	3987
1170.75686525927	3978
1173.32202409708	3947
1175.88638255206	4033
1178.44994104269	4024
1181.01269998684	4065
1183.57465980182	4117
1186.13582090427	4051
1188.69618371026	4135
1191.25574863529	4069
1193.8145160942	4051
1196.37248650129	4096
1198.92966027025	4165
1201.48603781416	4147
1204.04161954556	4113
1206.59640587635	4253
1209.15039721788	4212
1211.70359398092	4246
1214.25599657564	4297
1216.80760541166	4231
1219.35842089801	4240
1221.90844344314	4326
1224.45767345496	4260
1227.00611134077	4328
1229.55375750736	4394
1232.10061236092	4495
1234.64667630707	4381
1237.1919497509	4532
1239.73643309692	4565
1242.28012674912	4509
1244.82303111089	4494
1247.36514658511	4664
1249.9064735741	4529
1252.44701247964	4643
1254.98676370294	4737
1257.52572764469	4727
1260.06390470506	4767
1262.60129528365	4842
1265.13789977954	4825
1267.67371859128	4813
1270.20875211688	4834
1272.74300075384	4893
1275.2764648991	4856
1277.80914494911	4966
1280.34104129978	5022
1282.87215434652	5086
1285.40248448419	5094
1287.93203210715	5163
1290.46079760927	5320
1292.98878138385	5360
1295.51598382375	5462
1298.04240532127	5370
1300.56804626822	5373
1303.09290705593	5381
1305.6169880752	5362
1308.14028971632	5408
1310.66281236913	5499
1313.18455642292	5541
1315.70552226653	5532
1318.22571028829	5530
1320.74512087603	5660
1323.26375441711	5682
1325.7816112984	5728
1328.29869190629	5734
1330.81499662666	5840
1333.33052584497	5911
1335.84527994613	5978
1338.35925931464	6001
1340.87246433446	6142
1343.38489538916	6179
1345.89655286177	6230
1348.40743713487	6234
1350.91754859059	6292
1353.42688761059	6324
1355.93545457606	6422
1358.44324986772	6546
1360.95027386588	6658
1363.45652695032	6576
1365.96200950042	6789
1368.4667218951	6789
1370.97066451281	6872
1373.47383773156	6884
1375.97624192891	6921
1378.47787748199	6901
1380.97874476746	6917
1383.47884416157	7059
1385.97817604009	7040
1388.4767407784	7107
1390.9745387514	7113
1393.47157033358	7302
1395.96783589898	7352
1398.46333582124	7299
1400.95807047354	7505
1403.45204022864	7508
1405.94524545889	7673
1408.4376865362	7611
1410.92936383205	7627
1413.42027771752	7947
1415.91042856328	7970
1418.39981673955	8118
1420.88844261615	8078
1423.37630656249	8122
1425.86340894757	8337
1428.34975013999	8377
1430.83533050792	8713
1433.32015041912	8766
1435.80421024098	8997
1438.28751034045	9104
1440.77005108411	9297
1443.25183283812	9350
1445.73285596824	9325
1448.21312083984	9498
1450.69262781791	9638
1453.17137726702	9769
1455.64936955137	9874
1458.12660503477	10023
1460.60308408063	10006
1463.07880705197	10238
1465.55377431145	10363
1468.02798622133	10380
1470.50144314348	10457
1472.97414543941	10458
1475.44609347024	10660
1477.91728759673	10823
1480.38772817924	11109
1482.85741557777	11066
1485.32635015194	11112
1487.79453226103	11270
1490.26196226391	11204
1492.72864051911	11518
1495.1945673848	11581
1497.65974321874	11893
1500.1241683784	11838
1502.58784322083	11990
1505.05076810274	12042
1507.51294338049	12204
1509.97436941009	12264
1512.43504654717	12488
1514.89497514704	12674
1517.35415556462	12843
1519.81258815451	13029
1522.27027327095	13168
1524.72721126784	13380
1527.18340249874	13546
1529.63884731684	13855
1532.09354607502	13860
1534.5474991258	13988
1537.00070682136	14166
1539.45316951355	14383
1541.90488755388	14432
1544.35586129353	14605
1546.80609108336	14917
1549.25557727385	15000
1551.70432021519	15071
1554.15232025725	15295
1556.59957774953	15570
1559.04609304125	15982
1561.49186648127	15769
1563.93689841815	16229
1566.38118920011	16165
1568.82473917506	16464
1571.2675486906	16699
1573.70961809399	17044
1576.15094773219	17017
1578.59153795184	17149
1581.03138909928	17301
1583.47050152051	17601
1585.90887556123	17581
1588.34651156686	17852
1590.78340988246	18117
1593.21957085283	18219
1595.65499482245	18298
1598.08968213547	18330
1600.52363313578	18590
1602.95684816694	18693
1605.38932757224	18813
1607.82107169462	18823
1610.25208087677	18861
1612.68235546107	18963
1615.1118957896	19125
1617.54070220415	19249
1619.96877504621	19295
1622.39611465701	19647
1624.82272137746	19508
1627.24859554818	19713
1629.67373750953	19685
1632.09814760155	19821
1634.52182616404	19894
1636.94477353647	20339
1639.36699005806	19874
1641.78847606776	20590
1644.20923190418	20462
1646.62925790573	20553
1649.04855441048	20688
1651.46712175628	21073
1653.88496028066	21294
1656.3020703209	21307
1658.71845221401	21421
1661.13410629671	21615
1663.54903290547	21751
1665.96323237649	21976
1668.37670504571	22162
1670.78945124877	22253
1673.20147132109	22425
1675.61276559779	22824
1678.02333441377	22751
1680.43317810362	22782
1682.84229700171	23258
1685.25069144213	23240
1687.65836175872	23468
1690.06530828507	23579
1692.47153135451	23597
1694.87703130009	23790
1697.28180845467	24038
1699.6858631508	24081
1702.08919572081	24155
1704.49180649676	24362
1706.89369581049	24216
1709.29486399355	24346
1711.69531137731	24525
1714.09503829282	24519
1716.49404507095	24652
1718.89233204229	24592
1721.28989953721	24622
1723.68674788581	24928
1726.08287741798	24914
1728.47828846338	25038
1730.87298135139	24835
1733.26695641119	25273
1735.66021397173	25387
1738.05275436169	25366
1740.44457790954	25541
1742.83568494354	25489
1745.22607579168	25864
1747.61575078175	25547
1750.00471024128	25763
1752.39295449761	25931
1754.78048387783	25898
1757.16729870881	26062
1759.5533993172	26528
1761.93878602942	26444
1764.32345917168	26540
1766.70741906995	26869
1769.09066604999	26729
1771.47320043735	27095
1773.85502255735	27076
1776.2361327351	27167
1778.61653129548	27375
1780.99621856318	27451
1783.37519486264	27799
1785.75346051813	27974
1788.13101585368	28109
1790.5078611931	28266
1792.88399686002	28298
1795.25942317785	28260
1797.63414046977	28487
1800.00814905878	28656
1802.38144926766	28867
1804.75404141898	28927
1807.12592583514	28959
1809.49710283829	29616
1811.86757275039	29343
1814.23733589322	29384
1816.60639258834	29440
1818.97474315712	29433
1821.34238792073	29895
1823.70932720012	29631
1826.07556131608	30043
1828.44109058918	30044
1830.8059153398	30164
1833.17003588812	30121
1835.53345255413	30191
1837.89616565765	30737
1840.25817551827	30184
1842.61948245541	30804
1844.9800867883	30518
1847.33998883598	31009
1849.69918891729	31073
1852.05768735091	31202
1854.4154844553	30967
1856.77258054875	31525
1859.12897594938	31495
1861.4846709751	31585
1863.83966594366	31527
1866.19396117261	31664
1868.54755697932	31844
1870.90045368099	31908
1873.25265159463	31920
1875.60415103708	32339
1877.95495232501	32781
1880.30505577486	32824
1882.65446170299	33018
1885.00317042548	33338
1887.35118225832	33335
1889.69849751726	33310
1892.04511651792	33394
1894.39103957574	33874
1896.73626700596	33925
1899.08079912368	34201
1901.42463624384	34379
1903.76777868116	34558
1906.11022675025	34675
1908.4519807655	34528
1910.79304104117	34907
1913.13340789134	35167
1915.47308162992	34912
1917.81206257067	35015
1920.15035102718	35426
1922.48794731286	35189
1924.82485174096	35381
1927.16106462461	35554
1929.49658627672	35518
1931.83141701008	35660
1934.1655571373	35486
1936.49900697085	36015
1938.83176682301	35750
1941.16383700594	35869
1943.49521783161	35723
1945.82590961186	36026
1948.15591265835	35641
1950.48522728262	36092
1952.81385379602	35804
1955.14179250976	36028
1957.46904373489	35982
1959.79560778233	35887
1962.12148496284	35838
1964.44667558701	36023
1966.77117996529	35872
1969.09499840799	36231
1971.41813122527	36367
1973.74057872714	36663
1976.06234122345	36529
1978.38341902391	36661
1980.7038124381	37004
1983.02352177543	37045
1985.34254734518	36948
1987.66088945649	37406
1989.97854841833	37185
1992.29552453956	37139
1994.61181812887	37216
1996.92742949483	37505
1999.24235894586	37914
2001.55660679023	37984
2003.87017333608	38068
2006.18305889143	38104
2008.49526376413	38421
2010.80678826189	38491
2013.1176326923	38921
2015.42779736282	38960
2017.73728258075	38969
2020.04608865326	39013
2022.3542158874	39041
2024.66166459008	39449
2026.96843506807	39682
2029.274527628	40039
2031.57994257637	40098
2033.88468021957	39732
2036.18874086383	40057
2038.49212481526	40449
2040.79483237983	40431
2043.0968638634	40433
2045.39821957169	40575
2047.69889981028	40640
2049.99890488462	40734
2052.29823510006	40974
2054.59689076181	40874
2056.89487217492	41125
2059.19217964437	41052
2061.48881347497	40923
2063.7847739714	41467
2066.08006143826	41556
2068.37467618	41448
2070.66861850093	41611
2072.96188870527	41516
2075.25448709707	41544
2077.54641398031	41744
2079.83766965881	41598
2082.12825443629	41888
2084.41816861634	41869
2086.70741250242	41800
2088.99598639789	41858
2091.28389060597	41915
2093.57112542978	41851
2095.85769117232	42420
2098.14358813644	42198
2100.42881662491	42071
2102.71337694037	42834
2104.99726938532	42568
2107.28049426219	42053
2109.56305187325	42698
2111.84494252069	43103
2114.12616650655	43140
2116.40672413278	42881
2118.68661570121	43101
2120.96584151355	43530
2123.24440187138	43751
2125.52229707622	43587
2127.79952742943	43385
2130.07609323227	43837
2132.35199478588	43861
2134.62723239132	43896
2136.90180634949	44175
2139.17571696123	44261
2141.44896452723	44323
2143.72154934809	44633
2145.99347172429	44439
2148.26473195623	44486
2150.53533034415	45321
2152.80526718821	45146
2155.07454278848	44986
2157.3431574449	44782
2159.61111145728	45390
2161.87840512538	44892
2164.1450387488	44868
2166.41101262707	45282
2168.67632705959	45280
2170.94098234567	45082
2173.20497878451	44968
2175.46831667519	45291
2177.73099631672	45010
2179.99301800797	45017
2182.25438204772	44948
2184.51508873466	44885
2186.77513836735	44812
2189.03453124427	44783
2191.29326766378	44628
2193.55134792416	44467
2195.80877232355	44679
2198.06554116004	44585
2200.32165473157	44532
2202.577113336	44229
2204.83191727111	44359
2207.08606683453	44192
2209.33956232384	44334
2211.59240403648	44158
2213.84459226982	43886
2216.09612732112	44054
2218.34700948753	43762
2220.59723906612	43838
2222.84681635385	43819
2225.09574164758	43433
2227.34401524408	43464
2229.59163744002	43261
2231.83860853197	43079
2234.08492881639	42943
2236.33059858968	42605
2238.5756181481	43427
2240.81998778784	42952
2243.06370780499	42351
2245.30677849555	42542
2247.54920015539	42368
2249.79097308033	42497
2252.03209756607	41820
2254.27257390822	41945
2256.51240240228	41702
2258.75158334369	41547
2260.99011702777	41262
2263.22800374976	41320
2265.46524380477	41140
2267.70183748786	40965
2269.93778509399	41119
2272.17308691801	40713
2274.40774325467	40722
2276.64175439866	40552
2278.87512064454	40535
2281.10784228682	40226
2283.33991961987	40182
2285.571352938	39998
2287.80214253541	39623
2290.03228870623	39891
2292.26179174449	39607
2294.4906519441	39675
2296.71886959892	39392
2298.9464450027	39046
2301.1733784491	39082
2303.39967023169	38835
2305.62532064395	38560
2307.85032997926	38585
2310.07469853093	38194
2312.29842659216	38292
2314.52151445608	38111
2316.7439624157	37938
2318.96577076397	37596
2321.18693979374	37639
2323.40746979777	37570
2325.62736106873	37350
2327.8466138992	37153
2330.06522858166	36633
2332.28320540853	37010
2334.50054467212	36555
2336.71724666465	36488
2338.93331167827	36222
2341.14874000501	36232
2343.36353193685	36214
2345.57768776564	35851
2347.79120778319	35567
2350.00409228117	35490
2352.21634155121	35706
2354.42795588482	35184
2356.63893557342	35046
2358.84928090838	34865
2361.05899218094	34768
2363.26806968228	34370
2365.47651370347	34325
2367.68432453552	34316
2369.89150246933	34344
2372.09804779571	33960
2374.30396080541	33690
2376.50924178907	33652
2378.71389103725	33551
2380.91790884042	33591
2383.12129548897	33047
2385.3240512732	33029
2387.52617648332	32740
2389.72767140946	32905
2391.92853634165	32518
2394.12877156985	32660
2396.32837738392	32679
2398.52735407365	32143
2400.72570192873	31953
2402.92342123875	31897
2405.12051229325	31734
2407.31697538167	31526
2409.51281079333	31347
2411.70801881751	31313
2413.90259974339	31274
2416.09655386004	31285
2418.28988145648	30816
2420.48258282162	30862
2422.6746582443	30819
2424.86610801325	30875
2427.05693241713	30378
2429.24713174452	30287
2431.43670628389	30311
2433.62565632365	30221
2435.81398215212	29912
2438.00168405752	29828
2440.18876232799	29708
2442.37521725158	29555
2444.56104911628	29370
2446.74625820994	29440
2448.93084482038	29174
2451.1148092353	29198
2453.29815174233	29082
2455.480872629	28801
2457.66297218275	28583
2459.84445069097	28449
2462.02530844092	28406
2464.2055457198	28133
2466.38516281471	28310
2468.56416001267	27755
2470.74253760061	27856
2472.92029586537	27655
2475.09743509372	27699
2477.27395557232	27531
2479.44985758777	27492
2481.62514142655	27294
2483.79980737508	27471
2485.97385571969	27241
2488.14728674661	27017
2490.32010074198	26920
2492.49229799188	26959
2494.66387878228	26749
2496.83484339905	27127
2499.00519212802	26837
2501.17492525488	26597
2503.34404306528	26519
2505.51254584473	26723
2507.6804338787	26592
2509.84770745254	26497
2512.01436685153	26161
2514.18041236085	26035
2516.34584426561	26255
2518.51066285081	26079
2520.67486840138	26091
2522.83846120214	26072
2525.00144153784	25927
2527.16380969314	25881
2529.32556595261	25980
2531.48671060072	25834
2533.64724392186	25632
2535.80716620033	25585
2537.96647772034	25304
2540.12517876602	25247
2542.2832696214	25405
2544.44075057041	25144
2546.59762189691	25011
2548.75388388466	25020
2550.90953681735	24951
2553.06458097853	24772
2555.21901665172	24690
2557.37284412031	24677
2559.5260636676	24623
2561.67867557684	24528
2563.83068013113	24156
2565.98207761351	24144
2568.13286830695	23995
2570.28305249429	23919
2572.43263045829	23916
2574.58160248163	23782
2576.72996884689	23642
2578.87772983655	23490
2581.02488573303	23554
2583.1714368186	23446
2585.31738337549	23265
2587.46272568582	23378
2589.60746403161	23328
2591.75159869479	23419
2593.89512995722	22962
2596.03805810061	22882
2598.18038340665	22916
2600.32210615686	22657
2602.46322663274	22793
2604.60374511563	22601
2606.74366188683	22419
2608.88297722751	22378
2611.02169141875	22499
2613.15980474156	22576
2615.29731747681	22346
2617.43422990532	22324
2619.57054230779	22165
2621.70625496483	22298
2623.84136815694	22321
2625.97588216456	22358
2628.10979726799	22142
2630.24311374746	22188
2632.3758318831	22243
2634.50795195493	21999
2636.6394742429	22160
2638.77039902682	22071
2640.90072658645	21992
2643.0304572014	21704
2645.15959115123	21850
2647.28812871538	21808
2649.41607017319	21787
2651.5434158039	21881
2653.67016588665	21800
2655.79632070049	21683
2657.92188052436	21609
2660.04684563711	21590
2662.17121631749	21854
2664.29499284413	21707
2666.41817549558	21712
2668.54076455027	21602
2670.66276028656	21421
2672.78416298267	21632
2674.90497291675	21287
2677.02519036682	21353
2679.14481561082	21478
2681.26384892658	21447
2683.38229059182	21463
2685.50014088417	21323
2687.61740008114	21534
2689.73406846017	21194
2691.85014629854	21322
2693.96563387347	21245
2696.08053146206	21258
2698.1948393413	21038
2700.3085577881	21187
2702.42168707924	21156
2704.53422749139	21164
2706.64617930112	21080
2708.75754278492	21114
2710.86831821913	21320
2712.97850588002	21072
2715.08810604372	21132
2717.19711898628	20973
2719.30554498363	21107
2721.41338431158	20898
2723.52063724586	20873
2725.62730406206	20888
2727.73338503569	20979
2729.83888044213	20845
2731.94379055664	21062
2734.04811565441	21116
2736.15185601048	21097
2738.25501189979	20869
2740.35758359718	20679
2742.45957137738	20990
2744.56097551499	21064
2746.6617962845	20796
2748.7620339603	20840
2750.86168881666	21124
2752.96076112774	20882
2755.05925116758	20985
2757.15715921012	20988
2759.25448552917	20805
2761.35123039843	20732
2763.44739409148	20904
2765.5429768818	20574
2767.63797904275	20773
2769.73240084756	20935
2771.82624256934	20951
2773.91950448113	20810
2776.01218685579	21005
2778.10428996609	20986
2780.19581408469	20972
2782.28675948414	21046
2784.37712643683	21022
2786.46691521507	20881
2788.55612609104	20769
2790.64475933678	21008
2792.73281522425	20662
2794.82029402525	20897
2796.90719601149	20805
2798.99352145453	20756
2801.07927062583	20927
2803.16444379672	20888
2805.24904123841	20940
2807.33306322197	20858
2809.41651001838	21064
2811.49938189847	21036
2813.58167913296	21105
2815.66340199243	21181
2817.74455074734	21148
2819.82512566805	21044
2821.90512702475	20982
2823.98455508754	21108
2826.06341012637	21056
2828.14169241109	21197
2830.2194022114	21286
2832.29653979686	21581
2834.37310543694	21651
2836.44909940096	22099
2838.5245219581	22196
2840.59937337744	22632
2842.67365392791	22721
2844.74736387829	23055
2846.82050349727	23207
2848.8930730534	23345
2850.96507281506	23238
2853.03650305056	23223
2855.10736402802	22930
2857.17765601545	22865
2859.24737928074	23001
2861.31653409164	22795
2863.38512071574	22641
2865.45313942054	22819
2867.52059047335	22649
2869.58747414139	22839
2871.65379069173	22763
2873.7195403913	23241
2875.78472350688	23184
2877.84934030515	23535
2879.91339105262	23851
2881.97687601567	23905
2884.03979546053	23883
2886.10214965332	23479
2888.16393886	23401
2890.22516334639	23463
2892.28582337816	23169
2894.34591922087	23528
2896.40545113992	23350
2898.46441940054	23613
2900.52282426787	23326
2902.58066600687	23585
2904.63794488237	23521
2906.69466115906	23124
2908.75081510147	23435
2910.806406974	23460
2912.8614370409	23471
2914.91590556626	23429
2916.96981281404	23406
2919.02315904807	23576
2921.07594453199	23832
2923.12816952932	23492
2925.17983430343	23423
2927.23093911753	23494
2929.28148423469	23564
2931.33146991782	23484
2933.3808964297	23510
2935.42976403294	23666
2937.47807299	23453
2939.5258235632	23631
2941.57301601469	23493
2943.61965060648	23202
2945.66572760042	23155
2947.71124725823	23506
2949.75620984143	23374
2951.80061561143	23505
2953.84446482945	23326
2955.88775775656	23349
2957.9304946537	23093
2959.97267578162	23460
2962.01430140095	23304
2964.05537177211	23653
2966.09588715541	23531
2968.13584781097	23806
2970.17525399875	23836
2972.21410597859	23461
2974.25240401011	24004
2976.29014835283	23773
2978.32733926604	23889
2980.36397700892	24062
2982.40006184049	24172
2984.43559401955	24136
2986.4705738048	24127
2988.50500145473	24141
2990.53887722771	24409
2992.57220138189	24417
2994.6049741753	24397
2996.63719586576	24579
2998.66886671097	24658
3000.69998696843	24774
3002.73055689549	24845
3004.7605767493	25036
3006.79004678688	24957
3008.81896726505	25155
3010.84733844048	25090
3012.87516056966	25218
3014.9024339089	25206
3016.92915871433	25487
3018.95533524196	25685
3020.98096374756	25675
3023.00604448675	25641
3025.030577715	25860
3027.05456368757	25752
3029.07800265956	25783
3031.10089488589	25792
3033.12324062131	26030
3035.14504012038	26274
3037.16629363749	26011
3039.18700142685	26340
3041.20716374249	25810
3043.22678083826	26028
3045.24585296782	26034
3047.26438038468	26102
3049.28236334212	26102
3051.29980209329	26344
3053.31669689111	26221
3055.33304798835	26272
3057.34885563757	26371
3059.36412009117	26189
3061.37884160134	26106
3063.39302042011	26568
3065.40665679931	26379
3067.41975099058	26467
3069.43230324538	26643
3071.44431381495	26441
3073.45578295041	26497
3075.46671090261	26451
3077.47709792227	26546
3079.48694425989	26401
3081.49625016578	26685
3083.50501589008	26565
3085.5132416827	26669
3087.5209277934	26669
3089.52807447169	26498
3091.53468196695	26938
3093.54075052832	26527
3095.54628040476	26654
3097.55127184503	26734
3099.55572509769	26785
3101.55964041111	26778
3103.56301803346	26820
3105.5658582127	26627
3107.56816119661	27084
3109.56992723275	26610
3111.57115656849	26842
3113.571849451	26748
3115.57200612724	26984
3117.57162684397	26994
3119.57071184775	27070
3121.56926138493	27026
3123.56727570166	27207
3125.56475504389	27320
3127.56169965735	27325
3129.55810978757	27465
3131.55398567987	27563
3133.54932757937	27397
3135.54413573099	27848
3137.53841037939	27530
3139.53215176909	27572
3141.52536014435	27696
3143.51803574924	27508
3145.51017882762	27723
3147.50178962311	27980
3149.49286837916	27687
3151.48341533897	27792
3153.47343074553	27975
3155.46291484164	27987
3157.45186786985	27767
3159.44029007252	27730
3161.42818169179	27912
3163.41554296955	27883
3165.40237414753	28162
3167.38867546718	28351
3169.37444716975	27828
3171.35968949631	28108
3173.34440268764	27926
3175.32858698436	28284
3177.31224262682	28324
3179.29536985517	28156
3181.27796890934	28316
3183.26004002902	28345
3185.24158345368	28406
3187.22259942256	28494
3189.2030881747	28385
3191.18304994886	28427
3193.16248498363	28651
3195.14139351733	28490
3197.11977578807	28566
3199.09763203371	28532
3201.07496249191	28656
3203.05176740007	28514
3205.02804699537	28454
3207.00380151475	28895
3208.97903119493	28690
3210.95373627238	28767
3212.92791698335	28899
3214.90157356383	28769
3216.8747062496	29105
3218.84731527619	29165
3220.81940087889	29115
3222.79096329275	29537
3224.76200275259	29285
3226.73251949298	29804
3228.70251374825	29683
3230.67198575251	29360
3232.64093573959	29669
3234.6093639431	29830
3236.57727059641	29844
3238.54465593261	29953
3240.51152018461	30069
3242.47786358502	29786
3244.44368636621	29872
3246.40898876031	29849
3248.37377099923	29952
3250.33803331458	30014
3252.30177593775	30300
3254.26499909987	30256
3256.22770303184	30474
3258.18988796427	30021
3260.15155412755	30354
3262.1127017518	30218
3264.0733310669	30127
3266.03344230246	30259
3267.99303568784	30461
3269.95211145215	30169
3271.91066982422	30556
3273.86871103267	30262
3275.82623530581	30536
3277.7832428717	30529
3279.73973395818	30484
3281.69570879278	30895
3283.6511676028	30707
3285.60611061527	30721
3287.56053805694	30763
3289.51445015432	30703
3291.46784713364	30741
3293.42072922088	30806
3295.37309664173	30716
3297.32494962163	30665
3299.27628838575	30425
3301.227113159	30792
3303.17742416601	30744
3305.12722163114	30852
3307.07650577848	30766
3309.02527683185	30863
3310.9735350148	30870
3312.9212805506	30968
3314.86851366225	30961
3316.81523457249	30868
3318.76144350377	30860
3320.70714067825	30919
3322.65232631783	30720
3324.59700064415	30936
3326.54116387854	30660
3328.48481624207	30705
3330.42795795551	30832
3332.37058923938	30566
3334.31271031389	30708
3336.25432139898	30516
3338.19542271432	30586
3340.13601447927	30749
3342.07609691292	30406
3344.01567023407	30792
3345.95473466124	30539
3347.89329041266	30644
3349.83133770627	30710
3351.76887675973	30429
3353.70590779039	30582
3355.64243101534	30479
3357.57844665135	30372
3359.51395491492	30713
3361.44895602224	30745
3363.38345018922	30681
3365.31743763148	30395
3367.25091856432	30738
3369.18389320278	30473
3371.11636176156	30761
3373.0483244551	30844
3374.97978149754	30752
3376.91073310269	30862
3378.84117948409	30732
3380.77112085498	30817
3382.70055742826	30794
3384.62948941659	30830
3386.55791703227	30721
3388.48584048733	30630
3390.41325999348	30821
3392.34017576214	31093
3394.2665880044	30873
3396.19249693107	31002
3398.11790275263	30756
3400.04280567926	31148
3401.96720592084	31314
3403.89110368692	30782
3405.81449918675	31039
3407.73739262928	30799
3409.65978422311	31046
3411.58167417658	31243
3413.50306269768	31184
3415.42394999408	31006
3417.34433627316	31260
3419.26422174195	31016
3421.18360660721	31214
3423.10249107532	30940
3425.02087535239	30890
3426.93875964421	31242
3428.8561441562	31050
3430.77302909353	30920
3432.68941466097	31009
3434.60530106301	30849
3436.52068850383	30752
3438.43557718726	31034
3440.34996731681	30618
3442.26385909565	30808
3444.17725272664	30756
3446.09014841231	30863
3448.00254635486	30636
3449.91444675614	30738
3451.82584981771	30669
3453.73675574076	30575
3455.64716472616	30426
3457.55707697445	30418
3459.46649268584	30545
3461.37541206018	30692
3463.28383529703	30540
3465.19176259555	30268
3467.09919415464	30441
3469.00613017278	30132
3470.91257084817	30520
3472.81851637863	30362
3474.72396696168	30323
3476.62892279446	30200
3478.53338407379	30398
3480.43735099614	30435
3482.34082375764	30061
3484.24380255404	30197
3486.1462875808	30305
3488.048279033	30211
3489.94977710537	30057
3491.85078199231	30206
3493.75129388783	30089
3495.65131298566	29997
3497.5508394791	30096
3499.44987356115	30116
