201.866871357051	931.75
204.754250281454	938.75
207.640596790938	940
210.525911876299	953.5
213.410196525689	940.75
216.293451724508	945.25
219.175678455485	937.5
222.056877698662	936.25
224.937050431388	936.5
227.816197628363	940
230.694320261602	933.5
233.571419300504	938.5
236.447495711764	950.5
239.322550459507	926
242.196584505182	946
245.069598807626	945.5
247.941594323078	945
250.812572005154	939.25
253.682532804884	946
256.551477670699	948.75
259.419407548456	951.75
262.286323381439	952
265.152226110364	963.5
268.017116673389	952
270.880996006115	965.25
273.743865041622	951.75
276.605724710436	950
279.466575940562	958
282.326419657496	959.5
285.1852567842	961.75
288.043088241157	969.5
290.899914946349	958
293.75573781526	957
296.610557760898	962.5
299.464375693817	941.25
302.317192522078	953.75
305.169009151297	970.5
308.019826484655	949
310.86964542287	954.75
313.718466864233	953
316.566291704614	956.75
319.413120837457	952.75
322.258955153804	966.25
325.103795542291	966.5
327.947642889128	952.25
330.79049807819	971.75
333.632361990927	949.25
336.473235506444	967.25
339.31311950145	961.75
342.152014850322	952.25
344.989922425062	969.25
347.826843095354	973
350.662777728528	977
353.497727189577	977.25
356.331692341195	979
359.164674043732	962.5
361.996673155267	990.75
364.827690531536	974
367.65772702602	997.25
370.486783489887	988.25
373.314860772047	990.5
376.14195971912	985.5
378.968081175466	979.75
381.793225983212	985.5
384.617394982201	992.25
387.44058901005	982.5
390.262808902131	986
393.08405549161	990.5
395.904329609395	988.5
398.723632084213	990.25
401.541963742569	991.75
404.359325408779	993.25
407.175717904938	977.5
409.991142050982	1009.75
412.805598664665	1000.25
415.619088561551	1007.5
418.43161255505	1003.5
421.243171456415	1003.25
424.053766074758	1018.75
426.863397217017	1002.25
429.672065688024	1006
432.479772290455	1014.25
435.286517824879	1013
438.092303089736	1008
440.897128881359	1009.25
443.70099599399	1013
446.503905219761	997.25
449.305857348711	1018.75
452.106853168796	1002
454.906893465919	1006.75
457.705979023885	1003.25
460.504110624439	1014.5
463.3012890473	1006.75
466.097515070087	1012.25
468.892789468424	1007
471.687113015869	1009.75
474.48048648395	1007
477.272910642198	1010.75
480.064386258109	1014.5
482.854914097159	1020.25
485.644494922839	1015.75
488.433129496636	1018.75
491.220818578047	1007.25
494.007562924584	1011
496.793363291785	1008.25
499.578220433217	1019
502.362135100473	1023.75
505.145108043209	1033.25
507.927140009098	1037
510.708231743909	1016.75
513.488383991433	1045
516.267597493556	1035.5
519.04587299022	1036
521.82321121946	1028.5
524.599612917398	1031.75
527.375078818233	1038.25
530.149609654287	1028.75
532.923206155967	1027
535.695869051804	1041.5
538.467599068448	1034
541.238396930665	1027.5
544.008263361364	1014.75
546.777199081578	1030.75
549.545204810493	1018
552.312281265436	1042.75
555.078429161898	1021.5
557.843649213533	1040.25
560.607942132156	1027.5
563.371308627753	1018.75
566.133749408495	1033.25
568.895265180756	1043
571.655856649064	1029.5
574.415524516189	1033.5
577.174269483075	1032.25
579.932092248884	1047.75
582.688993510994	1036.25
585.444973965023	1034.25
588.200034304795	1048
590.95417522237	1047
593.70739740807	1035
596.459701550433	1052.75
599.21108833628	1032
601.961558450668	1042.25
604.711112576933	1045.25
607.459751396673	1038.75
610.207475589748	1026.5
612.954285834338	1034.5
615.700182806879	1026.25
618.445167182101	1051.75
621.189239633055	1020.5
623.932400831087	1030
626.674651445839	1027
629.415992145303	1024.5
632.156423595745	1039.75
634.895946461813	1031
637.634561406449	1041.25
640.37226909096	1030.5
643.109070174978	1039.5
645.844965316508	1035.5
648.579955171888	1045
651.314040395846	1034.5
654.047221641456	1056.75
656.779499560176	1042.5
659.510874801828	1045.75
662.241348014642	1045.5
664.97091984524	1054.25
667.699590938606	1046.5
670.427361938164	1051.75
673.15423348573	1041
675.880206221526	1050.5
678.605280784206	1047.25
681.329457810829	1056.5
684.05273793692	1060
686.775121796389	1048.75
689.49661002163	1052.25
692.217203243454	1056
694.936902091144	1038.75
697.655707192425	1041.25
700.373619173493	1059.25
703.09063865901	1052
705.806766272093	1051.75
708.522002634378	1054
711.236348365946	1058.25
713.94980408538	1060.25
716.662370409762	1059.25
719.374047954676	1057.5
722.08483733419	1059.25
724.794739160909	1067
727.503754045949	1066
730.21188259892	1070.75
732.919125427998	1050
735.625483139855	1044.75
738.330956339723	1043
741.035545631374	1064.75
743.739251617106	1061.25
746.44207489779	1070
749.144016072852	1051.75
751.845075740272	1071.25
754.545254496603	1078.5
757.244552936976	1051.75
759.94297165508	1062.75
762.640511243222	1072.5
765.337172292249	1065
768.032955391649	1076.5
770.727861129482	1066.75
773.421890092413	1080.5
776.11504286572	1067
778.807320033298	1066.75
781.49872217765	1083.75
784.18924987991	1062
786.87890371984	1064.25
789.567684275826	1057
792.255592124908	1054.75
794.94262784276	1052.75
797.628792003703	1066.25
800.314085180715	1065.25
802.998507945427	1072.5
805.682060868145	1066
808.364744517821	1085
811.046559462105	1067
813.727506267311	1078.25
816.407585498422	1077.5
819.08679771913	1080.75
821.765143491822	1066.75
824.442623377563	1069.5
827.119237936127	1081
829.794987726003	1080
832.469873304377	1093.25
835.143895227167	1080.5
837.817054048985	1072
840.489350323205	1087.5
843.160784601892	1089.75
845.831357435894	1095
848.501069374739	1082.75
851.169920966753	1101
853.837912758987	1093
856.505045297232	1094.25
859.171319126071	1093.75
861.836734788823	1097
864.501292827579	1095.75
867.164993783208	1084
869.827838195361	1093.25
872.489826602454	1090
875.150959541701	1080
877.811237549104	1092.25
880.470661159456	1097.5
883.129230906357	1088.25
885.786947322205	1085.5
888.443810938206	1075.25
891.099822284385	1091.5
893.754981889586	1074.5
896.409290281452	1080.25
899.062747986485	1089
901.715355529999	1095.5
904.367113436154	1075.75
907.01802222793	1089
909.668082427172	1077.5
912.317294554574	1090
914.965659129659	1087.5
917.613176670835	1079.5
920.259847695364	1082
922.90567271936	1096
925.550652257825	1099.5
928.194786824621	1075.75
930.838076932512	1100.75
933.480523093109	1106
936.122125816953	1079.5
938.762885613447	1098.75
941.402802990899	1090
944.041878456523	1088
946.680112516428	1086.5
949.31750567563	1093
951.954058438081	1097.5
954.589771306633	1103.5
957.224644783048	1102.25
959.858679368044	1085.25
962.491875561238	1100.75
965.12423386121	1085
967.75575476545	1089.25
970.386438770423	1095.25
973.016286371501	1086.5
975.645298063046	1096.25
978.273474338355	1090
980.900815689674	1096.25
983.527322608243	1092.5
986.152995584245	1105.75
988.777835106834	1097.5
991.401841664148	1101.75
994.025015743307	1094.25
996.647357830407	1083.25
999.268868410534	1105.75
1001.88954796777	1099.75
1004.50939698518	1113.25
1007.12841594484	1100
1009.74660532783	1115.5
1012.36396561423	1105
1014.98049728314	1106.25
1017.59620081267	1099.75
1020.21107667995	1099.75
1022.82512536112	1112.25
1025.43834733138	1123.25
1028.05074306493	1119
1030.66231303501	1127.25
1033.27305771392	1131.25
1035.88297757299	1111
1038.49207308257	1130.75
1041.10034471211	1125.5
1043.70779293008	1135.25
1046.31441820402	1124.75
1048.92022100052	1134.75
1051.52520178525	1149
1054.12936102295	1160.5
1056.73269917742	1185.5
1059.33521671154	1222.25
1061.93691408729	1245.25
1064.53779176571	1220.25
1067.13785020694	1201.75
1069.73708987022	1149.75
1072.33551121386	1154.75
1074.93311469528	1131.5
1077.52990077103	1152.75
1080.12586989674	1142.25
1082.72102252714	1158.75
1085.31535911611	1163.25
1087.90888011663	1152
1090.50158598078	1148.75
1093.09347715979	1137
1095.68455410403	1129.25
1098.27481726296	1131
1100.86426708523	1142.5
1103.45290401857	1128.75
1106.04072850991	1136
1108.6277410053	1126.75
1111.21394194993	1132.75
1113.79933178816	1153
1116.3839109635	1147.75
1118.96767991862	1162.5
1121.55063909539	1190.25
1124.13278893477	1244.75
1126.71412987696	1278.5
1129.29466236132	1253.25
1131.87438682637	1230.25
1134.45330370982	1188.25
1137.03141344858	1157.25
1139.60871647872	1158.25
1142.18521323554	1156.5
1144.7609041535	1170.25
1147.33578966629	1153.75
1149.90987020676	1144
1152.48314620702	1139.5
1155.05561809835	1136.25
1157.62728631125	1162.25
1160.19815127545	1157.25
1162.76821341988	1137
1165.33747317271	1138.75
1167.90593096133	1156.5
1170.47358721235	1155.25
1173.04044235163	1157.25
1175.60649680425	1128
1178.17175099454	1134.25
1180.73620534607	1137.25
1183.29986028165	1131
1185.86271622336	1132.5
1188.42477359249	1128.75
1190.98603280964	1147
1193.54649429462	1129
1196.10615846653	1132.75
1198.66502574372	1125.5
1201.22309654385	1129
1203.78037128378	1130.75
1206.33685037971	1132
1208.89253424709	1145.75
1211.44742330063	1136.5
1214.00151795438	1149.25
1216.55481862163	1123
1219.10732571497	1131.5
1221.65903964631	1154.5
1224.20996082683	1143
1226.760089667	1127.75
1229.30942657664	1135.5
1231.85797196483	1151.75
1234.40572623998	1148.75
1236.95268980981	1154
1239.49886308136	1158.75
1242.04424646098	1151
1244.58884035435	1142.75
1247.13264516647	1158.5
1249.67566130166	1177.25
1252.21788916358	1163.75
1254.75932915524	1165.25
1257.29998167896	1185
1259.83984713639	1166.75
1262.37892592857	1180.25
1264.91721845586	1183.75
1267.45472511795	1180.75
1269.9914463139	1194.25
1272.52738244213	1189.5
1275.0625339004	1191.5
1277.59690108587	1198
1280.130484395	1201.5
1282.66328422367	1207.5
1285.19530096712	1212.5
1287.72653501993	1230.75
1290.25698677608	1295.25
1292.78665662894	1388.75
1295.31554497125	1383
1297.8436521951	1345.75
1300.37097869203	1301.25
1302.89752485292	1275.75
1305.42329106805	1251.25
1307.94827772713	1254
1310.47248521921	1236
1312.99591393279	1235.25
1315.51856425575	1231
1318.04043657536	1233.75
1320.56153127836	1219.75
1323.08184875083	1236.75
1325.6013893783	1222.25
1328.12015354572	1234.25
1330.63814163744	1229
1333.15535403727	1224.75
1335.67179112839	1231
1338.18745329347	1233
1340.70234091454	1243.75
1343.21645437314	1252.75
1345.72979405019	1251
1348.24236032607	1222.25
1350.75415358059	1237.5
1353.26517419303	1234.25
1355.7754225421	1231
1358.28489900594	1249.25
1360.79360396218	1246.5
1363.30153778787	1248.25
1365.80870085955	1245.25
1368.31509355319	1254.75
1370.82071624424	1255
1373.32556930762	1247
1375.8296531177	1237.5
1378.33296804832	1235
1380.83551447282	1229.75
1383.33729276399	1238.5
1385.83830329408	1238.25
1388.33854643489	1224
1390.83802255762	1223
1393.33673203301	1222
1395.83467523128	1234.25
1398.33185252211	1222
1400.82826427471	1228.5
1403.32391085777	1226.75
1405.81879263947	1220.5
1408.31290998752	1236.5
1410.80626326908	1243.75
1413.29885285087	1269.5
1415.79067909909	1300.5
1418.28174237944	1310.75
1420.77204305717	1308.75
1423.26158149702	1279.5
1425.75035806323	1310.75
1428.2383731196	1304.25
1430.72562702942	1345.25
1433.21212015554	1394.25
1435.69785286028	1426.25
1438.18282550555	1464.25
1440.66703845275	1441.5
1443.15049206284	1419
1445.6331866963	1414.25
1448.11512271316	1421.5
1450.59630047298	1416
1453.07672033486	1409.75
1455.55638265748	1418
1458.03528779902	1393
1460.51343611725	1400.5
1462.99082796946	1393
1465.46746371252	1376.25
1467.94334370285	1351
1470.41846829642	1346.75
1472.89283784878	1346
1475.36645271503	1331
1477.83931324983	1317
1480.31141980743	1307.5
1482.78277274164	1317
1485.25337240583	1300
1487.72321915297	1309.25
1490.19231333557	1313.75
1492.66065530578	1296.25
1495.12824541525	1289
1497.5950840153	1295
1500.06117145678	1299
1502.52650809014	1309.25
1504.99109426543	1296.5
1507.45493033227	1325
1509.91801663992	1315.75
1512.38035353717	1318.5
1514.84194137248	1323.75
1517.30278049386	1318.75
1519.76287124894	1327.5
1522.22221398497	1341.5
1524.68080904876	1359.25
1527.13865678681	1365.5
1529.59575754514	1370.75
1532.05211166945	1363.75
1534.50771950503	1349.5
1536.96258139678	1341.75
1539.41669768924	1325.5
1541.87006872656	1337.25
1544.32269485252	1338.5
1546.77457641051	1343.75
1549.22571374357	1358.25
1551.67610719434	1368.5
1554.12575710513	1364.75
1556.57466381785	1359.75
1559.02282767408	1363
1561.47024901499	1374.5
1563.91692818144	1391
1566.3628655139	1383.75
1568.80806135249	1378.75
1571.252516037	1388
1573.6962299068	1404.25
1576.13920330099	1397.25
1578.58143655828	1403
1581.02293001704	1415.25
1583.46368401528	1415.25
1585.90369889071	1422.5
1588.34297498065	1407.25
1590.7815126221	1404.75
1593.21931215173	1426.75
1595.65637390588	1418.25
1598.09269822053	1420
1600.52828543135	1419.5
1602.96313587367	1422.75
1605.3972498825	1427.5
1607.83062779252	1421
1610.26326993808	1425.75
1612.69517665322	1421
1615.12634827165	1408.25
1617.55678512676	1416.5
1619.98648755163	1410.75
1622.41545587902	1417.75
1624.84369044138	1438.75
1627.27119157085	1429.75
1629.69795959924	1432.5
1632.12399485808	1426.25
1634.54929767859	1421
1636.97386839165	1408.5
1639.39770732789	1427.75
1641.8208148176	1429.25
1644.24319119078	1443.25
1646.66483677715	1422.5
1649.0857519061	1442
1651.50593690677	1414
1653.92539210795	1435.25
1656.3441178382	1437
1658.76211442575	1449.75
1661.17938219855	1444
1663.59592148428	1446.75
1666.01173261032	1459.25
1668.42681590377	1436.75
1670.84117169145	1450.75
1673.25480029991	1453.25
1675.66770205541	1450.5
1678.07987728393	1488
1680.49132631119	1472.25
1682.90204946263	1469
1685.31204706342	1454.5
1687.72131943846	1496.75
1690.1298669124	1475
1692.53768980957	1496.75
1694.94478845411	1473.5
1697.35116316982	1472.5
1699.75681428031	1492.5
1702.16174210887	1481.75
1704.56594697858	1491.5
1706.96942921222	1493
1709.37218913235	1494.25
1711.77422706125	1479.25
1714.17554332098	1481.5
1716.5761382333	1491.75
1718.97601211977	1524.75
1721.37516530169	1503.25
1723.77359810006	1486.75
1726.17131083572	1499.25
1728.56830382922	1496.25
1730.96457740087	1501.25
1733.36013187075	1491.5
1735.75496755868	1492.25
1738.14908478428	1503
1740.54248386689	1498
1742.93516512565	1501.25
1745.32712887946	1517
1747.71837544697	1529.75
1750.10890514662	1490.5
1752.49871829661	1509.25
1754.88781521492	1511
1757.27619621929	1513
1759.66386162726	1523
1762.05081175612	1519
1764.43704692297	1513.25
1766.82256744465	1527.75
1769.20737363782	1526.5
1771.59146581887	1526.25
1773.97484430405	1541.25
1776.35750940932	1542.25
1778.73946145048	1543.5
1781.12070074309	1550
1783.50122760249	1559.75
1785.88104234385	1550.75
1788.26014528209	1572.25
1790.63853673196	1552.5
1793.01621700796	1565.25
1795.39318642443	1584.5
1797.76944529549	1585
1800.14499393503	1571.5
1802.51983265681	1574.5
1804.8939617743	1560.5
1807.26738160085	1594
1809.64009244957	1587
1812.01209463339	1590.25
1814.38338846504	1597.5
1816.75397425706	1592
1819.12385232181	1597.75
1821.49302297142	1576.75
1823.86148651789	1605.75
1826.22924327299	1595.75
1828.59629354831	1593.25
1830.96263765526	1607.25
1833.32827590507	1595.75
1835.69320860877	1594.5
1838.05743607724	1595
1840.42095862113	1594.75
1842.78377655097	1607
1845.14589017707	1604.5
1847.50729980956	1603
1849.86800575843	1599.25
1852.22800833346	1593.25
1854.58730784427	1627
1856.94590460032	1629
1859.30379891087	1620.25
1861.66099108503	1627.75
1864.01748143175	1640
1866.37327025978	1621.75
1868.72835787773	1637.5
1871.08274459403	1628.5
1873.43643071697	1643.75
1875.78941655464	1653.75
1878.14170241498	1642.75
1880.4932886058	1666.25
1882.84417543469	1669.25
1885.19436320915	1659.75
1887.54385223646	1687.5
1889.89264282378	1669.25
1892.24073527809	1686.5
1894.58812990625	1685.5
1896.93482701493	1699.5
1899.28082691067	1693
1901.62612989984	1713.25
1903.97073628868	1710.5
1906.31464638326	1711.75
1908.6578604895	1703.5
1911.00037891321	1736
1913.34220196	1716.75
1915.68332993537	1740.5
1918.02376314468	1745
1920.36350189311	1766.5
1922.70254648573	1743.75
1925.04089722744	1718
1927.37855442303	1733
1929.71551837715	1737.75
1932.05178939426	1748.25
1934.38736777876	1758.5
1936.72225383484	1738.25
1939.0564478666	1769.25
1941.38995017799	1755.5
1943.72276107283	1750.5
1946.05488085479	1764.25
1948.38630982744	1752.75
1950.71704829419	1759.75
1953.04709655832	1753.75
1955.376454923	1740.75
1957.70512369126	1747
1960.03310316599	1750
1962.36039364999	1750.25
1964.68699544589	1764.75
1967.01290885622	1754
1969.33813418338	1756.25
1971.66267172965	1775
1973.98652179718	1770.25
1976.309684688	1763.5
1978.63216070402	1788
1980.95395014705	1807.5
1983.27505331873	1794
1985.59547052063	1788.5
1987.9152020542	1773
1990.23424822074	1800.25
1992.55260932146	1812.75
1994.87028565746	1827.25
1997.18727752968	1807.25
1999.503585239	1829
2001.81920908618	1825.5
2004.13414937184	1805.25
2006.44840639651	1839
2008.7619804606	1845.75
2011.07487186442	1838
2013.38708090815	1861.25
2015.6986078919	1849
2018.00945311564	1869.5
2020.31961687923	1872.25
2022.62909948246	1881.5
2024.93790122498	1871.5
2027.24602240636	1884
2029.55346332604	1888
2031.86022428337	1887.5
2034.16630557761	1904
2036.47170750791	1894.25
2038.77643037331	1885.5
2041.08047447275	1923.75
2043.38384010509	1902.75
2045.68652756907	1907.75
2047.98853716335	1910.25
2050.28986918648	1920.25
2052.59052393692	1934
2054.89050171302	1934
2057.18980281306	1932.5
2059.4884275352	1929.5
2061.78637617753	1916.75
2064.08364903802	1942.25
2066.38024641457	1936.5
2068.67616860497	1923.5
2070.97141590694	1938.5
2073.26598861809	1932
2075.55988703595	1915.75
2077.85311145796	1940.25
2080.14566218145	1952.25
2082.43753950371	1940
2084.72874372188	1957.25
2087.01927513307	1940
2089.30913403428	1951.5
2091.59832072241	1948.5
2093.88683549429	1945.5
2096.17467864666	1967.25
2098.46185047619	1975.75
2100.74835127944	1967.25
2103.03418135292	2009.25
2105.31934099303	1987.5
2107.6038304961	1996.75
2109.88765015838	1991.75
2112.17080027602	1960
2114.45328114513	2006.5
2116.7350930617	1984.25
2119.01623632165	2027.5
2121.29671122085	2013.75
2123.57651805505	2019
2125.85565711996	2035.75
2128.13412871117	2026.75
2130.41193312424	2044
2132.68907065462	2033
2134.96554159771	2044.25
2137.24134624881	2035.25
2139.51648490317	2052.75
2141.79095785593	2058
2144.0647654022	2083
2146.33790783698	2072.75
2148.61038545524	2080.25
2150.88219855182	2093.5
2153.15334742154	2086.5
2155.42383235911	2068.25
2157.6936536592	2109
2159.9628116164	2068
2162.23130652522	2078.5
2164.49913868011	2116.75
2166.76630837544	2112
2169.03281590552	2128.25
2171.2986615646	2120.25
2173.56384564685	2138.25
2175.82836844637	2122
2178.0922302572	2158.25
2180.35543137332	2118.75
2182.61797208862	2128.25
2184.87985269695	2104
2187.14107349208	2130.25
2189.40163476773	2139.75
2191.66153681753	2134.75
2193.92077993507	2146.25
2196.17936441386	2151
2198.43729054735	2144
2200.69455862894	2140.25
2202.95116895194	2129.25
2205.20712180962	2165.5
2207.46241749519	2145.5
2209.71705630179	2162.75
2211.97103852248	2142.75
2214.2243644503	2184.5
2216.47703437819	2163
2218.72904859905	2152
2220.98040740571	2177.75
2223.23111109095	2159
2225.4811599475	2195.25
2227.73055426799	2197.5
2229.97929434504	2194.75
2232.22738047118	2194.75
2234.47481293889	2177.25
2236.72159204058	2230.25
2238.96771806864	2195
2241.21319131536	2180.75
2243.458012073	2170.25
2245.70218063374	2212.5
2247.94569728973	2203.5
2250.18856233304	2206.5
2252.4307760557	2185.75
2254.67233874967	2210.5
2256.91325070687	2206.25
2259.15351221915	2226.75
2261.39312357831	2205.25
2263.63208507611	2223.25
2265.87039700422	2209.5
2268.1080596543	2243.25
2270.34507331792	2234
2272.5814382866	2210
2274.81715485183	2236.75
2277.05222330502	2263.5
2279.28664393755	2229.25
2281.52041704072	2227
2283.75354290581	2274.75
2285.98602182401	2232.75
2288.21785408648	2268.5
2290.44903998434	2260.75
2292.67957980862	2264
2294.90947385033	2255.5
2297.1387224004	2296.25
2299.36732574975	2254
2301.59528418921	2272.25
2303.82259800958	2286.75
2306.04926750158	2276.75
2308.27529295593	2240.5
2310.50067466325	2271.75
2312.72541291412	2292.5
2314.9495079991	2234.75
2317.17296020866	2272.25
2319.39576983323	2272.5
2321.61793716322	2287.25
2323.83946248894	2265.75
2326.06034610069	2290
2328.28058828871	2279
2330.50018934317	2289.25
2332.7191495542	2287
2334.93746921192	2313.75
2337.15514860633	2273.5
2339.37218802743	2280.25
2341.58858776516	2283.25
2343.80434810941	2288.5
2346.01946935001	2288.25
2348.23395177675	2295.25
2350.44779567939	2295.25
2352.66100134759	2321
2354.87356907101	2309.75
2357.08549913925	2287.25
2359.29679184185	2292.25
2361.50744746829	2316.5
2363.71746630804	2327.75
2365.92684865048	2293.5
2368.13559478499	2290.75
2370.34370500083	2322.25
2372.55117958727	2284.75
2374.75801883352	2291
2376.96422302874	2267.5
2379.16979246202	2307.25
2381.37472742243	2266.5
2383.57902819898	2296.75
2385.78269508063	2299.5
2387.98572835629	2280.5
2390.18812831482	2284
2392.38989524505	2269.75
2394.59102943573	2300.25
2396.79153117559	2304.5
2398.9914007533	2296
2401.19063845748	2289.75
2403.38924457672	2287
2405.58721939951	2303.75
2407.78456321435	2298
2409.98127630966	2279
2412.17735897382	2291
2414.37281149517	2269
2416.56763416198	2286.5
2418.76182726249	2291.5
2420.95539108487	2289.5
2423.14832591726	2268.75
2425.34063204776	2311
2427.53230976439	2286
2429.72335935513	2277.75
2431.91378110795	2258.75
2434.10357531071	2264.75
2436.29274225125	2274.5
2438.48128221739	2256.25
2440.66919549683	2265
2442.8564823773	2257.25
2445.04314314641	2258.75
2447.22917809176	2252
2449.4145875009	2274.5
2451.59937166131	2258.5
2453.78353086044	2254.5
2455.96706538568	2255.25
2458.14997552436	2232
2460.33226156379	2224
2462.51392379119	2242.75
2464.69496249376	2262
2466.87537795862	2227
2469.05517047288	2230.25
2471.23434032357	2249
2473.41288779767	2249.75
2475.59081318211	2207
2477.76811676378	2220.5
2479.9447988295	2224.25
2482.12085966605	2195.5
2484.29629956016	2244.5
2486.4711187985	2249.25
2488.64531766769	2222
2490.8188964543	2234.75
2492.99185544484	2222.25
2495.16419492579	2227.25
2497.33591518353	2222
2499.50701650444	2209
2501.67749917482	2225.5
2503.84736348091	2221
2506.01660970891	2221
2508.18523814496	2205.25
2510.35324907514	2203.5
2512.52064278551	2216.5
2514.68741956201	2217.5
2516.85357969058	2230.75
2519.01912345709	2237
2521.18405114735	2224
2523.34836304711	2225.5
2525.51205944208	2237.5
2527.6751406179	2210.25
2529.83760686016	2245.5
2531.99945845439	2222.5
2534.16069568606	2191.75
2536.3213188406	2227.75
2538.48132820336	2205.5
2540.64072405965	2212.75
2542.79950669471	2218
2544.95767639373	2241
2547.11523344184	2235.25
2549.27217812411	2195
2551.42851072555	2230.75
2553.58423153111	2216
2555.73934082569	2217.75
2557.89383889412	2193.5
2560.04772602118	2197.5
2562.20100249158	2192.75
2564.35366858996	2202.5
2566.50572460093	2208
2568.65717080901	2151.5
2570.80800749867	2187.5
2572.95823495433	2198.25
2575.10785346031	2174.75
2577.25686330093	2176.25
2579.40526476038	2138.25
2581.55305812282	2164.25
2583.70024367237	2186.75
2585.84682169303	2158
2587.99279246879	2169
2590.13815628354	2138.75
2592.28291342112	2138.75
2594.42706416531	2139.25
2596.5706087998	2159.25
2598.71354760826	2167.5
2600.85588087425	2138
2602.99760888127	2139.75
2605.13873191278	2147
2607.27925025214	2152.75
2609.41916418269	2142.5
2611.55847398764	2151
2613.69717995017	2119.5
2615.83528235339	2149.25
2617.97278148034	2144.75
2620.10967761398	2165.25
2622.2459710372	2133
2624.38166203284	2153.5
2626.51675088365	2145.25
2628.65123787231	2116.25
2630.78512328145	2128
2632.9184073936	2141.75
2635.05109049124	2134
2637.18317285676	2121
2639.31465477248	2123.5
2641.44553652067	2138.25
2643.5758183835	2106
2645.70550064309	2092.5
2647.83458358144	2144.25
2649.96306748053	2151
2652.09095262223	2162.75
2654.21823928836	2147.25
2656.34492776063	2134.5
2658.47101832071	2119.75
2660.59651125015	2138
2662.72140683047	2117
2664.84570534309	2116.25
2666.96940706934	2125.25
2669.0925122905	2134
2671.21502128773	2122
2673.33693434215	2140.25
2675.45825173479	2135.5
2677.57897374658	2126.75
2679.69910065839	2150.5
2681.818632751	2150.25
2683.93757030511	2136.25
2686.05591360133	2142
2688.17366292021	2127.5
2690.29081854218	2134.25
2692.40738074762	2137.75
2694.52334981681	2133.25
2696.63872602995	2145.5
2698.75350966713	2157.5
2700.86770100841	2185
2702.98130033371	2152.5
2705.09430792289	2161.5
2707.20672405571	2172.5
2709.31854901185	2211
2711.42978307091	2202
2713.54042651238	2183.75
2715.65047961567	2199.5
2717.7599426601	2210.5
2719.86881592491	2201
2721.97709968924	2216.25
2724.08479423213	2208.75
2726.19189983255	2197.75
2728.29841676934	2179.25
2730.4043453213	2147.5
2732.5096857671	2164
2734.61443838532	2147
2736.71860345444	2145.25
2738.82218125286	2146
2740.92517205889	2138.5
2743.02757615072	2160.5
2745.12939380646	2103.5
2747.23062530411	2121.25
2749.33127092159	2101.25
2751.4313309367	2066
2753.53080562716	2129
2755.62969527058	2090.5
2757.72800014448	2100.75
2759.82572052625	2117.5
2761.92285669323	2106
2764.0194089226	2092.75
2766.11537749147	2128.75
2768.21076267686	2123.75
2770.30556475566	2107.25
2772.39978400465	2102
2774.49342070054	2099
2776.58647511991	2116.5
2778.67894753923	2093.5
2780.77083823487	2098
2782.8621474831	2084.75
2784.95287556007	2119.5
2787.04302274184	2112.75
2789.13258930433	2102.25
2791.22157552338	2095.5
2793.30998167471	2111.25
2795.39780803392	2109.5
2797.4850548765	2103.75
2799.57172247786	2107.5
2801.65781111324	2113.25
2803.74332105781	2098.5
2805.82825258661	2100.75
2807.91260597457	2104
2809.9963814965	2126
2812.07957942711	2123.5
2814.16220004096	2131.25
2816.24424361252	2130.75
2818.32571041614	2150
2820.40660072604	2161
2822.48691481631	2191.5
2824.56665296098	2211
2826.64581543388	2231
2828.72440250876	2290.25
2830.80241445925	2336
2832.87985155885	2412.25
2834.95671408093	2549
2837.03300229875	2733.75
2839.10871648544	2952.25
2841.18385691399	3297.5
2843.25842385729	3605.5
2845.33241758808	3815.25
2847.40583837898	3974.75
2849.4786865025	3980
2851.550962231	3830.25
2853.6226658367	3687.5
2855.69379759173	3541.75
2857.76435776806	3424.25
2859.83434663753	3287
2861.90376447184	3222
2863.97261154259	3175
2866.0408881212	3121.75
2868.10859447901	3140.25
2870.17573088717	3139
2872.24229761673	3214.25
2874.30829493859	3310.75
2876.37372312352	3520.5
2878.43858244215	3925.25
2880.50287316496	4183
2882.56659556231	4187.5
2884.62974990439	3904.25
2886.69233646129	3668.75
2888.75435550293	3526.5
2890.81580729909	3461
2892.87669211941	3428.75
2894.93701023339	3415
2896.99676191039	3342.75
2899.05594741961	3330.75
2901.1145670301	3265.5
2903.1726210108	3225.5
2905.23010963045	3143.25
2907.28703315768	3088.5
2909.34339186096	3050.75
2911.39918600861	3033.25
2913.45441586879	2960.75
2915.50908170952	2944.25
2917.56318379867	2927
2919.61672240395	2962
2921.66969779291	2937.5
2923.72211023295	2902.75
2925.77395999134	2898
2927.82524733515	2917.5
2929.87597253132	2882
2931.92613584663	2856.75
2933.97573754769	2790
2936.02477790097	2758.25
2938.07325717276	2655.5
2940.1211756292	2596.75
2942.16853353626	2497
2944.21533115976	2432
2946.26156876536	2348
2948.30724661853	2327.25
2950.3523649846	2280.75
2952.39692412872	2273.25
2954.44092431587	2228.25
2956.48436581089	2228.25
2958.52724887843	2197.25
2960.56957378296	2206.75
2962.6113407888	2193.25
2964.65255016011	2194
2966.69320216083	2212.5
2968.73329705479	2165.75
2970.77283510559	2152.5
2972.81181657671	2171.75
2974.8502417314	2138.25
2976.88811083279	2154.5
2978.92542414378	2153
2980.96218192713	2134.75
2982.99838444541	2140
2985.034031961	2135
2987.06912473612	2159
2989.1036630328	2134
2991.13764711288	2139.75
2993.17107723804	2121.25
2995.20395366974	2159.25
2997.23627666931	2139
2999.26804649782	2141.25
3001.29926341624	2117.75
3003.32992768528	2147.5
3005.3600395655	2143.75
3007.38959931726	2155.5
3009.41860720076	2170.25
3011.44706347595	2167
3013.47496840263	2151.5
3015.50232224041	2140.75
3017.5291252487	2167.25
3019.5553776867	2148
3021.58107981344	2166.75
3023.60623188773	2149.75
3025.63083416822	2171.25
3027.65488691331	2149.5
3029.67839038125	2145.5
3031.70134483007	2141.5
3033.72375051759	2183.5
3035.74560770144	2161.75
3037.76691663907	2144.5
3039.78767758768	2186
3041.80789080431	2141.25
3043.82755654577	2157.5
3045.84667506867	2149.25
3047.8652466294	2152.25
3049.88327148418	2162
3051.90074988899	2163.25
3053.91768209961	2153.75
3055.9340683716	2167.25
3057.94990896033	2163.75
3059.96520412095	2181.75
3061.97995410838	2158.5
3063.99415917734	2145.75
3066.00781958234	2144.75
3068.02093557766	2150.5
3070.03350741738	2134.75
3072.04553535535	2185.75
3074.05701964521	2183.25
3076.06796054036	2129.25
3078.078358294	2158.25
3080.08821315912	2139.25
3082.09752538846	2159.75
3084.10629523454	2137
3086.11452294967	2145.5
3088.12220878592	2150
3090.12935299515	2138
3092.13595582898	2136.5
3094.1420175388	2146.25
3096.14753837579	2171.25
3098.15251859088	2153.75
3100.15695843477	2157.5
3102.16085815793	2160
3104.16421801061	2134
3106.16703824282	2140
3108.16931910432	2180.25
3110.17106084464	2161.5
3112.17226371308	2147.5
3114.17292795872	2157.25
3116.17305383034	2174.5
3118.17264157657	2150
3120.17169144571	2178.5
3122.17020368587	2160
3124.16817854492	2159.75
3126.16561627044	2170.25
3128.16251710982	2154
3130.15888131017	2179.25
3132.15470911837	2156.75
3134.15000078104	2167.25
3136.14475654455	2161.5
3138.13897665502	2183
3140.13266135835	2175.5
3142.12581090014	2185.75
3144.11842552577	2205.5
3146.11050548036	2204
3148.10205100875	2204.5
3150.09306235557	2214.25
3152.08353976515	2171.5
3154.07348348158	2135.75
3156.06289374869	2188
3158.05177081006	2198
3160.04011490899	2196.75
3162.02792628852	2209.75
3164.01520519145	2204.75
3166.00195186029	2176.75
3167.98816653728	2216
3169.97384946442	2215.25
3171.95900088344	2195.5
3173.94362103577	2178.5
3175.92771016259	2207.5
3177.91126850484	2191.25
3179.89429630312	2196.5
3181.87679379782	2181.5
3183.85876122903	2221.25
3185.84019883657	2188
3187.82110685997	2200.5
3189.80148553851	2185.25
3191.78133511116	2196.25
3193.76065581664	2203.75
3195.73944789337	2198.25
3197.7177115795	2210.25
3199.6954471129	2221.5
3201.67265473114	2198.5
3203.64933467153	2217
3205.62548717107	2215.5
3207.60111246648	2198
3209.57621079421	2214.75
3211.55078239041	2223.75
3213.52482749093	2233
3215.49834633133	2234.25
3217.4713391469	2262.25
3219.44380617262	2243.25
3221.41574764317	2236.25
3223.38716379296	2234.5
3225.35805485607	2209.75
3227.32842106631	2241
3229.29826265718	2272.75
3231.26757986187	2230.25
3233.2363729133	2251
3235.20464204405	2256.5
3237.17238748643	2301.5
3239.13960947243	2266.5
3241.10630823374	2268.25
3243.07248400174	2263.5
3245.03813700748	2280.75
3247.00326748177	2240.5
3248.96787565503	2263.75
3250.93196175742	2259.75
3252.89552601877	2298.25
3254.8585686686	2280
3256.82108993612	2285.5
3258.78309005022	2294.75
3260.74456923948	2267.5
3262.70552773215	2282.25
3264.66596575617	2309
3266.62588353916	2258
3268.58528130843	2256.25
3270.54415929094	2283
3272.50251771336	2276.75
3274.46035680201	2277.5
3276.4176767829	2314.5
3278.37447788171	2268.5
3280.33076032379	2310.25
3282.28652433416	2269.5
3284.24177013751	2313.75
3286.1964979582	2280.5
3288.15070802027	2297.5
3290.10440054741	2295.75
3292.05757576298	2294.5
3294.01023389001	2315.75
3295.96237515119	2317
3297.91399976887	2288.75
3299.86510796506	2299
3301.81569996142	2309
3303.76577597932	2316
3305.7153362397	2319.25
3307.66438096324	2306.5
3309.61291037024	2288.5
3311.56092468064	2307
3313.50842411404	2294.75
3315.45540888971	2344
3317.40187922656	2323
3319.34783534315	2297
3321.29327745768	2326.5
3323.23820578801	2273.5
3325.18262055164	2300.5
3327.1265219657	2298.75
3329.06991024699	2295
3331.01278561194	2309.25
3332.95514827662	2269
3334.89699845674	2314.5
3336.83833636766	2308
3338.77916222434	2292.25
3340.71947624143	2315
3342.65927863317	2327
3344.59856961346	2318.75
3346.53734939584	2323.5
3348.47561819344	2327.25
3350.41337621906	2322.75
3352.35062368513	2318.5
3354.28736080368	2310.5
3356.22358778637	2326.5
3358.15930484452	2334.75
3360.09451218904	2298.5
3362.02921003047	2308.75
3363.96339857898	2303
3365.89707804436	2316.75
3367.83024863602	2321.25
3369.76291056299	2324
3371.69506403389	2313
3373.62670925699	2323.75
3375.55784644016	2344
3377.4884757909	2317.75
3379.41859751629	2322.5
3381.34821182305	2351.25
3383.27731891749	2326.25
3385.20591900555	2348
3387.13401229276	2359.75
3389.06159898426	2356.75
3390.9886792848	2344.25
3392.91525339872	2351.5
3394.84132152998	2368.75
3396.76688388213	2341.25
3398.69194065833	2349
3400.61649206133	2365.5
3402.54053829348	2371.75
3404.46407955672	2360.5
3406.3871160526	2346.75
3408.30964798225	2353
3410.23167554639	2361
3412.15319894535	2372
3414.07421837904	2349.5
3415.99473404695	2368.5
3417.91474614817	2358.25
3419.83425488136	2375
3421.75326044479	2370.5
3423.67176303631	2392.5
3425.58976285332	2380
3427.50726009282	2367.25
3429.42425495143	2353
3431.34074762528	2383.5
3433.25673831012	2348.25
3435.17222720127	2365
3437.08721449362	2387
3439.00170038164	2323.25
3440.91568505936	2340.25
3442.82916872039	2349
3444.74215155791	2371.5
3446.65463376468	2374.25
3448.566615533	2342.75
3450.47809705476	2362
3452.3890785214	2385.25
3454.29956012393	2375
3456.20954205293	2376.75
3458.11902449853	2355
3460.02800765041	2336
3461.93649169784	2364.25
3463.84447682962	2376.5
3465.75196323412	2344
3467.65895109925	2368.25
3469.56544061249	2352.25
3471.47143196086	2351.5
3473.37692533093	2332.75
3475.28192090884	2349.75
3477.18641888026	2363.5
3479.09041943039	2349
3480.99392274402	2376.75
3482.89692900545	2355.25
3484.79943839853	2367.75
3486.70145110666	2379.5
3488.60296731277	2344.25
3490.50398719933	2354
3492.40451094836	2351.5
3494.30453874141	2350.5
3496.20407075956	2384.5
3498.10310718342	2372
3500.00164819315	2372.25