201.866871357053	940.5
204.754250281456	925.5
207.640596790939	943.25
210.525911876301	939.25
213.41019652569	943
216.293451724511	923.25
219.175678455486	935.25
222.056877698663	929.75
224.937050431391	934
227.816197628365	923.25
230.694320261604	937.75
233.571419300504	928.75
236.447495711765	953.5
239.322550459507	964.25
242.196584505184	991
245.069598807628	1008.5
247.94159432308	1007.25
250.812572005157	1008.25
253.682532804885	1015
256.551477670701	1001
259.419407548458	978
262.286323381442	972.5
265.152226110364	970.5
268.017116673389	956
270.880996006118	953.25
273.743865041624	942.25
276.605724710438	937
279.466575940565	930.5
282.326419657499	938.75
285.185256784201	935
288.04308824116	952.25
290.899914946356	934.5
293.75573781526	935.5
296.610557760899	928.25
299.464375693819	938.5
302.317192522079	938.75
305.169009151297	936.5
308.019826484655	937
310.869645422872	954.75
313.718466864235	968
316.566291704615	973.75
319.41312083746	977
322.258955153805	973.25
325.103795542294	982.25
327.947642889129	952
330.79049807819	963.25
333.63236199093	951.75
336.473235506447	943.25
339.313119501453	944.5
342.152014850323	941
344.989922425064	946.75
347.826843095356	933.75
350.662777728529	937
353.497727189577	917.75
356.331692341196	939
359.164674043732	936.75
361.996673155267	941
364.827690531538	930.75
367.657727026021	939.5
370.486783489887	950
373.314860772046	965.5
376.14195971912	948.5
378.968081175469	962.75
381.793225983214	965.75
384.617394982201	977.5
387.44058901005	1014
390.262808902134	1076.25
393.084055491614	1175.5
395.904329609395	1309.75
398.723632084216	1373.5
401.541963742572	1307
404.359325408781	1179.5
407.17571790494	1086.25
409.991142050985	1029.25
412.805598664665	999
415.619088561551	987.75
418.431612555051	978.75
421.243171456419	970.5
424.05376607476	977.25
426.86339721702	972.75
429.672065688025	972
432.479772290455	967.5
435.28651782488	963.75
438.092303089737	988
440.897128881362	984.25
443.700995993992	1007.5
446.503905219761	1019.75
449.305857348711	1055.5
452.106853168798	1082.5
454.906893465921	1112
457.705979023886	1087
460.504110624441	1059.75
463.301289047302	1028.5
466.09751507009	1018
468.892789468424	977.25
471.687113015869	965.75
474.480486483952	955.5
477.272910642201	950.25
480.064386258111	949.75
482.854914097161	951.75
485.644494922841	948.5
488.433129496637	958.5
491.22081857805	953.5
494.007562924587	946
496.793363291787	950.5
499.578220433219	949.25
502.362135100475	955
505.145108043209	957
507.927140009101	965.5
510.70823174391	977.25
513.488383991435	981.5
516.267597493556	986.5
519.045872990221	1004.25
521.823211219462	1030.75
524.5996129174	1054.75
527.375078818234	1091
530.149609654287	1071.25
532.923206155968	1058
535.695869051803	1016
538.46759906845	1005.75
541.238396930667	974
544.008263361365	957.75
546.777199081581	952.5
549.545204810496	952.75
552.312281265439	959.5
555.078429161901	949.5
557.843649213536	945.5
560.607942132158	944.25
563.371308627753	958
566.133749408497	951.5
568.895265180758	953
571.655856649067	941.5
574.415524516192	948.75
577.174269483075	953.25
579.932092248886	941
582.688993510996	958.25
585.444973965024	945.5
588.200034304796	946.25
590.954175222372	955.75
593.707397408072	940.25
596.459701550436	952.25
599.211088336284	946.5
601.961558450671	954
604.711112576934	946.5
607.459751396673	945
610.207475589751	945.5
612.954285834339	949.75
615.70018280688	956.5
618.445167182103	945.25
621.189239633057	940
623.932400831087	947.5
626.674651445839	939.5
629.415992145303	942.5
632.156423595745	933.25
634.895946461815	937.25
637.634561406448	935.25
640.372269090962	939.75
643.109070174981	941.75
645.84496531651	937.5
648.579955171891	945.75
651.314040395848	935.5
654.047221641459	932.75
656.779499560178	937
659.510874801831	954.25
662.241348014646	953.25
664.970919845243	947.75
667.699590938608	956.25
670.427361938164	949
673.154233485732	946.5
675.880206221526	954.25
678.605280784208	944
681.329457810832	947
684.052737936921	949
686.77512179639	957.25
689.496610021632	940.5
692.217203243456	944.25
694.936902091147	945.75
697.655707192428	941
700.373619173495	953.5
703.090638659013	936.25
705.806766272093	942.75
708.522002634379	954.25
711.236348365948	947
713.949804085381	944.75
716.662370409764	939.25
719.374047954676	951.75
722.084837334191	941.75
724.79473916091	948.25
727.50375404595	947
730.21188259892	949.5
732.919125427998	949.5
735.625483139858	959.75
738.330956339726	936.75
741.035545631373	966.25
743.739251617109	966
746.44207489779	968.25
749.144016072856	967
751.845075740273	969
754.545254496604	970.5
757.244552936979	964.75
759.942971655083	977.5
762.640511243225	974
765.337172292252	979.25
768.032955391651	983
770.727861129485	980.5
773.421890092416	972
776.11504286572	986.5
778.807320033299	984
781.49872217765	983.5
784.189249879911	977.25
786.87890371984	1004.25
789.567684275826	1000.25
792.255592124909	1026.25
794.942627842762	1036.75
797.628792003709	1088
800.314085180718	1165.25
802.998507945429	1358.25
805.682060868145	1654
808.364744517821	1861.75
811.046559462106	1769.75
813.727506267312	1481
816.407585498422	1237.5
819.086797719131	1151
821.765143491823	1100
824.442623377565	1075.25
827.119237936129	1107.75
829.794987726006	1113
832.469873304377	1181.75
835.143895227169	1217.5
837.817054048985	1336.5
840.489350323206	1399.25
843.160784601894	1367.75
845.831357435894	1240
848.501069374742	1141.75
851.169920966756	1092.25
853.837912758989	1078.75
856.505045297233	1057.25
859.171319126073	1037.25
861.836734788825	1040
864.501292827581	1035
867.164993783208	1015.5
869.827838195363	1033.5
872.489826602455	1023.5
875.150959541702	1038.75
877.811237549104	1023.5
880.470661159458	1027
883.129230906359	1009.75
885.786947322208	1013.75
888.443810938208	1018.5
891.099822284387	1037.75
893.754981889586	1046.5
896.409290281453	1045
899.062747986487	1074
901.715355530001	1066.75
904.367113436154	1051.75
907.018022227933	1035.25
909.668082427173	1029.75
912.317294554575	1039.25
914.965659129661	1035.25
917.613176670838	1018
920.259847695365	1051
922.90567271936	1028.5
925.550652257826	1026
928.194786824624	1057.25
930.838076932514	1069
933.480523093111	1079.75
936.122125816956	1127
938.762885613448	1154.25
941.402802990899	1157.5
944.041878456524	1141
946.680112516429	1099.5
949.317505675633	1101.5
951.954058438084	1090.75
954.589771306634	1091
957.224644783051	1085.75
959.858679368047	1118.75
962.491875561238	1119.25
965.124233861212	1188.75
967.755754765453	1285.75
970.386438770423	1423
973.016286371502	1478.25
975.645298063046	1416.5
978.273474338357	1283.75
980.900815689675	1185
983.527322608245	1125
986.152995584248	1121.5
988.777835106835	1127
991.401841664151	1161
994.025015743307	1190.5
996.64735783041	1237
999.268868410535	1231.25
1001.88954796777	1220.5
1004.50939698518	1176.25
1007.12841594484	1146.5
1009.74660532783	1144
1012.36396561423	1139.5
1014.98049728314	1120.75
1017.59620081267	1119.25
1020.21107667995	1130
1022.82512536112	1146.25
1025.43834733138	1145.5
1028.05074306492	1162.5
1030.66231303501	1216
1033.27305771392	1235.25
1035.88297757299	1278.5
1038.49207308257	1280
1041.10034471211	1256.75
1043.70779293008	1261.25
1046.31441820402	1256.5
1048.92022100052	1183
1051.52520178525	1185.5
1054.12936102295	1166
1056.73269917742	1163.75
1059.33521671154	1175
1061.93691408729	1165
1064.53779176572	1170.5
1067.13785020694	1150
1069.73708987022	1166.25
1072.33551121386	1147.25
1074.93311469528	1161.75
1077.52990077103	1159.5
1080.12586989674	1167.25
1082.72102252715	1180
1085.31535911612	1186
1087.90888011663	1198.5
1090.50158598078	1187
1093.09347715979	1190.5
1095.68455410403	1197.25
1098.27481726296	1215.75
1100.86426708523	1227.5
1103.45290401857	1244.5
1106.04072850991	1231.25
1108.6277410053	1241.75
1111.21394194993	1226.25
1113.79933178816	1243.5
1116.3839109635	1246.75
1118.96767991862	1250.75
1121.55063909539	1260.25
1124.13278893477	1251.75
1126.71412987696	1272.25
1129.29466236132	1283.25
1131.87438682637	1297.5
1134.45330370982	1314
1137.03141344858	1329.25
1139.60871647873	1348
1142.18521323554	1399.75
1144.7609041535	1465
1147.33578966629	1593.5
1149.90987020677	1656.5
1152.48314620702	1719
1155.05561809835	1695.75
1157.62728631126	1652
1160.19815127545	1659.25
1162.76821341988	1741
1165.33747317271	1825.25
1167.90593096133	1839.75
1170.47358721235	1777.25
1173.04044235163	1651.75
1175.60649680425	1538.25
1178.17175099454	1448.5
1180.73620534607	1419.25
1183.29986028165	1411
1185.86271622336	1392.25
1188.42477359249	1407.5
1190.98603280964	1428.75
1193.54649429462	1415.75
1196.10615846653	1451.25
1198.66502574373	1428.75
1201.22309654385	1450
1203.78037128379	1447.25
1206.33685037971	1486.25
1208.89253424709	1508
1211.44742330063	1532.25
1214.00151795439	1569.5
1216.55481862163	1625
1219.10732571498	1671.75
1221.65903964631	1653.5
1224.20996082683	1620
1226.760089667	1543.75
1229.30942657664	1542.75
1231.85797196483	1571
1234.40572623998	1557
1236.95268980981	1557.75
1239.49886308136	1556.5
1242.04424646099	1573
1244.58884035435	1616
1247.13264516647	1644.75
1249.67566130166	1670
1252.21788916359	1704.5
1254.75932915524	1737.5
1257.29998167896	1759.75
1259.8398471364	1713.75
1262.37892592858	1714.5
1264.91721845586	1711.5
1267.45472511795	1744.5
1269.9914463139	1738.75
1272.52738244213	1761.5
1275.06253390041	1766.75
1277.59690108587	1784.5
1280.130484395	1797.5
1282.66328422368	1805.75
1285.19530096712	1841.75
1287.72653501993	1897.25
1290.25698677609	1871.75
1292.78665662895	1931.5
1295.31554497125	1947.25
1297.84365219511	1967.5
1300.37097869203	1995
1302.89752485292	2040.75
1305.42329106806	2029.25
1307.94827772713	2053
1310.47248521921	2047.25
1312.99591393279	2087.25
1315.51856425575	2070.75
1318.04043657537	2139.75
1320.56153127836	2226.25
1323.08184875083	2344.75
1325.6013893783	2502.25
1328.12015354572	2640
1330.63814163744	2642
1333.15535403727	2565.25
1335.67179112839	2442.75
1338.18745329347	2392
1340.70234091455	2341
1343.21645437314	2342.5
1345.72979405019	2392.5
1348.24236032607	2413.25
1350.75415358059	2465.75
1353.26517419303	2534.5
1355.7754225421	2602.5
1358.28489900594	2691
1360.79360396218	2735.5
1363.30153778788	2694.5
1365.80870085955	2667.5
1368.31509355319	2675.5
1370.82071624425	2686
1373.32556930762	2687.75
1375.8296531177	2719.25
1378.33296804833	2718.25
1380.83551447282	2729.5
1383.33729276399	2732
1385.83830329408	2776.75
1388.33854643489	2741.25
1390.83802255762	2767.75
1393.33673203302	2797.75
1395.83467523128	2828.5
1398.33185252212	2820.75
1400.82826427472	2862.75
1403.32391085777	2913.75
1405.81879263948	2935.75
1408.31290998752	2999.5
1410.80626326908	2978.25
1413.29885285087	3019.5
1415.79067909909	3072.75
1418.28174237944	3092.25
1420.77204305717	3163.75
1423.26158149702	3170.5
1425.75035806323	3246.5
1428.2383731196	3310.25
1430.72562702943	3425
1433.21212015554	3539.5
1435.69785286029	3668.25
1438.18282550555	3654.25
1440.66703845276	3644.5
1443.15049206284	3650.25
1445.6331866963	3752.5
1448.11512271316	3854.5
1450.59630047298	3951.75
1453.07672033486	4099.5
1455.55638265748	4291.5
1458.03528779902	4403
1460.51343611725	4449
1462.99082796946	4387
1465.46746371252	4235.25
1467.94334370285	4152
1470.41846829642	4021.25
1472.89283784878	4042.25
1475.36645271503	4049
1477.83931324984	4099
1480.31141980743	4070.5
1482.78277274164	4124.25
1485.25337240583	4133.75
1487.72321915297	4147
1490.19231333557	4167
1492.66065530577	4198.25
1495.12824541525	4233.25
1497.5950840153	4299
1500.06117145678	4296.75
1502.52650809014	4341
1504.99109426543	4384.5
1507.45493033228	4466.25
1509.91801663992	4440
1512.38035353717	4479
1514.84194137248	4561.25
1517.30278049386	4541.75
1519.76287124895	4604.5
1522.22221398497	4585
1524.68080904877	4621
1527.13865678681	4635.75
1529.59575754514	4706.5
1532.05211166946	4737.75
1534.50771950503	4779.25
1536.96258139678	4790.75
1539.41669768925	4777
1541.87006872656	4843
1544.32269485252	4905.25
1546.77457641051	4928.25
1549.22571374357	5020
1551.67610719434	4992.25
1554.12575710513	5091
1556.57466381786	5094.75
1559.02282767408	5112.25
1561.470249015	5154.25
1563.91692818144	5211.75
1566.3628655139	5268.75
1568.80806135249	5262
1571.252516037	5310.5
1573.6962299068	5412.75
1576.139203301	5391
1578.58143655828	5412.25
1581.02293001704	5452.5
1583.46368401528	5523.75
1585.90369889071	5497
1588.34297498065	5564
1590.7815126221	5576
1593.21931215174	5626.25
1595.65637390588	5682.5
1598.09269822053	5687.75
1600.52828543135	5721.5
1602.96313587367	5749
1605.3972498825	5721.25
1607.83062779252	5686.5
1610.26326993808	5772.75
1612.69517665322	5775
1615.12634827165	5809.5
1617.55678512676	5816.75
1619.98648755164	5800.25
1622.41545587903	5800.75
1624.84369044138	5807.5
1627.27119157085	5890.25
1629.69795959924	5826.25
1632.12399485809	5886.75
1634.54929767859	5977.25
1636.97386839165	5985
1639.39770732789	5956.75
1641.8208148176	6032.25
1644.24319119078	6014
1646.66483677715	6064.75
1649.08575190611	6038.75
1651.50593690677	6141.5
1653.92539210795	6189.25
1656.3441178382	6178.75
1658.76211442575	6221.5
1661.17938219855	6272.25
1663.59592148428	6306.5
1666.01173261033	6278.75
1668.42681590377	6373
1670.84117169145	6458
1673.25480029991	6413.25
1675.66770205541	6474.75
1678.07987728393	6496.5
1680.49132631119	6534.5
1682.90204946263	6550.75
1685.31204706342	6508.75
1687.72131943847	6615.75
1690.1298669124	6636.5
1692.53768980957	6716
1694.94478845411	6726.5
1697.35116316982	6708.75
1699.75681428031	6736
1702.16174210887	6739.75
1704.56594697858	6806.5
1706.96942921222	6837.25
1709.37218913235	6797
1711.77422706126	6749.5
1714.17554332098	6809.5
1716.57613823331	6867.5
1718.97601211977	6833.75
1721.37516530169	6874
1723.77359810006	6864.5
1726.17131083573	6872
1728.56830382922	6874.25
1730.96457740087	6905
1733.36013187075	6874.75
1735.75496755868	6862.75
1738.14908478428	6929.75
1740.54248386689	6881.75
1742.93516512566	6934
1745.32712887946	6985.25
1747.71837544697	6974
1750.10890514662	6970.75
1752.49871829661	6987.25
1754.88781521492	7003.25
1757.27619621929	7049.5
1759.66386162726	7033.25
1762.05081175613	7061.5
1764.43704692297	7097.5
1766.82256744465	7073
1769.20737363782	7079.25
1771.59146581888	7071
1773.97484430405	7143
1776.35750940932	7213.25
1778.73946145048	7147.25
1781.12070074309	7222.25
1783.50122760249	7243
1785.88104234385	7276.25
1788.26014528209	7266
1790.63853673197	7253.75
1793.01621700796	7330.5
1795.39318642444	7397.5
1797.76944529549	7384.75
1800.14499393504	7371
1802.51983265681	7392.5
1804.8939617743	7472
1807.26738160085	7431.75
1809.64009244957	7406.75
1812.01209463339	7407.75
1814.38338846504	7468.25
1816.75397425706	7424.5
1819.12385232181	7481.5
1821.49302297142	7507.25
1823.86148651789	7470.5
1826.22924327299	7441
1828.59629354831	7528
1830.96263765526	7478
1833.32827590507	7508.75
1835.69320860877	7496
1838.05743607724	7531
1840.42095862113	7451.25
1842.78377655097	7487.5
1845.14589017707	7447
1847.50729980956	7525.75
1849.86800575843	7509.75
1852.22800833346	7466.5
1854.58730784427	7508.75
1856.94590460032	7522.25
1859.30379891087	7573
1861.66099108503	7541.5
1864.01748143175	7641.75
1866.37327025978	7602.5
1868.72835787773	7553.75
1871.08274459404	7650.5
1873.43643071697	7621
1875.78941655464	7680.25
1878.14170241499	7590.75
1880.4932886058	7702.75
1882.84417543469	7713.5
1885.19436320915	7696.5
1887.54385223646	7702.5
1889.89264282378	7706.5
1892.24073527809	7715.5
1894.58812990625	7750
1896.93482701494	7797.75
1899.28082691067	7805.25
1901.62612989985	7889.75
1903.97073628868	7809.75
1906.31464638326	7815
1908.6578604895	7876
1911.00037891321	7942.75
1913.34220196001	7880.25
1915.68332993538	7885.75
1918.02376314468	7895
1920.36350189311	7926.75
1922.70254648573	7909.25
1925.04089722744	7891.25
1927.37855442304	7889
1929.71551837715	7910.5
1932.05178939427	7885
1934.38736777876	7881
1936.72225383484	7832
1939.0564478666	8004.5
1941.38995017799	7915.5
1943.72276107283	7896.5
1946.05488085479	7867.75
1948.38630982744	7849
1950.71704829419	7858.5
1953.04709655832	7878.5
1955.376454923	7859.25
1957.70512369126	7840
1960.03310316599	7863.25
1962.36039364999	7732.75
1964.68699544589	7771.25
1967.01290885622	7797.5
1969.33813418338	7818.75
1971.66267172965	7798.75
1973.98652179718	7896.5
1976.309684688	7920
1978.63216070402	7843.75
1980.95395014705	7923.75
1983.27505331873	7869.25
1985.59547052064	7869.25
1987.9152020542	7895.75
1990.23424822074	7863.5
1992.55260932146	7851.75
1994.87028565746	7938.75
1997.18727752968	7889
1999.50358523901	7916.25
2001.81920908618	7886.75
2004.13414937184	7927.5
2006.44840639651	8061.5
2008.7619804606	8023.25
2011.07487186442	8013.5
2013.38708090815	8041.75
2015.6986078919	7992.75
2018.00945311564	8038.5
2020.31961687924	8014
2022.62909948247	8054.75
2024.93790122499	8059.25
2027.24602240636	8068.25
2029.55346332604	8080.5
2031.86022428337	8062.75
2034.16630557761	8096.25
2036.47170750791	8073
2038.77643037331	8090.5
2041.08047447275	8107.5
2043.38384010509	8022.5
2045.68652756907	8116
2047.98853716335	8030.75
2050.28986918648	8089.75
2052.59052393692	8063
2054.89050171302	8050.25
2057.18980281307	8106
2059.4884275352	8096.5
2061.78637617753	8019.25
2064.08364903802	7957
2066.38024641457	7980
2068.67616860497	7974.5
2070.97141590694	7943.5
2073.26598861809	7917
2075.55988703595	7864.5
2077.85311145796	7957.75
2080.14566218145	7851
2082.43753950371	7933.5
2084.72874372188	7850.25
2087.01927513307	7826.5
2089.30913403428	7863.75
2091.59832072241	7819.75
2093.88683549429	7787.5
2096.17467864666	7831
2098.46185047619	7843.5
2100.74835127944	7804
2103.03418135292	7844.5
2105.31934099303	7732.25
2107.6038304961	7746
2109.88765015838	7796.5
2112.17080027602	7727
2114.45328114513	7768.25
2116.7350930617	7722.25
2119.01623632165	7697.75
2121.29671122085	7635.5
2123.57651805505	7748.75
2125.85565711996	7702.25
2128.13412871117	7688.5
2130.41193312424	7685.75
2132.68907065462	7730.25
2134.96554159771	7632.75
2137.24134624881	7659.5
2139.51648490317	7673.25
2141.79095785594	7634.5
2144.0647654022	7654.25
2146.33790783698	7670.25
2148.61038545524	7569.5
2150.88219855182	7584.25
2153.15334742154	7574.75
2155.42383235911	7630.75
2157.69365365921	7567.75
2159.9628116164	7559.5
2162.23130652522	7525
2164.49913868011	7452.75
2166.76630837544	7486.75
2169.03281590553	7468.5
2171.29866156461	7493.25
2173.56384564685	7374.25
2175.82836844637	7405.5
2178.0922302572	7401.75
2180.35543137332	7378.25
2182.61797208862	7344.75
2184.87985269695	7284.25
2187.14107349208	7295.75
2189.40163476773	7303.75
2191.66153681753	7238.25
2193.92077993507	7244.25
2196.17936441386	7187.25
2198.43729054735	7154.25
2200.69455862894	7096
2202.95116895194	7123.5
2205.20712180963	7092.25
2207.4624174952	7083
2209.71705630179	7057.75
2211.97103852248	6996.75
2214.22436445031	6990.25
2216.47703437819	7005.75
2218.72904859905	6967
2220.98040740571	6940.75
2223.23111109096	6934.75
2225.4811599475	6892.5
2227.730554268	6899.25
2229.97929434505	6856.75
2232.22738047118	6829.5
2234.47481293889	6833.5
2236.72159204058	6871.25
2238.96771806864	6779
2241.21319131537	6723
2243.458012073	6669.25
2245.70218063374	6732.25
2247.94569728973	6718.75
2250.18856233304	6687.75
2252.4307760557	6578.5
2254.67233874967	6631.75
2256.91325070687	6595.5
2259.15351221915	6574.5
2261.39312357831	6570.25
2263.63208507611	6530.75
2265.87039700422	6525.5
2268.1080596543	6500.5
2270.34507331792	6486
2272.5814382866	6457.75
2274.81715485183	6506
2277.05222330502	6506.5
2279.28664393755	6459.25
2281.52041704073	6346.75
2283.75354290581	6399
2285.98602182401	6364.25
2288.21785408649	6361.75
2290.44903998434	6365
2292.67957980862	6335.75
2294.90947385033	6282.75
2297.1387224004	6244
2299.36732574976	6274.75
2301.59528418921	6263
2303.82259800958	6218
2306.04926750158	6210.25
2308.27529295593	6143.5
2310.50067466325	6179.75
2312.72541291412	6165.75
2314.9495079991	6149.75
2317.17296020866	6134.5
2319.39576983324	6100.5
2321.61793716322	6143
2323.83946248895	6039
2326.0603461007	6061.25
2328.28058828871	5969.25
2330.50018934317	5981.75
2332.7191495542	5972
2334.93746921192	5935
2337.15514860633	5959.5
2339.37218802743	5881.25
2341.58858776516	5866.25
2343.80434810941	5897.25
2346.01946935001	5902.5
2348.23395177676	5823.25
2350.44779567939	5794.75
2352.66100134759	5814.75
2354.87356907102	5793
2357.08549913925	5738.25
2359.29679184185	5695.25
2361.50744746829	5765.75
2363.71746630804	5738
2365.92684865049	5669
2368.13559478499	5681
2370.34370500083	5672.75
2372.55117958727	5601.5
2374.75801883353	5588.5
2376.96422302874	5540.5
2379.16979246202	5514.25
2381.37472742244	5513.25
2383.57902819898	5547.75
2385.78269508063	5449.75
2387.98572835629	5495
2390.18812831482	5436.25
2392.38989524505	5423.25
2394.59102943573	5389
2396.79153117559	5410.5
2398.9914007533	5398.5
2401.19063845748	5355.25
2403.38924457672	5303.75
2405.58721939951	5322.75
2407.78456321435	5310.75
2409.98127630966	5322.5
2412.17735897383	5278.5
2414.37281149518	5296.75
2416.56763416198	5230.5
2418.76182726249	5258.5
2420.95539108487	5201
2423.14832591726	5196.5
2425.34063204776	5149
2427.53230976439	5169
2429.72335935513	5135.25
2431.91378110795	5146.25
2434.10357531071	5102.75
2436.29274225126	5090.5
2438.48128221739	5096.75
2440.66919549684	5036.25
2442.8564823773	5041.75
2445.04314314641	5009
2447.22917809176	5008.75
2449.4145875009	5037.5
2451.59937166131	5001
2453.78353086044	4995
2455.96706538567	4972.75
2458.14997552437	4928.75
2460.33226156379	4899.75
2462.51392379119	4916
2464.69496249376	4862.5
2466.87537795862	4816
2469.05517047288	4843.25
2471.23434032358	4850.75
2473.41288779767	4823.5
2475.59081318212	4801.5
2477.76811676378	4797.5
2479.9447988295	4748
2482.12085966605	4763.25
2484.29629956016	4755.75
2486.4711187985	4778.75
2488.64531766769	4757.5
2490.8188964543	4725.25
2492.99185544484	4703.25
2495.16419492579	4705.5
2497.33591518353	4685.75
2499.50701650444	4674.25
2501.67749917482	4715.5
2503.84736348091	4630
2506.01660970891	4666.5
2508.18523814496	4668
2510.35324907515	4657.25
2512.52064278551	4696.25
2514.68741956201	4652.5
2516.85357969058	4685.25
2519.01912345709	4669
2521.18405114735	4653.5
2523.34836304711	4632.25
2525.51205944209	4612.5
2527.6751406179	4585
2529.83760686016	4613.5
2531.99945845439	4639.5
2534.16069568607	4650
2536.3213188406	4580.25
2538.48132820336	4570.5
2540.64072405965	4589.25
2542.79950669471	4580.25
2544.95767639373	4590.5
2547.11523344184	4536.25
2549.27217812411	4542
2551.42851072555	4540.75
2553.58423153111	4536.25
2555.7393408257	4501.5
2557.89383889413	4516
2560.04772602119	4490.5
2562.20100249158	4482.25
2564.35366858996	4491.5
2566.50572460093	4489.75
2568.65717080901	4434.75
2570.80800749867	4474.25
2572.95823495433	4456.25
2575.10785346031	4433.5
2577.25686330093	4431.25
2579.40526476038	4398.75
2581.55305812282	4435.5
2583.70024367237	4432
2585.84682169303	4401.25
2587.99279246879	4383.75
2590.13815628354	4369.75
2592.28291342112	4357
2594.42706416531	4351.5
2596.57060879981	4367
2598.71354760826	4406.25
2600.85588087425	4367.75
2602.99760888127	4328.5
2605.13873191278	4374.75
2607.27925025215	4349.75
2609.41916418269	4357
2611.55847398764	4377.75
2613.69717995017	4369.75
2615.8352823534	4378.5
2617.97278148034	4382.5
2620.10967761398	4375
2622.2459710372	4372.75
2624.38166203284	4391.25
2626.51675088365	4367.75
2628.65123787232	4347.5
2630.78512328145	4398.5
2632.9184073936	4337.5
2635.05109049124	4381.75
2637.18317285676	4405.75
2639.31465477249	4384.75
2641.44553652067	4426.75
2643.5758183835	4393.5
2645.70550064309	4435.75
2647.83458358144	4456.75
2649.96306748053	4504
2652.09095262224	4456
2654.21823928836	4498.25
2656.34492776063	4487.5
2658.47101832071	4487
2660.59651125015	4493.75
2662.72140683047	4490.25
2664.84570534309	4453.5
2666.96940706935	4429.5
2669.0925122905	4428
2671.21502128773	4435.5
2673.33693434216	4485.25
2675.45825173479	4506.75
2677.57897374658	4514.5
2679.6991006584	4526
2681.81863275101	4481.25
2683.93757030512	4522.5
2686.05591360133	4497.5
2688.17366292021	4523.5
2690.29081854218	4514.5
2692.40738074762	4525.5
2694.52334981681	4546.25
2696.63872602995	4509.75
2698.75350966714	4559.25
2700.86770100842	4552.75
2702.98130033372	4554.25
2705.09430792289	4599.25
2707.20672405572	4674
2709.31854901185	4674
2711.42978307091	4682.25
2713.54042651238	4733
2715.65047961567	4773.5
2717.7599426601	4853.5
2719.86881592492	4891.25
2721.97709968924	4869.75
2724.08479423213	4928
2726.19189983255	4864.5
2728.29841676935	4758
2730.40434532131	4822
2732.5096857671	4788.5
2734.61443838532	4762
2736.71860345444	4692.75
2738.82218125287	4751
2740.92517205889	4710
2743.02757615073	4795.5
2745.12939380646	4734.5
2747.23062530411	4728
2749.33127092159	4800.25
2751.4313309367	4723
2753.53080562717	4760.5
2755.62969527058	4752.25
2757.72800014448	4737.5
2759.82572052625	4760.25
2761.92285669323	4714.75
2764.0194089226	4723.75
2766.11537749147	4772.75
2768.21076267686	4774.5
2770.30556475566	4779.5
2772.39978400465	4797.25
2774.49342070054	4759.75
2776.58647511991	4831.5
2778.67894753923	4867
2780.77083823487	4846.25
2782.8621474831	4821.5
2784.95287556007	4821
2787.04302274184	4869.5
2789.13258930433	4906.75
2791.22157552338	4909.75
2793.30998167471	4847
2795.39780803392	4982.75
2797.48505487651	4953
2799.57172247786	4961.75
2801.65781111324	4938.75
2803.74332105781	4975.5
2805.82825258661	4995.75
2807.91260597457	5061
2809.9963814965	5025.25
2812.07957942711	5078.75
2814.16220004096	5043.5
2816.24424361252	5143
2818.32571041614	5121.5
2820.40660072604	5184
2822.48691481632	5250.75
2824.56665296098	5320.25
2826.64581543388	5417
2828.72440250876	5607
2830.80241445925	5812.25
2832.87985155885	6132.5
2834.95671408094	6628.75
2837.03300229875	7107
2839.10871648544	7312.75
2841.18385691399	7275.5
2843.25842385729	6958.75
2845.33241758808	6581.75
2847.40583837899	6389.5
2849.4786865025	6199
2851.550962231	6120.25
2853.6226658367	6061.5
2855.69379759174	6142
2857.76435776806	6372.5
2859.83434663753	6756
2861.90376447184	7342.5
2863.97261154259	7992.25
2866.04088812121	8466.5
2868.10859447901	8556.75
2870.17573088717	8537
2872.24229761673	8517.25
2874.30829493859	8639.5
2876.37372312353	8915.5
2878.43858244215	9433.5
2880.50287316496	9811.75
2882.56659556231	10031.5
2884.6297499044	10078
2886.69233646129	9818
2888.75435550293	9421.75
2890.81580729909	9128
2892.87669211941	8788.25
2894.9370102334	8612.75
2896.99676191039	8582.25
2899.05594741961	8748.25
2901.11456703011	8893.75
2903.1726210108	9080
2905.23010963045	9290
2907.28703315768	9053.5
2909.34339186096	8775.25
2911.39918600861	8524.75
2913.45441586879	8170.25
2915.50908170953	8138.75
2917.56318379867	8124.5
2919.61672240395	8279
2921.66969779291	8233.25
2923.72211023296	8360.75
2925.77395999134	8282.25
2927.82524733515	8109.25
2929.87597253133	7918.75
2931.92613584663	7549.25
2933.9757375477	7253.5
2936.02477790097	7043
2938.07325717276	6931
2940.1211756292	6915.75
2942.16853353626	7004.5
2944.21533115977	7178.5
2946.26156876536	7516.25
2948.30724661853	7975.75
2950.3523649846	8423
2952.39692412872	8639.75
2954.44092431587	8617
2956.4843658109	8737.5
2958.52724887843	9133.75
2960.56957378296	9281.5
2962.6113407888	9203.5
2964.65255016011	8752.25
2966.69320216083	8359.75
2968.73329705479	7891.5
2970.77283510559	7536.75
2972.81181657671	7239.5
2974.85024173141	6923.75
2976.88811083279	6708.5
2978.92542414379	6554.75
2980.96218192714	6491.25
2982.99838444541	6386.5
2985.034031961	6361.25
2987.06912473612	6327
2989.1036630328	6319.25
2991.13764711289	6277
2993.17107723804	6231.5
2995.20395366975	6271.25
2997.23627666931	6274
2999.26804649782	6249.25
3001.29926341624	6274.5
3003.32992768528	6254.25
3005.3600395655	6295.25
3007.38959931727	6263.25
3009.41860720076	6306.5
3011.44706347595	6360
3013.47496840263	6272
3015.50232224042	6334.25
3017.5291252487	6363
3019.5553776867	6337.25
3021.58107981344	6362.25
3023.60623188773	6375.75
3025.63083416822	6347.75
3027.65488691331	6454
3029.67839038125	6385
3031.70134483007	6409
3033.72375051759	6431.5
3035.74560770145	6451.25
3037.76691663907	6422
3039.78767758768	6450
3041.80789080431	6432.5
3043.82755654577	6428.75
3045.84667506867	6461.5
3047.8652466294	6484.5
3049.88327148418	6461.25
3051.90074988899	6465.25
3053.91768209961	6424.5
3055.93406837161	6480.5
3057.94990896033	6504.75
3059.96520412095	6510.75
3061.97995410838	6541
3063.99415917734	6491
3066.00781958234	6508
3068.02093557766	6496.25
3070.03350741738	6482.25
3072.04553535535	6476.25
3074.05701964521	6479.5
3076.06796054036	6474
3078.07835829401	6459.25
3080.08821315912	6561
3082.09752538846	6582.5
3084.10629523454	6444.75
3086.11452294967	6534.75
3088.12220878592	6537.75
3090.12935299515	6581.25
3092.13595582898	6488.75
3094.1420175388	6560.75
3096.1475383758	6532
3098.15251859088	6557
3100.15695843477	6582.75
3102.16085815793	6616
3104.16421801062	6521.25
3106.16703824282	6573.25
3108.16931910432	6567.5
3110.17106084464	6581.25
3112.17226371308	6630.5
3114.17292795872	6587
3116.17305383034	6642
3118.17264157657	6580.25
3120.17169144571	6637.75
3122.17020368587	6573.5
3124.16817854492	6627.75
3126.16561627044	6640.5
3128.16251710982	6715.75
3130.15888131017	6656.5
3132.15470911837	6718.5
3134.15000078104	6700
3136.14475654455	6726.75
3138.13897665502	6664.5
3140.13266135835	6677.75
3142.12581090015	6709.75
3144.11842552578	6747.25
3146.11050548036	6713.25
3148.10205100875	6718.75
3150.09306235557	6779.75
3152.08353976515	6727
3154.07348348158	6735.75
3156.06289374869	6756.25
3158.05177081006	6720.25
3160.04011490899	6715
3162.02792628852	6740.25
3164.01520519145	6773.5
3166.00195186029	6794.25
3167.98816653728	6797.75
3169.97384946442	6805.75
3171.95900088344	6739.5
3173.94362103577	6761.75
3175.9277101626	6789
3177.91126850484	6777.25
3179.89429630312	6753.25
3181.87679379782	6689.75
3183.85876122904	6796.75
3185.84019883657	6780
3187.82110685997	6784.5
3189.80148553851	6784.75
3191.78133511116	6778.75
3193.76065581664	6785
3195.73944789337	6793.75
3197.7177115795	6732.25
3199.6954471129	6829.75
3201.67265473114	6797.5
3203.64933467153	6784.75
3205.62548717107	6723.5
3207.60111246649	6818.25
3209.57621079422	6787.75
3211.55078239041	6798.75
3213.52482749093	6772.5
3215.49834633133	6738
3217.4713391469	6858.5
3219.44380617262	6809.75
3221.41574764318	6833.75
3223.38716379296	6800.25
3225.35805485607	6845.5
3227.32842106631	6789.25
3229.29826265718	6822.25
3231.26757986187	6859.25
3233.2363729133	6880.5
3235.20464204405	6853.5
3237.17238748644	6839.5
3239.13960947243	6832.5
3241.10630823374	6878.5
3243.07248400174	6844.5
3245.03813700748	6856
3247.00326748177	6817.75
3248.96787565503	6854.5
3250.93196175742	6865.75
3252.89552601877	6875.75
3254.8585686686	6817.5
3256.82108993612	6832
3258.78309005022	6858
3260.74456923948	6848.75
3262.70552773215	6837.25
3264.66596575617	6884.5
3266.62588353916	6848.75
3268.58528130843	6754.75
3270.54415929094	6764
3272.50251771336	6811.25
3274.46035680202	6814.5
3276.4176767829	6806.5
3278.37447788171	6740.75
3280.33076032379	6793.75
3282.28652433416	6730.75
3284.24177013751	6809.75
3286.1964979582	6789.5
3288.15070802027	6796.5
3290.10440054741	6760.25
3292.05757576298	6683
3294.01023389001	6733.5
3295.96237515119	6720
3297.91399976887	6769.75
3299.86510796506	6720.75
3301.81569996143	6709.5
3303.76577597932	6722.5
3305.71533623971	6700.5
3307.66438096325	6690.5
3309.61291037024	6638.5
3311.56092468063	6667.5
3313.50842411404	6614.75
3315.45540888971	6695
3317.40187922656	6579.5
3319.34783534315	6625.75
3321.29327745768	6589.75
3323.23820578801	6548
3325.18262055164	6558.75
3327.1265219657	6524.75
3329.06991024699	6580.5
3331.01278561194	6602
3332.95514827663	6529.25
3334.89699845675	6562
3336.83833636766	6568.25
3338.77916222434	6483
3340.71947624143	6563.25
3342.65927863317	6559.25
3344.59856961347	6487
3346.53734939584	6529.25
3348.47561819344	6495.5
3350.41337621907	6489.75
3352.35062368513	6477.25
3354.28736080368	6471.25
3356.22358778637	6482.5
3358.15930484452	6461.5
3360.09451218904	6507
3362.02921003047	6447.75
3363.96339857899	6445.75
3365.89707804437	6426
3367.83024863603	6395
3369.76291056299	6402.25
3371.69506403389	6396.25
3373.62670925699	6404
3375.55784644016	6431.25
3377.4884757909	6366.75
3379.41859751629	6431
3381.34821182305	6402.75
3383.27731891749	6425.25
3385.20591900555	6409.75
3387.13401229276	6438
3389.06159898426	6402.5
3390.9886792848	6356.5
3392.91525339872	6407.25
3394.84132152998	6376.75
3396.76688388213	6308.5
3398.69194065834	6362
3400.61649206133	6382
3402.54053829348	6376.5
3404.46407955672	6344.5
3406.3871160526	6381.5
3408.30964798225	6317
3410.23167554639	6342
3412.15319894535	6373.5
3414.07421837904	6296
3415.99473404695	6305.5
3417.91474614817	6320.75
3419.83425488136	6349.25
3421.7532604448	6278.25
3423.67176303631	6282.75
3425.58976285332	6277
3427.50726009283	6281
3429.42425495143	6253.75
3431.34074762528	6199
3433.25673831012	6173
3435.17222720127	6141.75
3437.08721449362	6226.25
3439.00170038164	6126
3440.91568505936	6186
3442.8291687204	6121.75
3444.74215155792	6106.5
3446.65463376469	6100.5
3448.566615533	6099.25
3450.47809705476	6088
3452.3890785214	6051.75
3454.29956012393	6055
3456.20954205293	6016.25
3458.11902449853	6017.25
3460.02800765042	6046.5
3461.93649169784	5990.25
3463.84447682962	5931
3465.75196323412	5940.75
3467.65895109925	5960.75
3469.56544061249	5884
3471.47143196086	5900.5
3473.37692533094	5928
3475.28192090884	5842.25
3477.18641888026	5871.75
3479.09041943039	5834.5
3480.99392274402	5832.75
3482.89692900545	5791
3484.79943839853	5811.75
3486.70145110666	5771
3488.60296731277	5776
3490.50398719933	5767.25
3492.40451094836	5712.5
3494.30453874141	5724.75
3496.20407075956	5760.75
3498.10310718342	5715
3500.00164819315	5688.5