201.866871357051	984.75
204.754250281454	999.5
207.640596790938	997.75
210.525911876299	1005.5
213.410196525689	999.25
216.293451724508	993.75
219.175678455485	997.75
222.056877698662	1002.75
224.937050431388	1010.5
227.816197628363	1019.5
230.694320261602	1019.5
233.571419300504	1012.75
236.447495711764	1022.5
239.322550459507	1015.5
242.196584505182	1023.75
245.069598807626	1019.25
247.941594323078	1027
250.812572005154	1012.25
253.682532804884	1017.5
256.551477670699	1018.75
259.419407548456	1022.75
262.286323381439	1007.75
265.152226110364	1010
268.017116673389	996.75
270.880996006115	991.25
273.743865041622	1004.25
276.605724710436	990
279.466575940562	1008.75
282.326419657496	1006
285.1852567842	999
288.043088241157	1009
290.899914946349	997
293.75573781526	1009.75
296.610557760898	1011.25
299.464375693817	990.75
302.317192522078	998
305.169009151297	991.25
308.019826484655	992.5
310.86964542287	997.5
313.718466864233	999
316.566291704614	1003.25
319.413120837457	1004.5
322.258955153804	995.75
325.103795542291	987.75
327.947642889128	991.5
330.79049807819	999
333.632361990927	996.75
336.473235506444	1001.5
339.31311950145	1004
342.152014850322	1006.5
344.989922425062	1012.5
347.826843095354	1020.75
350.662777728528	1015.75
353.497727189577	1016.75
356.331692341195	1028
359.164674043732	1024.25
361.996673155267	1022
364.827690531536	1035.25
367.65772702602	1034.25
370.486783489887	1012.75
373.314860772047	1033.5
376.14195971912	1011.75
378.968081175466	1040
381.793225983212	1027
384.617394982201	1018.25
387.44058901005	1027
390.262808902131	1028
393.08405549161	1032.5
395.904329609395	1029.75
398.723632084213	1042.5
401.541963742569	1033
404.359325408779	1042.75
407.175717904938	1054.75
409.991142050982	1059.25
412.805598664665	1070.75
415.619088561551	1080.25
418.43161255505	1087
421.243171456415	1089
424.053766074758	1100
426.863397217017	1116.75
429.672065688024	1125.75
432.479772290455	1138.75
435.286517824879	1152
438.092303089736	1166
440.897128881359	1159
443.70099599399	1162.25
446.503905219761	1160.25
449.305857348711	1170.25
452.106853168796	1160.5
454.906893465919	1131.5
457.705979023885	1130.75
460.504110624439	1099.75
463.3012890473	1084.5
466.097515070087	1082
468.892789468424	1061.75
471.687113015869	1069.25
474.48048648395	1062.25
477.272910642198	1059.25
480.064386258109	1049.75
482.854914097159	1044.5
485.644494922839	1041.25
488.433129496636	1031.25
491.220818578047	1041.5
494.007562924584	1052
496.793363291785	1046.75
499.578220433217	1048.5
502.362135100473	1053.25
505.145108043209	1031.25
507.927140009098	1066.5
510.708231743909	1044
513.488383991433	1045.5
516.267597493556	1039.25
519.04587299022	1054.25
521.82321121946	1060
524.599612917398	1048.5
527.375078818233	1053.75
530.149609654287	1040.25
532.923206155967	1048.75
535.695869051804	1046.5
538.467599068448	1048
541.238396930665	1059
544.008263361364	1036
546.777199081578	1055
549.545204810493	1043
552.312281265436	1047.25
555.078429161898	1057.25
557.843649213533	1060
560.607942132156	1073.25
563.371308627753	1078
566.133749408495	1079.75
568.895265180756	1088.5
571.655856649064	1081.75
574.415524516189	1094.75
577.174269483075	1099.5
579.932092248884	1091.25
582.688993510994	1126.5
585.444973965023	1114
588.200034304795	1136
590.95417522237	1145.25
593.70739740807	1152.5
596.459701550433	1170
599.21108833628	1165
601.961558450668	1179
604.711112576933	1177.75
607.459751396673	1200.25
610.207475589748	1185.75
612.954285834338	1188.5
615.700182806879	1189
618.445167182101	1188.25
621.189239633055	1166.25
623.932400831087	1143
626.674651445839	1123.25
629.415992145303	1132.5
632.156423595745	1106
634.895946461813	1091.25
637.634561406449	1085.5
640.37226909096	1075.5
643.109070174978	1085
645.844965316508	1092.25
648.579955171888	1070
651.314040395846	1064.25
654.047221641456	1083.75
656.779499560176	1067
659.510874801828	1069.25
662.241348014642	1059.25
664.97091984524	1059.75
667.699590938606	1057
670.427361938164	1061.25
673.15423348573	1067
675.880206221526	1064
678.605280784206	1059
681.329457810829	1063.5
684.05273793692	1055
686.775121796389	1069
689.49661002163	1058.5
692.217203243454	1078.5
694.936902091144	1051
697.655707192425	1048.75
700.373619173493	1046
703.09063865901	1046.25
705.806766272093	1057.75
708.522002634378	1051
711.236348365946	1049
713.94980408538	1048.5
716.662370409762	1056.5
719.374047954676	1041
722.08483733419	1060
724.794739160909	1062
727.503754045949	1050
730.21188259892	1057.25
732.919125427998	1046
735.625483139855	1057
738.330956339723	1060.75
741.035545631374	1055.25
743.739251617106	1045
746.44207489779	1058.25
749.144016072852	1062.75
751.845075740272	1075.75
754.545254496603	1057.75
757.244552936976	1057.25
759.94297165508	1048.75
762.640511243222	1048.25
765.337172292249	1056.5
768.032955391649	1046.25
770.727861129482	1040.5
773.421890092413	1057.25
776.11504286572	1052.5
778.807320033298	1052.25
781.49872217765	1045.75
784.18924987991	1048
786.87890371984	1037.5
789.567684275826	1051.75
792.255592124908	1057.5
794.94262784276	1037.5
797.628792003703	1063.25
800.314085180715	1050.75
802.998507945427	1042
805.682060868145	1053.25
808.364744517821	1054.5
811.046559462105	1062.25
813.727506267311	1057.75
816.407585498422	1049.75
819.08679771913	1054.75
821.765143491822	1066.75
824.442623377563	1063.25
827.119237936127	1062
829.794987726003	1059
832.469873304377	1073
835.143895227167	1063.5
837.817054048985	1074
840.489350323205	1073.75
843.160784601892	1079.25
845.831357435894	1077.75
848.501069374739	1088.75
851.169920966753	1073
853.837912758987	1066.5
856.505045297232	1092
859.171319126071	1069
861.836734788823	1084
864.501292827579	1073.25
867.164993783208	1075.5
869.827838195361	1056.5
872.489826602454	1075.25
875.150959541701	1076.25
877.811237549104	1062.25
880.470661159456	1077.5
883.129230906357	1069.25
885.786947322205	1069
888.443810938206	1086
891.099822284385	1065.5
893.754981889586	1067
896.409290281452	1064
899.062747986485	1075.5
901.715355529999	1062
904.367113436154	1061.5
907.01802222793	1065.5
909.668082427172	1069.5
912.317294554574	1064.5
914.965659129659	1061.5
917.613176670835	1077
920.259847695364	1061.75
922.90567271936	1051.5
925.550652257825	1070.75
928.194786824621	1071.75
930.838076932512	1068.25
933.480523093109	1074.5
936.122125816953	1086
938.762885613447	1082.5
941.402802990899	1055.5
944.041878456523	1075.5
946.680112516428	1087.75
949.31750567563	1073.75
951.954058438081	1088.5
954.589771306633	1087.75
957.224644783048	1078.75
959.858679368044	1079
962.491875561238	1073
965.12423386121	1081.5
967.75575476545	1076.75
970.386438770423	1076
973.016286371501	1089.5
975.645298063046	1084.75
978.273474338355	1085.5
980.900815689674	1071.25
983.527322608243	1067.75
986.152995584245	1083
988.777835106834	1091.5
991.401841664148	1082.5
994.025015743307	1080
996.647357830407	1089.25
999.268868410534	1082.25
1001.88954796777	1083.75
1004.50939698518	1110.5
1007.12841594484	1093.25
1009.74660532783	1081
1012.36396561423	1092.5
1014.98049728314	1094.25
1017.59620081267	1086.5
1020.21107667995	1104.25
1022.82512536112	1093.5
1025.43834733138	1091.5
1028.05074306493	1110
1030.66231303501	1109.5
1033.27305771392	1114.5
1035.88297757299	1114.75
1038.49207308257	1107.5
1041.10034471211	1092.75
1043.70779293008	1114.5
1046.31441820402	1119.25
1048.92022100052	1116.25
1051.52520178525	1129.5
1054.12936102295	1145.5
1056.73269917742	1191.75
1059.33521671154	1219.5
1061.93691408729	1248.5
1064.53779176571	1204
1067.13785020694	1174.75
1069.73708987022	1156
1072.33551121386	1154.25
1074.93311469528	1134.25
1077.52990077103	1128.75
1080.12586989674	1146.5
1082.72102252714	1144.5
1085.31535911611	1143.75
1087.90888011663	1142
1090.50158598078	1123.25
1093.09347715979	1130
1095.68455410403	1120.75
1098.27481726296	1122.5
1100.86426708523	1120.75
1103.45290401857	1136.75
1106.04072850991	1126
1108.6277410053	1126
1111.21394194993	1103.75
1113.79933178816	1136.5
1116.3839109635	1134
1118.96767991862	1127.5
1121.55063909539	1165.25
1124.13278893477	1177
1126.71412987696	1182.75
1129.29466236132	1176.25
1131.87438682637	1165.5
1134.45330370982	1150
1137.03141344858	1154
1139.60871647872	1152.5
1142.18521323554	1133.25
1144.7609041535	1135
1147.33578966629	1124.75
1149.90987020676	1136.75
1152.48314620702	1147.25
1155.05561809835	1134.25
1157.62728631125	1144
1160.19815127545	1139
1162.76821341988	1149
1165.33747317271	1152.75
1167.90593096133	1153.75
1170.47358721235	1144.75
1173.04044235163	1152
1175.60649680425	1139.75
1178.17175099454	1126.75
1180.73620534607	1147.75
1183.29986028165	1129.75
1185.86271622336	1139.75
1188.42477359249	1128
1190.98603280964	1133.5
1193.54649429462	1133.75
1196.10615846653	1131.75
1198.66502574372	1125.5
1201.22309654385	1137
1203.78037128378	1126.5
1206.33685037971	1144
1208.89253424709	1148
1211.44742330063	1136.5
1214.00151795438	1149
1216.55481862163	1135.5
1219.10732571497	1140.75
1221.65903964631	1141.75
1224.20996082683	1133.25
1226.760089667	1132.5
1229.30942657664	1141.25
1231.85797196483	1144.75
1234.40572623998	1137.5
1236.95268980981	1142.25
1239.49886308136	1160.25
1242.04424646098	1140.25
1244.58884035435	1148.75
1247.13264516647	1164
1249.67566130166	1163.5
1252.21788916358	1164
1254.75932915524	1175.75
1257.29998167896	1176.25
1259.83984713639	1173.75
1262.37892592857	1181
1264.91721845586	1175
1267.45472511795	1184.75
1269.9914463139	1177.5
1272.52738244213	1184.25
1275.0625339004	1189.75
1277.59690108587	1202.25
1280.130484395	1196.5
1282.66328422367	1195
1285.19530096712	1233.75
1287.72653501993	1259
1290.25698677608	1301.75
1292.78665662894	1371.5
1295.31554497125	1408.25
1297.8436521951	1379.75
1300.37097869203	1305.25
1302.89752485292	1291
1305.42329106805	1262.25
1307.94827772713	1265.25
1310.47248521921	1253.25
1312.99591393279	1244
1315.51856425575	1239.5
1318.04043657536	1242
1320.56153127836	1232.5
1323.08184875083	1233.75
1325.6013893783	1232.5
1328.12015354572	1241.5
1330.63814163744	1239.25
1333.15535403727	1240.5
1335.67179112839	1256.5
1338.18745329347	1247.25
1340.70234091454	1243.75
1343.21645437314	1249
1345.72979405019	1265.75
1348.24236032607	1247
1350.75415358059	1265.75
1353.26517419303	1260.5
1355.7754225421	1265.75
1358.28489900594	1267.75
1360.79360396218	1264
1363.30153778787	1274.75
1365.80870085955	1276.5
1368.31509355319	1283.25
1370.82071624424	1288.5
1373.32556930762	1271.5
1375.8296531177	1265
1378.33296804832	1265
1380.83551447282	1276.5
1383.33729276399	1282.5
1385.83830329408	1272.25
1388.33854643489	1279
1390.83802255762	1273.25
1393.33673203301	1273.25
1395.83467523128	1269.75
1398.33185252211	1278.25
1400.82826427471	1268.5
1403.32391085777	1277.25
1405.81879263947	1274.75
1408.31290998752	1298.25
1410.80626326908	1285.75
1413.29885285087	1301.25
1415.79067909909	1313.75
1418.28174237944	1307.5
1420.77204305717	1320
1423.26158149702	1334.25
1425.75035806323	1369.5
1428.2383731196	1383.75
1430.72562702942	1441
1433.21212015554	1470.5
1435.69785286028	1507.75
1438.18282550555	1534.75
1440.66703845275	1549.75
1443.15049206284	1504.75
1445.6331866963	1476.25
1448.11512271316	1488.5
1450.59630047298	1481.5
1453.07672033486	1479
1455.55638265748	1481
1458.03528779902	1492
1460.51343611725	1474.75
1462.99082796946	1478
1465.46746371252	1470.5
1467.94334370285	1438.5
1470.41846829642	1431.5
1472.89283784878	1419.5
1475.36645271503	1422.75
1477.83931324983	1418
1480.31141980743	1418
1482.78277274164	1405
1485.25337240583	1394.5
1487.72321915297	1398.25
1490.19231333557	1380
1492.66065530578	1425.75
1495.12824541525	1393.75
1497.5950840153	1420.5
1500.06117145678	1421.5
1502.52650809014	1401.25
1504.99109426543	1422
1507.45493033227	1414.25
1509.91801663992	1406.25
1512.38035353717	1424.5
1514.84194137248	1424
1517.30278049386	1415.25
1519.76287124894	1425.5
1522.22221398497	1428.5
1524.68080904876	1428.75
1527.13865678681	1417.5
1529.59575754514	1426.75
1532.05211166945	1443
1534.50771950503	1442.75
1536.96258139678	1448.75
1539.41669768924	1459.5
1541.87006872656	1463
1544.32269485252	1469.75
1546.77457641051	1474
1549.22571374357	1503.25
1551.67610719434	1497.75
1554.12575710513	1493.75
1556.57466381785	1502.25
1559.02282767408	1497.25
1561.47024901499	1491.5
1563.91692818144	1527.75
1566.3628655139	1524
1568.80806135249	1527.75
1571.252516037	1530.5
1573.6962299068	1549
1576.13920330099	1525.25
1578.58143655828	1554.75
1581.02293001704	1562.5
1583.46368401528	1557.5
1585.90369889071	1577.75
1588.34297498065	1562.5
1590.7815126221	1564.5
1593.21931215173	1570.5
1595.65637390588	1583
1598.09269822053	1554
1600.52828543135	1581
1602.96313587367	1596.75
1605.3972498825	1590
1607.83062779252	1591.25
1610.26326993808	1598.25
1612.69517665322	1599
1615.12634827165	1614.25
1617.55678512676	1597.75
1619.98648755163	1599.25
1622.41545587902	1613.75
1624.84369044138	1591.75
1627.27119157085	1616.5
1629.69795959924	1611.5
1632.12399485808	1615.75
1634.54929767859	1623.75
1636.97386839165	1628.75
1639.39770732789	1608.25
1641.8208148176	1642.25
1644.24319119078	1626.5
1646.66483677715	1653
1649.0857519061	1641
1651.50593690677	1669.5
1653.92539210795	1655.75
1656.3441178382	1676
1658.76211442575	1701
1661.17938219855	1671.5
1663.59592148428	1685.5
1666.01173261032	1687
1668.42681590377	1697
1670.84117169145	1725
1673.25480029991	1700.5
1675.66770205541	1694.5
1678.07987728393	1722.5
1680.49132631119	1735.5
1682.90204946263	1751.5
1685.31204706342	1754
1687.72131943846	1784.5
1690.1298669124	1773.5
1692.53768980957	1765
1694.94478845411	1781.5
1697.35116316982	1771.25
1699.75681428031	1799
1702.16174210887	1794
1704.56594697858	1803.5
1706.96942921222	1804
1709.37218913235	1804.25
1711.77422706125	1797.25
1714.17554332098	1819.75
1716.5761382333	1831.25
1718.97601211977	1824.25
1721.37516530169	1834
1723.77359810006	1830.75
1726.17131083572	1882.25
1728.56830382922	1847.75
1730.96457740087	1849
1733.36013187075	1852.25
1735.75496755868	1821.75
1738.14908478428	1860.25
1740.54248386689	1841
1742.93516512565	1858.25
1745.32712887946	1876.25
1747.71837544697	1881.75
1750.10890514662	1889
1752.49871829661	1879.5
1754.88781521492	1885.5
1757.27619621929	1913
1759.66386162726	1916.5
1762.05081175612	1924.75
1764.43704692297	1926
1766.82256744465	1915.75
1769.20737363782	1941.25
1771.59146581887	1944.25
1773.97484430405	1983.25
1776.35750940932	1956.25
1778.73946145048	1981.5
1781.12070074309	1980.25
1783.50122760249	1988.25
1785.88104234385	2011.25
1788.26014528209	1995
1790.63853673196	2010
1793.01621700796	2013.25
1795.39318642443	2015
1797.76944529549	2039
1800.14499393503	2039.5
1802.51983265681	2029.5
1804.8939617743	2077.5
1807.26738160085	2091.25
1809.64009244957	2072.5
1812.01209463339	2052
1814.38338846504	2102.5
1816.75397425706	2095
1819.12385232181	2112.25
1821.49302297142	2115.5
1823.86148651789	2096.75
1826.22924327299	2106
1828.59629354831	2136
1830.96263765526	2145.25
1833.32827590507	2127
1835.69320860877	2152
1838.05743607724	2153.5
1840.42095862113	2158.25
1842.78377655097	2173.5
1845.14589017707	2177.25
1847.50729980956	2161.75
1849.86800575843	2199.75
1852.22800833346	2173.75
1854.58730784427	2218
1856.94590460032	2233
1859.30379891087	2220.5
1861.66099108503	2241
1864.01748143175	2256
1866.37327025978	2264.5
1868.72835787773	2241.25
1871.08274459403	2308.25
1873.43643071697	2271.5
1875.78941655464	2310.25
1878.14170241498	2287.75
1880.4932886058	2291.5
1882.84417543469	2305.5
1885.19436320915	2339.25
1887.54385223646	2362.75
1889.89264282378	2378.25
1892.24073527809	2368.75
1894.58812990625	2363.25
1896.93482701493	2420.75
1899.28082691067	2415.5
1901.62612989984	2432.5
1903.97073628868	2441.5
1906.31464638326	2476.75
1908.6578604895	2466.25
1911.00037891321	2499.5
1913.34220196	2473.75
1915.68332993537	2501.75
1918.02376314468	2511.75
1920.36350189311	2525.25
1922.70254648573	2548.75
1925.04089722744	2529.25
1927.37855442303	2543.75
1929.71551837715	2567
1932.05178939426	2574.75
1934.38736777876	2593.25
1936.72225383484	2598.75
1939.0564478666	2652
1941.38995017799	2612
1943.72276107283	2662
1946.05488085479	2638.5
1948.38630982744	2636.75
1950.71704829419	2675.25
1953.04709655832	2664.25
1955.376454923	2687
1957.70512369126	2662.5
1960.03310316599	2695
1962.36039364999	2705.5
1964.68699544589	2727.25
1967.01290885622	2753.5
1969.33813418338	2764
1971.66267172965	2776
1973.98652179718	2771
1976.309684688	2780.75
1978.63216070402	2810.5
1980.95395014705	2884.25
1983.27505331873	2844.75
1985.59547052063	2846
1987.9152020542	2861.5
1990.23424822074	2885.75
1992.55260932146	2892
1994.87028565746	2915.75
1997.18727752968	2927
1999.503585239	2964.25
2001.81920908618	2959.75
2004.13414937184	3004
2006.44840639651	3000.75
2008.7619804606	3019.75
2011.07487186442	3049.25
2013.38708090815	3093.75
2015.6986078919	3124
2018.00945311564	3107.25
2020.31961687923	3128.75
2022.62909948246	3118
2024.93790122498	3150
2027.24602240636	3188.25
2029.55346332604	3186.5
2031.86022428337	3181.25
2034.16630557761	3234.25
2036.47170750791	3229.75
2038.77643037331	3249.5
2041.08047447275	3265.5
2043.38384010509	3265.25
2045.68652756907	3303.75
2047.98853716335	3334.25
2050.28986918648	3345.25
2052.59052393692	3378.25
2054.89050171302	3357
2057.18980281306	3373.75
2059.4884275352	3413.75
2061.78637617753	3392.5
2064.08364903802	3422.75
2066.38024641457	3406.25
2068.67616860497	3424.25
2070.97141590694	3449.5
2073.26598861809	3445.75
2075.55988703595	3421.75
2077.85311145796	3439
2080.14566218145	3475.5
2082.43753950371	3476.25
2084.72874372188	3456.75
2087.01927513307	3486.5
2089.30913403428	3476
2091.59832072241	3510.75
2093.88683549429	3508.75
2096.17467864666	3556.75
2098.46185047619	3496.5
2100.74835127944	3544.5
2103.03418135292	3577.25
2105.31934099303	3578.5
2107.6038304961	3581.5
2109.88765015838	3568.5
2112.17080027602	3578.25
2114.45328114513	3636.75
2116.7350930617	3580.75
2119.01623632165	3624
2121.29671122085	3592.25
2123.57651805505	3612.75
2125.85565711996	3622.75
2128.13412871117	3673
2130.41193312424	3634
2132.68907065462	3664
2134.96554159771	3682
2137.24134624881	3641.25
2139.51648490317	3697.25
2141.79095785593	3665.5
2144.0647654022	3656.5
2146.33790783698	3682.25
2148.61038545524	3627
2150.88219855182	3711.75
2153.15334742154	3694.75
2155.42383235911	3713.5
2157.6936536592	3727.25
2159.9628116164	3674.25
2162.23130652522	3705.25
2164.49913868011	3691.25
2166.76630837544	3686.75
2169.03281590552	3706.5
2171.2986615646	3683.5
2173.56384564685	3678
2175.82836844637	3675.75
2178.0922302572	3705
2180.35543137332	3666.25
2182.61797208862	3650
2184.87985269695	3675.25
2187.14107349208	3652.75
2189.40163476773	3663.25
2191.66153681753	3658.25
2193.92077993507	3603
2196.17936441386	3649
2198.43729054735	3625.5
2200.69455862894	3602.5
2202.95116895194	3582.75
2205.20712180962	3583.5
2207.46241749519	3596
2209.71705630179	3647.25
2211.97103852248	3603.75
2214.2243644503	3556.75
2216.47703437819	3549
2218.72904859905	3546.75
2220.98040740571	3565.25
2223.23111109095	3552.25
2225.4811599475	3523.5
2227.73055426799	3518
2229.97929434504	3472
2232.22738047118	3498.5
2234.47481293889	3489.5
2236.72159204058	3513.75
2238.96771806864	3521
2241.21319131536	3478
2243.458012073	3469.75
2245.70218063374	3412.75
2247.94569728973	3458.75
2250.18856233304	3441.5
2252.4307760557	3374.75
2254.67233874967	3415.75
2256.91325070687	3419.25
2259.15351221915	3384
2261.39312357831	3400.75
2263.63208507611	3358.75
2265.87039700422	3341.5
2268.1080596543	3383
2270.34507331792	3328.25
2272.5814382866	3327.25
2274.81715485183	3371.25
2277.05222330502	3347
2279.28664393755	3306.25
2281.52041704072	3283.75
2283.75354290581	3328.5
2285.98602182401	3302
2288.21785408648	3301.75
2290.44903998434	3299.5
2292.67957980862	3290
2294.90947385033	3287
2297.1387224004	3296.25
2299.36732574975	3255
2301.59528418921	3256
2303.82259800958	3256.25
2306.04926750158	3229.5
2308.27529295593	3245
2310.50067466325	3228.75
2312.72541291412	3223.75
2314.9495079991	3215.75
2317.17296020866	3172.25
2319.39576983323	3199.25
2321.61793716322	3207.75
2323.83946248894	3177.5
2326.06034610069	3164.75
2328.28058828871	3170.25
2330.50018934317	3173.25
2332.7191495542	3124.75
2334.93746921192	3131.25
2337.15514860633	3127.25
2339.37218802743	3095.5
2341.58858776516	3105.75
2343.80434810941	3078.25
2346.01946935001	3110.5
2348.23395177675	3095.5
2350.44779567939	3084.75
2352.66100134759	3049.5
2354.87356907101	3047.5
2357.08549913925	3042.5
2359.29679184185	3033.75
2361.50744746829	3042.25
2363.71746630804	3024.5
2365.92684865048	3002
2368.13559478499	2982.5
2370.34370500083	3027.5
2372.55117958727	3016.25
2374.75801883352	2979.75
2376.96422302874	2969.5
2379.16979246202	2926.75
2381.37472742243	2945.5
2383.57902819898	2955.5
2385.78269508063	2922.5
2387.98572835629	2915.75
2390.18812831482	2922.75
2392.38989524505	2917.5
2394.59102943573	2916.75
2396.79153117559	2881.25
2398.9914007533	2894
2401.19063845748	2889.75
2403.38924457672	2870.5
2405.58721939951	2870.75
2407.78456321435	2841
2409.98127630966	2890.5
2412.17735897382	2875
2414.37281149517	2865.25
2416.56763416198	2840.25
2418.76182726249	2833
2420.95539108487	2845
2423.14832591726	2853.75
2425.34063204776	2817.25
2427.53230976439	2810.5
2429.72335935513	2848.5
2431.91378110795	2805
2434.10357531071	2802.5
2436.29274225125	2797
2438.48128221739	2760.5
2440.66919549683	2754.75
2442.8564823773	2764.75
2445.04314314641	2759
2447.22917809176	2764.25
2449.4145875009	2784.5
2451.59937166131	2744.5
2453.78353086044	2745
2455.96706538568	2746.75
2458.14997552436	2719
2460.33226156379	2708.75
2462.51392379119	2739.5
2464.69496249376	2680.5
2466.87537795862	2712
2469.05517047288	2673.75
2471.23434032357	2693.5
2473.41288779767	2734.75
2475.59081318211	2693
2477.76811676378	2665
2479.9447988295	2665.25
2482.12085966605	2663.25
2484.29629956016	2635.5
2486.4711187985	2672
2488.64531766769	2643
2490.8188964543	2653.5
2492.99185544484	2635
2495.16419492579	2653.75
2497.33591518353	2611
2499.50701650444	2614.5
2501.67749917482	2640.75
2503.84736348091	2610
2506.01660970891	2617
2508.18523814496	2596.25
2510.35324907514	2596.5
2512.52064278551	2644.75
2514.68741956201	2636.5
2516.85357969058	2618.75
2519.01912345709	2594.5
2521.18405114735	2611
2523.34836304711	2591.75
2525.51205944208	2610.75
2527.6751406179	2611
2529.83760686016	2598.75
2531.99945845439	2616.25
2534.16069568606	2610.25
2536.3213188406	2587.25
2538.48132820336	2568
2540.64072405965	2585.5
2542.79950669471	2567.5
2544.95767639373	2605.75
2547.11523344184	2563.25
2549.27217812411	2568.75
2551.42851072555	2579.5
2553.58423153111	2580
2555.73934082569	2567.25
2557.89383889412	2554.25
2560.04772602118	2564.5
2562.20100249158	2526.5
2564.35366858996	2515.25
2566.50572460093	2558.5
2568.65717080901	2535.75
2570.80800749867	2544.75
2572.95823495433	2530.75
2575.10785346031	2511
2577.25686330093	2507
2579.40526476038	2479.5
2581.55305812282	2488
2583.70024367237	2498.5
2585.84682169303	2502.5
2587.99279246879	2489.5
2590.13815628354	2489.5
2592.28291342112	2497.75
2594.42706416531	2479
2596.5706087998	2463
2598.71354760826	2483.5
2600.85588087425	2481.25
2602.99760888127	2470.75
2605.13873191278	2440
2607.27925025214	2443.75
2609.41916418269	2452.75
2611.55847398764	2454.5
2613.69717995017	2453.25
2615.83528235339	2456.25
2617.97278148034	2465.25
2620.10967761398	2460.75
2622.2459710372	2454.5
2624.38166203284	2432.75
2626.51675088365	2419.5
2628.65123787231	2418.5
2630.78512328145	2437
2632.9184073936	2425.75
2635.05109049124	2422
2637.18317285676	2437.75
2639.31465477248	2416.5
2641.44553652067	2430.25
2643.5758183835	2417.5
2645.70550064309	2442.25
2647.83458358144	2423.5
2649.96306748053	2464.25
2652.09095262223	2419.5
2654.21823928836	2451.75
2656.34492776063	2448.5
2658.47101832071	2413.25
2660.59651125015	2440.25
2662.72140683047	2443
2664.84570534309	2440.25
2666.96940706934	2416.5
2669.0925122905	2423.5
2671.21502128773	2423.25
2673.33693434215	2429.75
2675.45825173479	2457.75
2677.57897374658	2410
2679.69910065839	2449
2681.818632751	2414.25
2683.93757030511	2454.25
2686.05591360133	2414.75
2688.17366292021	2428.25
2690.29081854218	2437
2692.40738074762	2453.75
2694.52334981681	2427
2696.63872602995	2425
2698.75350966713	2444
2700.86770100841	2477.75
2702.98130033371	2438.75
2705.09430792289	2446
2707.20672405571	2478.75
2709.31854901185	2521.5
2711.42978307091	2504.5
2713.54042651238	2500.75
2715.65047961567	2510.5
2717.7599426601	2500.5
2719.86881592491	2492.25
2721.97709968924	2517.5
2724.08479423213	2520
2726.19189983255	2509.5
2728.29841676934	2464
2730.4043453213	2467.75
2732.5096857671	2440.5
2734.61443838532	2446.75
2736.71860345444	2394.25
2738.82218125286	2411
2740.92517205889	2408.5
2743.02757615072	2397
2745.12939380646	2382.25
2747.23062530411	2374.75
2749.33127092159	2395.75
2751.4313309367	2370.25
2753.53080562716	2370.5
2755.62969527058	2388.5
2757.72800014448	2373.25
2759.82572052625	2368
2761.92285669323	2370.75
2764.0194089226	2376.75
2766.11537749147	2341.25
2768.21076267686	2369.25
2770.30556475566	2375.25
2772.39978400465	2362.5
2774.49342070054	2350.5
2776.58647511991	2361
2778.67894753923	2356.5
2780.77083823487	2365.5
2782.8621474831	2351.75
2784.95287556007	2337.5
2787.04302274184	2357
2789.13258930433	2375.5
2791.22157552338	2340
2793.30998167471	2358.5
2795.39780803392	2371.5
2797.4850548765	2335.25
2799.57172247786	2392
2801.65781111324	2352
2803.74332105781	2367.25
2805.82825258661	2363.25
2807.91260597457	2382.25
2809.9963814965	2374
2812.07957942711	2380.25
2814.16220004096	2419.5
2816.24424361252	2395
2818.32571041614	2400.75
2820.40660072604	2429.75
2822.48691481631	2447.75
2824.56665296098	2479.25
2826.64581543388	2520.25
2828.72440250876	2573.75
2830.80241445925	2643.25
2832.87985155885	2748
2834.95671408093	2916.75
2837.03300229875	3155
2839.10871648544	3480.75
2841.18385691399	3911.25
2843.25842385729	4284.25
2845.33241758808	4501.25
2847.40583837898	4672.25
2849.4786865025	4605.25
2851.550962231	4486.25
2853.6226658367	4262.75
2855.69379759173	4071.5
2857.76435776806	3950.75
2859.83434663753	3829
2861.90376447184	3753
2863.97261154259	3701
2866.0408881212	3665.5
2868.10859447901	3623.75
2870.17573088717	3684.5
2872.24229761673	3715.5
2874.30829493859	3837.75
2876.37372312352	4087
2878.43858244215	4414.75
2880.50287316496	4669.5
2882.56659556231	4661
2884.62974990439	4448.75
2886.69233646129	4175
2888.75435550293	3983.5
2890.81580729909	3915.75
2892.87669211941	3860
2894.93701023339	3817.5
2896.99676191039	3750
2899.05594741961	3734.5
2901.1145670301	3676.25
2903.1726210108	3586.75
2905.23010963045	3550.75
2907.28703315768	3456.75
2909.34339186096	3408.75
2911.39918600861	3360
2913.45441586879	3303.75
2915.50908170952	3270.5
2917.56318379867	3250
2919.61672240395	3276
2921.66969779291	3253.5
2923.72211023295	3274
2925.77395999134	3234.25
2927.82524733515	3232
2929.87597253132	3184.75
2931.92613584663	3193.75
2933.97573754769	3147.75
2936.02477790097	3044.25
2938.07325717276	2954.25
2940.1211756292	2876
2942.16853353626	2809.5
2944.21533115976	2707.25
2946.26156876536	2658.25
2948.30724661853	2600.25
2950.3523649846	2561.5
2952.39692412872	2524
2954.44092431587	2512.5
2956.48436581089	2516.5
2958.52724887843	2478.5
2960.56957378296	2483
2962.6113407888	2459
2964.65255016011	2465.25
2966.69320216083	2436.25
2968.73329705479	2447
2970.77283510559	2429.5
2972.81181657671	2451.5
2974.8502417314	2442.75
2976.88811083279	2411.25
2978.92542414378	2423.5
2980.96218192713	2420
2982.99838444541	2405.75
2985.034031961	2397
2987.06912473612	2420.75
2989.1036630328	2409
2991.13764711288	2441
2993.17107723804	2391.5
2995.20395366974	2423
2997.23627666931	2416.5
2999.26804649782	2430
3001.29926341624	2437.75
3003.32992768528	2392
3005.3600395655	2435.5
3007.38959931726	2452.5
3009.41860720076	2434.25
3011.44706347595	2455.75
3013.47496840263	2456.75
3015.50232224041	2437.25
3017.5291252487	2439.75
3019.5553776867	2453.25
3021.58107981344	2448.25
3023.60623188773	2455
3025.63083416822	2441.5
3027.65488691331	2469.5
3029.67839038125	2503.25
3031.70134483007	2449.75
3033.72375051759	2495.75
3035.74560770144	2469.75
3037.76691663907	2472.25
3039.78767758768	2467
3041.80789080431	2497.5
3043.82755654577	2493.75
3045.84667506867	2482.25
3047.8652466294	2485.75
3049.88327148418	2476.5
3051.90074988899	2483.5
3053.91768209961	2492.75
3055.9340683716	2474.5
3057.94990896033	2486.75
3059.96520412095	2492
3061.97995410838	2506.75
3063.99415917734	2508.75
3066.00781958234	2472
3068.02093557766	2485.25
3070.03350741738	2513.75
3072.04553535535	2504
3074.05701964521	2515
3076.06796054036	2495.25
3078.078358294	2481.75
3080.08821315912	2508
3082.09752538846	2516
3084.10629523454	2472.5
3086.11452294967	2534
3088.12220878592	2494.25
3090.12935299515	2533.5
3092.13595582898	2503.25
3094.1420175388	2531
3096.14753837579	2525.75
3098.15251859088	2536.25
3100.15695843477	2513
3102.16085815793	2526.25
3104.16421801061	2529
3106.16703824282	2521.75
3108.16931910432	2564.75
3110.17106084464	2530.5
3112.17226371308	2556.75
3114.17292795872	2555
3116.17305383034	2558.5
3118.17264157657	2530.25
3120.17169144571	2591.25
3122.17020368587	2560.75
3124.16817854492	2574.75
3126.16561627044	2580.5
3128.16251710982	2614.75
3130.15888131017	2594.75
3132.15470911837	2586
3134.15000078104	2589.25
3136.14475654455	2585.25
3138.13897665502	2607.5
3140.13266135835	2600.5
3142.12581090014	2640.25
3144.11842552577	2626
3146.11050548036	2659.25
3148.10205100875	2640
3150.09306235557	2639.5
3152.08353976515	2628.75
3154.07348348158	2632.25
3156.06289374869	2638.75
3158.05177081006	2650
3160.04011490899	2652.25
3162.02792628852	2658
3164.01520519145	2650.5
3166.00195186029	2658.5
3167.98816653728	2667
3169.97384946442	2631
3171.95900088344	2657
3173.94362103577	2659
3175.92771016259	2668.5
3177.91126850484	2677
3179.89429630312	2686
3181.87679379782	2678.75
3183.85876122903	2713.75
3185.84019883657	2717.25
3187.82110685997	2710.5
3189.80148553851	2683.5
3191.78133511116	2711.5
3193.76065581664	2731.25
3195.73944789337	2734.25
3197.7177115795	2720.75
3199.6954471129	2725.25
3201.67265473114	2725
3203.64933467153	2725.25
3205.62548717107	2757.25
3207.60111246648	2761
3209.57621079421	2747
3211.55078239041	2767
3213.52482749093	2753
3215.49834633133	2781.75
3217.4713391469	2786.5
3219.44380617262	2773.25
3221.41574764317	2802.25
3223.38716379296	2775.75
3225.35805485607	2819.5
3227.32842106631	2788
3229.29826265718	2838
3231.26757986187	2828.25
3233.2363729133	2832
3235.20464204405	2832.5
3237.17238748643	2829.25
3239.13960947243	2841.25
3241.10630823374	2874.5
3243.07248400174	2866.75
3245.03813700748	2905
3247.00326748177	2888.25
3248.96787565503	2899.5
3250.93196175742	2903.75
3252.89552601877	2931.75
3254.8585686686	2912.5
3256.82108993612	2933.25
3258.78309005022	2927.75
3260.74456923948	2927.5
3262.70552773215	2922
3264.66596575617	2944.5
3266.62588353916	2982
3268.58528130843	2940
3270.54415929094	2961.75
3272.50251771336	2926.75
3274.46035680201	2997
3276.4176767829	3004.75
3278.37447788171	2952.75
3280.33076032379	2983.25
3282.28652433416	2970.25
3284.24177013751	2983.5
3286.1964979582	2999.75
3288.15070802027	3004.75
3290.10440054741	3006.75
3292.05757576298	3011.5
3294.01023389001	2994.75
3295.96237515119	3040.5
3297.91399976887	3039
3299.86510796506	3053.5
3301.81569996142	3002.75
3303.76577597932	3023.25
3305.7153362397	3021
3307.66438096324	3034.5
3309.61291037024	3038.25
3311.56092468064	3045.25
3313.50842411404	3037.25
3315.45540888971	3062.5
3317.40187922656	3068.5
3319.34783534315	3078.25
3321.29327745768	3075.75
3323.23820578801	3049
3325.18262055164	3079.25
3327.1265219657	3070.5
3329.06991024699	3055.5
3331.01278561194	3094.25
3332.95514827662	3072.75
3334.89699845674	3096.25
3336.83833636766	3085
3338.77916222434	3074.5
3340.71947624143	3127.5
3342.65927863317	3099.5
3344.59856961346	3100.75
3346.53734939584	3134.25
3348.47561819344	3119.75
3350.41337621906	3146.5
3352.35062368513	3124.25
3354.28736080368	3109.25
3356.22358778637	3143
3358.15930484452	3145.25
3360.09451218904	3162.25
3362.02921003047	3117.75
3363.96339857898	3159.25
3365.89707804436	3145.5
3367.83024863602	3189
3369.76291056299	3175.25
3371.69506403389	3183
3373.62670925699	3200
3375.55784644016	3206
3377.4884757909	3198.75
3379.41859751629	3208.75
3381.34821182305	3228.5
3383.27731891749	3232.25
3385.20591900555	3228
3387.13401229276	3226.75
3389.06159898426	3257.5
3390.9886792848	3283
3392.91525339872	3270.75
3394.84132152998	3280
3396.76688388213	3295.75
3398.69194065833	3245.5
3400.61649206133	3291.75
3402.54053829348	3268
3404.46407955672	3281.75
3406.3871160526	3262.75
3408.30964798225	3335
3410.23167554639	3303.5
3412.15319894535	3327
3414.07421837904	3348
3415.99473404695	3345
3417.91474614817	3302.75
3419.83425488136	3349
3421.75326044479	3362.25
3423.67176303631	3349
3425.58976285332	3353.75
3427.50726009282	3365.75
3429.42425495143	3355
3431.34074762528	3370.5
3433.25673831012	3382.5
3435.17222720127	3334
3437.08721449362	3422
3439.00170038164	3361.25
3440.91568505936	3385.75
3442.82916872039	3370
3444.74215155791	3371
3446.65463376468	3380.25
3448.566615533	3368.5
3450.47809705476	3378.75
3452.3890785214	3367
3454.29956012393	3395.75
3456.20954205293	3406.75
3458.11902449853	3352
3460.02800765041	3400.25
3461.93649169784	3390.5
3463.84447682962	3373.5
3465.75196323412	3356.5
3467.65895109925	3368.5
3469.56544061249	3400.25
3471.47143196086	3384
3473.37692533093	3395.5
3475.28192090884	3379.75
3477.18641888026	3381.75
3479.09041943039	3402.75
3480.99392274402	3396.5
3482.89692900545	3384.75
3484.79943839853	3372.75
3486.70145110666	3393
3488.60296731277	3419
3490.50398719933	3374.25
3492.40451094836	3356.75
3494.30453874141	3391.5
3496.20407075956	3390.25
3498.10310718342	3401.25
3500.00164819315	3357.75