201.866871357051	934.25
204.754250281454	933.5
207.640596790938	935.75
210.525911876299	943
213.410196525689	935
216.293451724508	939.75
219.175678455485	938.25
222.056877698662	948.5
224.937050431388	942
227.816197628363	944.25
230.694320261602	956.25
233.571419300504	939
236.447495711764	957.25
239.322550459507	954.25
242.196584505182	952.75
245.069598807626	956
247.941594323078	969
250.812572005154	967.75
253.682532804884	969.75
256.551477670699	975.5
259.419407548456	967.5
262.286323381439	959.5
265.152226110364	978.75
268.017116673389	982
270.880996006115	990.75
273.743865041622	988
276.605724710436	992
279.466575940562	988.5
282.326419657496	1010
285.1852567842	999
288.043088241157	1006.25
290.899914946349	1024.25
293.75573781526	1018.25
296.610557760898	1012.25
299.464375693817	1006.5
302.317192522078	999.75
305.169009151297	1030.75
308.019826484655	1014
310.86964542287	1030.25
313.718466864233	1018.5
316.566291704614	1025.75
319.413120837457	1038.5
322.258955153804	1016
325.103795542291	1030.5
327.947642889128	1028.5
330.79049807819	1037.5
333.632361990927	1034.25
336.473235506444	1036.75
339.31311950145	1025.75
342.152014850322	1038.5
344.989922425062	1039
347.826843095354	1043.25
350.662777728528	1046.5
353.497727189577	1075.75
356.331692341195	1068.75
359.164674043732	1072
361.996673155267	1059.5
364.827690531536	1069.5
367.65772702602	1079
370.486783489887	1075.25
373.314860772047	1087.25
376.14195971912	1078.5
378.968081175466	1072.5
381.793225983212	1084
384.617394982201	1098.75
387.44058901005	1090
390.262808902131	1102.5
393.08405549161	1101.25
395.904329609395	1101.25
398.723632084213	1109.75
401.541963742569	1115
404.359325408779	1104.25
407.175717904938	1128.75
409.991142050982	1110.25
412.805598664665	1114.5
415.619088561551	1124
418.43161255505	1132
421.243171456415	1133.5
424.053766074758	1144.25
426.863397217017	1139.25
429.672065688024	1131.5
432.479772290455	1142
435.286517824879	1157.75
438.092303089736	1148.75
440.897128881359	1153
443.70099599399	1148.5
446.503905219761	1165.75
449.305857348711	1159
452.106853168796	1147.25
454.906893465919	1161.75
457.705979023885	1180
460.504110624439	1170
463.3012890473	1165.25
466.097515070087	1168.25
468.892789468424	1184.25
471.687113015869	1182.5
474.48048648395	1186.75
477.272910642198	1185.75
480.064386258109	1180.5
482.854914097159	1193.75
485.644494922839	1197
488.433129496636	1195.25
491.220818578047	1211.25
494.007562924584	1224.75
496.793363291785	1230.25
499.578220433217	1235.75
502.362135100473	1230.5
505.145108043209	1230
507.927140009098	1227
510.708231743909	1243.25
513.488383991433	1237.25
516.267597493556	1241.25
519.04587299022	1237.5
521.82321121946	1257
524.599612917398	1269.75
527.375078818233	1263
530.149609654287	1248.75
532.923206155967	1273.5
535.695869051804	1277
538.467599068448	1271.75
541.238396930665	1279
544.008263361364	1271.25
546.777199081578	1274.5
549.545204810493	1266.5
552.312281265436	1263.5
555.078429161898	1285.75
557.843649213533	1287.5
560.607942132156	1295.25
563.371308627753	1305.25
566.133749408495	1285
568.895265180756	1292.5
571.655856649064	1296
574.415524516189	1304.25
577.174269483075	1325.25
579.932092248884	1334
582.688993510994	1319.25
585.444973965023	1329
588.200034304795	1342.5
590.95417522237	1335.25
593.70739740807	1339.75
596.459701550433	1339.75
599.21108833628	1358.5
601.961558450668	1336.25
604.711112576933	1358.5
607.459751396673	1357.5
610.207475589748	1351
612.954285834338	1375.25
615.700182806879	1350.25
618.445167182101	1352
621.189239633055	1345
623.932400831087	1341.25
626.674651445839	1363.5
629.415992145303	1376.25
632.156423595745	1363.25
634.895946461813	1359
637.634561406449	1376
640.37226909096	1377.75
643.109070174978	1381.5
645.844965316508	1408.25
648.579955171888	1380.25
651.314040395846	1379.75
654.047221641456	1411.5
656.779499560176	1382
659.510874801828	1402.25
662.241348014642	1404
664.97091984524	1412.5
667.699590938606	1425.75
670.427361938164	1411.75
673.15423348573	1419.75
675.880206221526	1449.75
678.605280784206	1437
681.329457810829	1420
684.05273793692	1450.5
686.775121796389	1448.5
689.49661002163	1464.25
692.217203243454	1453.75
694.936902091144	1444.5
697.655707192425	1454.25
700.373619173493	1478.75
703.09063865901	1459.5
705.806766272093	1470.75
708.522002634378	1489.25
711.236348365946	1480.75
713.94980408538	1488.5
716.662370409762	1474
719.374047954676	1481.75
722.08483733419	1488
724.794739160909	1496.5
727.503754045949	1506.5
730.21188259892	1510
732.919125427998	1487.75
735.625483139855	1504
738.330956339723	1513.5
741.035545631374	1493
743.739251617106	1518.75
746.44207489779	1548.5
749.144016072852	1540.5
751.845075740272	1557.5
754.545254496603	1536.75
757.244552936976	1552.25
759.94297165508	1559
762.640511243222	1564.25
765.337172292249	1575
768.032955391649	1563.75
770.727861129482	1568.25
773.421890092413	1578.75
776.11504286572	1594.5
778.807320033298	1573.5
781.49872217765	1586
784.18924987991	1576.25
786.87890371984	1584.75
789.567684275826	1595.5
792.255592124908	1611.5
794.94262784276	1595.75
797.628792003703	1607.75
800.314085180715	1615.25
802.998507945427	1616.75
805.682060868145	1598.75
808.364744517821	1625
811.046559462105	1619.25
813.727506267311	1625.5
816.407585498422	1630.5
819.08679771913	1649.25
821.765143491822	1667.75
824.442623377563	1649.5
827.119237936127	1663
829.794987726003	1665.25
832.469873304377	1664.25
835.143895227167	1693.5
837.817054048985	1656
840.489350323205	1671.5
843.160784601892	1702
845.831357435894	1690.5
848.501069374739	1695
851.169920966753	1705.75
853.837912758987	1708.75
856.505045297232	1715
859.171319126071	1714.25
861.836734788823	1716.75
864.501292827579	1750.75
867.164993783208	1716.75
869.827838195361	1737
872.489826602454	1716.75
875.150959541701	1753.5
877.811237549104	1728.75
880.470661159456	1768
883.129230906357	1738.5
885.786947322205	1752
888.443810938206	1738.75
891.099822284385	1740.5
893.754981889586	1760.25
896.409290281452	1760
899.062747986485	1760.75
901.715355529999	1798.25
904.367113436154	1779.75
907.01802222793	1778
909.668082427172	1774.25
912.317294554574	1785.25
914.965659129659	1806.5
917.613176670835	1790.75
920.259847695364	1796.75
922.90567271936	1817.75
925.550652257825	1818.5
928.194786824621	1833
930.838076932512	1833
933.480523093109	1835
936.122125816953	1844.25
938.762885613447	1842
941.402802990899	1823
944.041878456523	1847.25
946.680112516428	1859
949.31750567563	1848
951.954058438081	1850.5
954.589771306633	1875
957.224644783048	1878.25
959.858679368044	1864.5
962.491875561238	1882.75
965.12423386121	1884.75
967.75575476545	1885.25
970.386438770423	1868.75
973.016286371501	1898.25
975.645298063046	1882
978.273474338355	1913.5
980.900815689674	1893.25
983.527322608243	1892
986.152995584245	1922.75
988.777835106834	1953.25
991.401841664148	1933.5
994.025015743307	1932
996.647357830407	1935.75
999.268868410534	1935.75
1001.88954796777	1952.75
1004.50939698518	1947
1007.12841594484	1946.5
1009.74660532783	1982.5
1012.36396561423	1954.25
1014.98049728314	1964.25
1017.59620081267	1974
1020.21107667995	1990
1022.82512536112	1982
1025.43834733138	2008.75
1028.05074306493	2008.5
1030.66231303501	2007
1033.27305771392	2007
1035.88297757299	2051.5
1038.49207308257	2036
1041.10034471211	2058.75
1043.70779293008	2071.5
1046.31441820402	2069
1048.92022100052	2059.25
1051.52520178525	2079.75
1054.12936102295	2104
1056.73269917742	2132
1059.33521671154	2190.5
1061.93691408729	2191.25
1064.53779176571	2180.75
1067.13785020694	2163.5
1069.73708987022	2128.5
1072.33551121386	2111.25
1074.93311469528	2109.25
1077.52990077103	2132.75
1080.12586989674	2120.75
1082.72102252714	2161.75
1085.31535911611	2183
1087.90888011663	2196.25
1090.50158598078	2151.25
1093.09347715979	2150.25
1095.68455410403	2127.75
1098.27481726296	2151.25
1100.86426708523	2168.25
1103.45290401857	2134.5
1106.04072850991	2156.5
1108.6277410053	2143
1111.21394194993	2146.25
1113.79933178816	2191
1116.3839109635	2217.75
1118.96767991862	2238.5
1121.55063909539	2256
1124.13278893477	2286
1126.71412987696	2312.5
1129.29466236132	2313.25
1131.87438682637	2310
1134.45330370982	2256.25
1137.03141344858	2256.5
1139.60871647872	2235.5
1142.18521323554	2274.5
1144.7609041535	2259.75
1147.33578966629	2265.25
1149.90987020676	2266
1152.48314620702	2251.25
1155.05561809835	2243.75
1157.62728631125	2232
1160.19815127545	2285.75
1162.76821341988	2292.75
1165.33747317271	2278.5
1167.90593096133	2289.25
1170.47358721235	2315.25
1173.04044235163	2321.25
1175.60649680425	2261.5
1178.17175099454	2316
1180.73620534607	2317
1183.29986028165	2324.25
1185.86271622336	2283.25
1188.42477359249	2295.5
1190.98603280964	2329
1193.54649429462	2299.5
1196.10615846653	2336.25
1198.66502574372	2332
1201.22309654385	2346.75
1203.78037128378	2304.25
1206.33685037971	2335
1208.89253424709	2372
1211.44742330063	2336.5
1214.00151795438	2339.25
1216.55481862163	2362.25
1219.10732571497	2372.75
1221.65903964631	2361
1224.20996082683	2402.75
1226.760089667	2391.25
1229.30942657664	2413.75
1231.85797196483	2419
1234.40572623998	2417.75
1236.95268980981	2452.25
1239.49886308136	2442.5
1242.04424646098	2472.75
1244.58884035435	2456.25
1247.13264516647	2471.5
1249.67566130166	2502.5
1252.21788916358	2520.75
1254.75932915524	2525
1257.29998167896	2557.25
1259.83984713639	2554
1262.37892592857	2567.25
1264.91721845586	2563.5
1267.45472511795	2610
1269.9914463139	2617.5
1272.52738244213	2619.5
1275.0625339004	2643
1277.59690108587	2623
1280.130484395	2668.75
1282.66328422367	2651
1285.19530096712	2686.5
1287.72653501993	2739.25
1290.25698677608	2805.5
1292.78665662894	2879.25
1295.31554497125	2940
1297.8436521951	2903.75
1300.37097869203	2831.75
1302.89752485292	2846.25
1305.42329106805	2849.5
1307.94827772713	2814.5
1310.47248521921	2840.25
1312.99591393279	2866.75
1315.51856425575	2872.25
1318.04043657536	2869.75
1320.56153127836	2894
1323.08184875083	2929.75
1325.6013893783	2914.5
1328.12015354572	2942
1330.63814163744	2961.5
1333.15535403727	3006
1335.67179112839	3023.75
1338.18745329347	3062.75
1340.70234091454	3067.5
1343.21645437314	3053.5
1345.72979405019	3134.25
1348.24236032607	3115.5
1350.75415358059	3155.75
1353.26517419303	3202.75
1355.7754225421	3174.25
1358.28489900594	3225.25
1360.79360396218	3269.25
1363.30153778787	3286.75
1365.80870085955	3328.75
1368.31509355319	3304.25
1370.82071624424	3349.75
1373.32556930762	3358
1375.8296531177	3384
1378.33296804832	3383.5
1380.83551447282	3387.75
1383.33729276399	3428
1385.83830329408	3427
1388.33854643489	3489
1390.83802255762	3445
1393.33673203301	3556.75
1395.83467523128	3517.5
1398.33185252211	3536
1400.82826427471	3567.5
1403.32391085777	3559.25
1405.81879263947	3631.5
1408.31290998752	3691.5
1410.80626326908	3665.75
1413.29885285087	3716
1415.79067909909	3822
1418.28174237944	3839
1420.77204305717	3902.5
1423.26158149702	3929.25
1425.75035806323	3950.5
1428.2383731196	3998.25
1430.72562702942	4074.5
1433.21212015554	4131.5
1435.69785286028	4255
1438.18282550555	4370.25
1440.66703845275	4376.25
1443.15049206284	4390.25
1445.6331866963	4428.5
1448.11512271316	4468.75
1450.59630047298	4504.75
1453.07672033486	4598
1455.55638265748	4607.25
1458.03528779902	4664.75
1460.51343611725	4722.25
1462.99082796946	4758
1465.46746371252	4821.25
1467.94334370285	4879.5
1470.41846829642	4861.25
1472.89283784878	4920.5
1475.36645271503	4988
1477.83931324983	5011.5
1480.31141980743	5057
1482.78277274164	5119.75
1485.25337240583	5135
1487.72321915297	5186.5
1490.19231333557	5225
1492.66065530578	5282
1495.12824541525	5369
1497.5950840153	5358.5
1500.06117145678	5414.25
1502.52650809014	5510.5
1504.99109426543	5564
1507.45493033227	5643.5
1509.91801663992	5654.25
1512.38035353717	5734.5
1514.84194137248	5836.25
1517.30278049386	5865.75
1519.76287124894	5954.25
1522.22221398497	5977.75
1524.68080904876	6070.75
1527.13865678681	6096.75
1529.59575754514	6206
1532.05211166945	6319.5
1534.50771950503	6386
1536.96258139678	6464.25
1539.41669768924	6562.5
1541.87006872656	6584.5
1544.32269485252	6715
1546.77457641051	6754.25
1549.22571374357	6890.75
1551.67610719434	6949.75
1554.12575710513	7003.75
1556.57466381785	7115.25
1559.02282767408	7156
1561.47024901499	7247
1563.91692818144	7383.25
1566.3628655139	7496.25
1568.80806135249	7468.25
1571.252516037	7543.5
1573.6962299068	7690.5
1576.13920330099	7728.75
1578.58143655828	7845
1581.02293001704	7917.5
1583.46368401528	7952.5
1585.90369889071	8075.5
1588.34297498065	8077.25
1590.7815126221	8184.25
1593.21931215173	8216.75
1595.65637390588	8257.75
1598.09269822053	8306.75
1600.52828543135	8361
1602.96313587367	8435.75
1605.3972498825	8425
1607.83062779252	8447.5
1610.26326993808	8524.75
1612.69517665322	8583.25
1615.12634827165	8630
1617.55678512676	8630.75
1619.98648755163	8599.5
1622.41545587902	8687.25
1624.84369044138	8723.25
1627.27119157085	8838.25
1629.69795959924	8855.5
1632.12399485808	8871.25
1634.54929767859	8913
1636.97386839165	8986.25
1639.39770732789	9004
1641.8208148176	9064.25
1644.24319119078	9065
1646.66483677715	9135.25
1649.0857519061	9227.25
1651.50593690677	9190.25
1653.92539210795	9324
1656.3441178382	9329
1658.76211442575	9366.25
1661.17938219855	9418.25
1663.59592148428	9544
1666.01173261032	9503.5
1668.42681590377	9584.5
1670.84117169145	9623.5
1673.25480029991	9546.5
1675.66770205541	9669.75
1678.07987728393	9729.25
1680.49132631119	9747.25
1682.90204946263	9819.75
1685.31204706342	9854
1687.72131943846	9956.75
1690.1298669124	9949.5
1692.53768980957	10060.25
1694.94478845411	10040.75
1697.35116316982	10021
1699.75681428031	10039
1702.16174210887	10032.75
1704.56594697858	9998.75
1706.96942921222	10126.25
1709.37218913235	10107.75
1711.77422706125	10014.5
1714.17554332098	10065
1716.5761382333	10117.25
1718.97601211977	10092.25
1721.37516530169	10112.25
1723.77359810006	10037.25
1726.17131083572	10110
1728.56830382922	10150.5
1730.96457740087	10110
1733.36013187075	10065.5
1735.75496755868	10057.75
1738.14908478428	10170.75
1740.54248386689	10079.75
1742.93516512565	10093.75
1745.32712887946	10136.5
1747.71837544697	10121
1750.10890514662	10123
1752.49871829661	10142
1754.88781521492	10250.25
1757.27619621929	10256
1759.66386162726	10167.5
1762.05081175612	10250.25
1764.43704692297	10314
1766.82256744465	10334.75
1769.20737363782	10344
1771.59146581887	10252
1773.97484430405	10394.5
1776.35750940932	10481.75
1778.73946145048	10464.5
1781.12070074309	10477.75
1783.50122760249	10579.5
1785.88104234385	10584.75
1788.26014528209	10625.75
1790.63853673196	10596
1793.01621700796	10651.25
1795.39318642443	10844
1797.76944529549	10754
1800.14499393503	10800.25
1802.51983265681	10739.25
1804.8939617743	10864.25
1807.26738160085	10922
1809.64009244957	10879.75
1812.01209463339	10859.5
1814.38338846504	11064.5
1816.75397425706	10906.5
1819.12385232181	11002
1821.49302297142	11066.5
1823.86148651789	11020.25
1826.22924327299	11006.5
1828.59629354831	11129.5
1830.96263765526	11022
1833.32827590507	11092.75
1835.69320860877	11129.25
1838.05743607724	11165.25
1840.42095862113	11166.75
1842.78377655097	11125.5
1845.14589017707	11187.25
1847.50729980956	11186.75
1849.86800575843	11178
1852.22800833346	11196.5
1854.58730784427	11273
1856.94590460032	11320.75
1859.30379891087	11374.5
1861.66099108503	11371.5
1864.01748143175	11449.25
1866.37327025978	11415.75
1868.72835787773	11490
1871.08274459403	11460.75
1873.43643071697	11590.5
1875.78941655464	11683
1878.14170241498	11601
1880.4932886058	11721.75
1882.84417543469	11718.5
1885.19436320915	11722.25
1887.54385223646	11717.5
1889.89264282378	11817.25
1892.24073527809	11836.75
1894.58812990625	11953.5
1896.93482701493	12005.5
1899.28082691067	12009.75
1901.62612989984	12067.25
1903.97073628868	12132.25
1906.31464638326	12156.25
1908.6578604895	12171.5
1911.00037891321	12247
1913.34220196	12334.25
1915.68332993537	12323.75
1918.02376314468	12287
1920.36350189311	12271
1922.70254648573	12345
1925.04089722744	12290.75
1927.37855442303	12294.5
1929.71551837715	12359
1932.05178939426	12300
1934.38736777876	12389.75
1936.72225383484	12192.25
1939.0564478666	12435.25
1941.38995017799	12304.75
1943.72276107283	12422.25
1946.05488085479	12347
1948.38630982744	12279.25
1950.71704829419	12282.5
1953.04709655832	12193.5
1955.376454923	12251.25
1957.70512369126	12325.5
1960.03310316599	12274.75
1962.36039364999	12206.5
1964.68699544589	12189.5
1967.01290885622	12294.25
1969.33813418338	12282.5
1971.66267172965	12300.75
1973.98652179718	12275
1976.309684688	12377
1978.63216070402	12385.5
1980.95395014705	12415
1983.27505331873	12278
1985.59547052063	12335.5
1987.9152020542	12405.5
1990.23424822074	12345
1992.55260932146	12397.75
1994.87028565746	12449
1997.18727752968	12436
1999.503585239	12519.75
2001.81920908618	12475.5
2004.13414937184	12520
2006.44840639651	12674.25
2008.7619804606	12630.5
2011.07487186442	12650.5
2013.38708090815	12782.25
2015.6986078919	12787.25
2018.00945311564	12779.75
2020.31961687923	12832.5
2022.62909948246	12887.25
2024.93790122498	12893.75
2027.24602240636	12880.75
2029.55346332604	12952.5
2031.86022428337	12938.25
2034.16630557761	13032
2036.47170750791	13008.5
2038.77643037331	13074
2041.08047447275	13111.75
2043.38384010509	12985
2045.68652756907	13065.5
2047.98853716335	13081
2050.28986918648	13088
2052.59052393692	13155.25
2054.89050171302	13189.75
2057.18980281306	13264
2059.4884275352	13244.75
2061.78637617753	13158.5
2064.08364903802	13172.25
2066.38024641457	13127.75
2068.67616860497	13270.5
2070.97141590694	13235.25
2073.26598861809	13283
2075.55988703595	13154
2077.85311145796	13252.75
2080.14566218145	13249.5
2082.43753950371	13335.5
2084.72874372188	13324
2087.01927513307	13273.5
2089.30913403428	13314
2091.59832072241	13388.75
2093.88683549429	13341.75
2096.17467864666	13468.5
2098.46185047619	13414.5
2100.74835127944	13447.75
2103.03418135292	13514.75
2105.31934099303	13520
2107.6038304961	13579.25
2109.88765015838	13569.75
2112.17080027602	13534.75
2114.45328114513	13651
2116.7350930617	13606.25
2119.01623632165	13707.5
2121.29671122085	13531
2123.57651805505	13763.75
2125.85565711996	13685.5
2128.13412871117	13830.5
2130.41193312424	13879.5
2132.68907065462	13875
2134.96554159771	13828
2137.24134624881	13902.25
2139.51648490317	13951.25
2141.79095785593	13914
2144.0647654022	13933.5
2146.33790783698	13997.5
2148.61038545524	13931.5
2150.88219855182	14145.25
2153.15334742154	14097.25
2155.42383235911	14115.5
2157.6936536592	14263.75
2159.9628116164	14009.5
2162.23130652522	14091.25
2164.49913868011	14153.75
2166.76630837544	14168
2169.03281590552	14237.25
2171.2986615646	14133.75
2173.56384564685	14120
2175.82836844637	14134.5
2178.0922302572	14070.25
2180.35543137332	14053.5
2182.61797208862	14106.5
2184.87985269695	14014
2187.14107349208	14048.75
2189.40163476773	14168.5
2191.66153681753	14086.5
2193.92077993507	14002.5
2196.17936441386	14039
2198.43729054735	13972.5
2200.69455862894	13939.5
2202.95116895194	13999.75
2205.20712180962	13860.75
2207.46241749519	13906.5
2209.71705630179	13903.25
2211.97103852248	13835.5
2214.2243644503	13884.75
2216.47703437819	13889
2218.72904859905	13747.75
2220.98040740571	13801.5
2223.23111109095	13751.25
2225.4811599475	13701.75
2227.73055426799	13677.75
2229.97929434504	13598
2232.22738047118	13623
2234.47481293889	13609.5
2236.72159204058	13727.25
2238.96771806864	13612.5
2241.21319131536	13535.5
2243.458012073	13497
2245.70218063374	13517.75
2247.94569728973	13496
2250.18856233304	13365.25
2252.4307760557	13323
2254.67233874967	13335.5
2256.91325070687	13297
2259.15351221915	13246.25
2261.39312357831	13189.25
2263.63208507611	13198.25
2265.87039700422	13163.25
2268.1080596543	13202.25
2270.34507331792	13151.25
2272.5814382866	13058.25
2274.81715485183	13107.25
2277.05222330502	13072.75
2279.28664393755	13042
2281.52041704072	12966.25
2283.75354290581	12952.75
2285.98602182401	12897
2288.21785408648	12815.75
2290.44903998434	12818.75
2292.67957980862	12828.25
2294.90947385033	12748.75
2297.1387224004	12702.5
2299.36732574975	12705.5
2301.59528418921	12710.25
2303.82259800958	12603.75
2306.04926750158	12566.75
2308.27529295593	12502.5
2310.50067466325	12522
2312.72541291412	12457
2314.9495079991	12437.75
2317.17296020866	12432.5
2319.39576983323	12405.5
2321.61793716322	12384.75
2323.83946248894	12254.5
2326.06034610069	12269.25
2328.28058828871	12203.5
2330.50018934317	12222
2332.7191495542	12162
2334.93746921192	12108.5
2337.15514860633	12043.75
2339.37218802743	12084.25
2341.58858776516	11944
2343.80434810941	11973.5
2346.01946935001	11949.5
2348.23395177675	11876
2350.44779567939	11876.5
2352.66100134759	11803.75
2354.87356907101	11766.25
2357.08549913925	11674.75
2359.29679184185	11680.25
2361.50744746829	11802.25
2363.71746630804	11637.75
2365.92684865048	11530
2368.13559478499	11526.25
2370.34370500083	11553
2372.55117958727	11480.75
2374.75801883352	11518
2376.96422302874	11312.75
2379.16979246202	11320.25
2381.37472742243	11257.5
2383.57902819898	11291
2385.78269508063	11268.25
2387.98572835629	11159.5
2390.18812831482	11123.25
2392.38989524505	11184.75
2394.59102943573	11147.75
2396.79153117559	11102.5
2398.9914007533	11003.5
2401.19063845748	11005
2403.38924457672	10901.5
2405.58721939951	10955.5
2407.78456321435	10936.75
2409.98127630966	10894.75
2412.17735897382	10922.5
2414.37281149517	10852.25
2416.56763416198	10837.5
2418.76182726249	10842
2420.95539108487	10702
2423.14832591726	10774.75
2425.34063204776	10657.25
2427.53230976439	10665.25
2429.72335935513	10701
2431.91378110795	10552.25
2434.10357531071	10564.75
2436.29274225125	10574.25
2438.48128221739	10426.25
2440.66919549683	10545.25
2442.8564823773	10460
2445.04314314641	10528.5
2447.22917809176	10423.75
2449.4145875009	10451
2451.59937166131	10358
2453.78353086044	10318.75
2455.96706538568	10266
2458.14997552436	10290
2460.33226156379	10221
2462.51392379119	10291
2464.69496249376	10127.25
2466.87537795862	10100.5
2469.05517047288	10092.25
2471.23434032357	10120.25
2473.41288779767	10025.75
2475.59081318211	9945
2477.76811676378	9978.5
2479.9447988295	9993.75
2482.12085966605	9937.5
2484.29629956016	9908.5
2486.4711187985	9912.5
2488.64531766769	9903
2490.8188964543	9892.25
2492.99185544484	9841.5
2495.16419492579	9772
2497.33591518353	9799.5
2499.50701650444	9768.5
2501.67749917482	9776.5
2503.84736348091	9733
2506.01660970891	9712
2508.18523814496	9655.25
2510.35324907514	9714.5
2512.52064278551	9635.75
2514.68741956201	9649
2516.85357969058	9768
2519.01912345709	9751.5
2521.18405114735	9582.25
2523.34836304711	9637
2525.51205944208	9615
2527.6751406179	9640
2529.83760686016	9584
2531.99945845439	9596
2534.16069568606	9607.25
2536.3213188406	9540
2538.48132820336	9471
2540.64072405965	9511
2542.79950669471	9513.25
2544.95767639373	9511.25
2547.11523344184	9451.25
2549.27217812411	9418.75
2551.42851072555	9398.75
2553.58423153111	9428.5
2555.73934082569	9318.25
2557.89383889412	9354.5
2560.04772602118	9343
2562.20100249158	9312.25
2564.35366858996	9248.75
2566.50572460093	9327.75
2568.65717080901	9196.75
2570.80800749867	9107.25
2572.95823495433	9107.75
2575.10785346031	9102.5
2577.25686330093	9060.25
2579.40526476038	9038.75
2581.55305812282	9038
2583.70024367237	8926
2585.84682169303	8890.25
2587.99279246879	8944.5
2590.13815628354	8921
2592.28291342112	8855.75
2594.42706416531	8808
2596.5706087998	8837.75
2598.71354760826	8941.25
2600.85588087425	8824
2602.99760888127	8832.75
2605.13873191278	8770
2607.27925025214	8753.25
2609.41916418269	8794.5
2611.55847398764	8769
2613.69717995017	8717.5
2615.83528235339	8860
2617.97278148034	8820.25
2620.10967761398	8771.75
2622.2459710372	8752.5
2624.38166203284	8770
2626.51675088365	8724.75
2628.65123787231	8667.75
2630.78512328145	8729.25
2632.9184073936	8700.25
2635.05109049124	8690.5
2637.18317285676	8643.5
2639.31465477248	8686.25
2641.44553652067	8716.75
2643.5758183835	8642.5
2645.70550064309	8696
2647.83458358144	8703.75
2649.96306748053	8708.5
2652.09095262223	8660.75
2654.21823928836	8663.25
2656.34492776063	8636.75
2658.47101832071	8690
2660.59651125015	8707.25
2662.72140683047	8660
2664.84570534309	8692.5
2666.96940706934	8675.5
2669.0925122905	8599.25
2671.21502128773	8628.5
2673.33693434215	8639.75
2675.45825173479	8656.25
2677.57897374658	8600.25
2679.69910065839	8671.5
2681.818632751	8606.25
2683.93757030511	8616.25
2686.05591360133	8666.5
2688.17366292021	8665
2690.29081854218	8572
2692.40738074762	8627.5
2694.52334981681	8586
2696.63872602995	8639.75
2698.75350966713	8699
2700.86770100841	8638.25
2702.98130033371	8630
2705.09430792289	8681.5
2707.20672405571	8620.75
2709.31854901185	8729.75
2711.42978307091	8649.25
2713.54042651238	8687.5
2715.65047961567	8720.25
2717.7599426601	8712.5
2719.86881592491	8748
2721.97709968924	8751.75
2724.08479423213	8679.5
2726.19189983255	8775
2728.29841676934	8758
2730.4043453213	8778.5
2732.5096857671	8748
2734.61443838532	8733.5
2736.71860345444	8699.75
2738.82218125286	8746.5
2740.92517205889	8758.5
2743.02757615072	8832.75
2745.12939380646	8738.5
2747.23062530411	8792.5
2749.33127092159	8864
2751.4313309367	8737.75
2753.53080562716	8795.75
2755.62969527058	8884.25
2757.72800014448	8784
2759.82572052625	8844.25
2761.92285669323	8765.25
2764.0194089226	8833.25
2766.11537749147	8893.5
2768.21076267686	8960
2770.30556475566	8847.75
2772.39978400465	8892
2774.49342070054	8843.25
2776.58647511991	8891
2778.67894753923	8959
2780.77083823487	8961.25
2782.8621474831	8847.75
2784.95287556007	8875.75
2787.04302274184	8885
2789.13258930433	8984.5
2791.22157552338	8909
2793.30998167471	8938
2795.39780803392	9063.25
2797.4850548765	8960.75
2799.57172247786	9016.75
2801.65781111324	8990.25
2803.74332105781	9022.25
2805.82825258661	9009.25
2807.91260597457	9066.5
2809.9963814965	9007.25
2812.07957942711	9117.25
2814.16220004096	9056.75
2816.24424361252	9067.75
2818.32571041614	9176
2820.40660072604	9174.25
2822.48691481631	9280.75
2824.56665296098	9243
2826.64581543388	9228.5
2828.72440250876	9422.25
2830.80241445925	9401
2832.87985155885	9568.75
2834.95671408093	9753.25
2837.03300229875	9915.5
2839.10871648544	10086.25
2841.18385691399	10484
2843.25842385729	10748.5
2845.33241758808	10880.5
2847.40583837898	11092
2849.4786865025	11068.25
2851.550962231	10940.75
2853.6226658367	10855
2855.69379759173	10707.25
2857.76435776806	10686.25
2859.83434663753	10632.5
2861.90376447184	10534
2863.97261154259	10501.25
2866.0408881212	10584.5
2868.10859447901	10580.75
2870.17573088717	10650
2872.24229761673	10693.75
2874.30829493859	10825
2876.37372312352	11048
2878.43858244215	11462
2880.50287316496	11707.5
2882.56659556231	11731.5
2884.62974990439	11471
2886.69233646129	11216.5
2888.75435550293	11056.75
2890.81580729909	11109
2892.87669211941	11113.25
2894.93701023339	11027.75
2896.99676191039	11043.25
2899.05594741961	11103.5
2901.1145670301	11052.5
2903.1726210108	10934.5
2905.23010963045	10985.75
2907.28703315768	10891
2909.34339186096	10903.75
2911.39918600861	10909
2913.45441586879	10841.75
2915.50908170952	10835.75
2917.56318379867	10788.5
2919.61672240395	10968.25
2921.66969779291	10939.25
2923.72211023295	10948
2925.77395999134	10999.25
2927.82524733515	11045.5
2929.87597253132	11025
2931.92613584663	11016.5
2933.97573754769	10960
2936.02477790097	10881.25
2938.07325717276	10791.5
2940.1211756292	10891.75
2942.16853353626	10788.25
2944.21533115976	10788.5
2946.26156876536	10686.75
2948.30724661853	10753.25
2950.3523649846	10704.25
2952.39692412872	10715.75
2954.44092431587	10687.75
2956.48436581089	10724.25
2958.52724887843	10701.25
2960.56957378296	10701.75
2962.6113407888	10763.5
2964.65255016011	10746.75
2966.69320216083	10847.5
2968.73329705479	10787.75
2970.77283510559	10771.75
2972.81181657671	10775.5
2974.8502417314	10907.5
2976.88811083279	10925.25
2978.92542414378	10974.5
2980.96218192713	10916.5
2982.99838444541	11054
2985.034031961	11047.75
2987.06912473612	11053.5
2989.1036630328	11036.5
2991.13764711288	11083.75
2993.17107723804	11125
2995.20395366974	11180
2997.23627666931	11278.25
2999.26804649782	11264.5
3001.29926341624	11348.5
3003.32992768528	11287.75
3005.3600395655	11349.5
3007.38959931726	11416.5
3009.41860720076	11425.5
3011.44706347595	11571
3013.47496840263	11462.75
3015.50232224041	11542.5
3017.5291252487	11573.75
3019.5553776867	11462
3021.58107981344	11706.5
3023.60623188773	11651.75
3025.63083416822	11755.25
3027.65488691331	11796.25
3029.67839038125	11782.75
3031.70134483007	11753
3033.72375051759	11836
3035.74560770144	11824.5
3037.76691663907	11803
3039.78767758768	11911.75
3041.80789080431	11842.25
3043.82755654577	11924.75
3045.84667506867	11864.25
3047.8652466294	11911.75
3049.88327148418	11849
3051.90074988899	11884.75
3053.91768209961	11863.25
3055.9340683716	11851
3057.94990896033	11868.25
3059.96520412095	11933.75
3061.97995410838	11960
3063.99415917734	11959.75
3066.00781958234	11865
3068.02093557766	11918.5
3070.03350741738	11898.5
3072.04553535535	11963.25
3074.05701964521	12006.5
3076.06796054036	11856
3078.078358294	11890.25
3080.08821315912	12023.75
3082.09752538846	12002.75
3084.10629523454	11829.25
3086.11452294967	12032.25
3088.12220878592	11900.5
3090.12935299515	11973.75
3092.13595582898	11907.75
3094.1420175388	11970
3096.14753837579	11935.25
3098.15251859088	11995.25
3100.15695843477	11948
3102.16085815793	11974
3104.16421801061	11959.5
3106.16703824282	11976.5
3108.16931910432	11993
3110.17106084464	11919.75
3112.17226371308	12081.25
3114.17292795872	11977
3116.17305383034	12063.5
3118.17264157657	12034
3120.17169144571	12063.25
3122.17020368587	11978.5
3124.16817854492	12017.75
3126.16561627044	12113.5
3128.16251710982	12244.25
3130.15888131017	12173.75
3132.15470911837	12192.5
3134.15000078104	12236.25
3136.14475654455	12162.75
3138.13897665502	12314.25
3140.13266135835	12176.75
3142.12581090014	12243.25
3144.11842552577	12249.25
3146.11050548036	12234.75
3148.10205100875	12207.75
3150.09306235557	12262.25
3152.08353976515	12194.5
3154.07348348158	12070.5
3156.06289374869	12261
3158.05177081006	12135.75
3160.04011490899	12274.5
3162.02792628852	12306.25
3164.01520519145	12253.5
3166.00195186029	12219.5
3167.98816653728	12276
3169.97384946442	12215.5
3171.95900088344	12149.5
3173.94362103577	12194.75
3175.92771016259	12297
3177.91126850484	12313.5
3179.89429630312	12253.25
3181.87679379782	12210.75
3183.85876122903	12310.25
3185.84019883657	12357.5
3187.82110685997	12299.75
3189.80148553851	12289
3191.78133511116	12307.25
3193.76065581664	12243.5
3195.73944789337	12245.25
3197.7177115795	12266.5
3199.6954471129	12324.75
3201.67265473114	12342.5
3203.64933467153	12254
3205.62548717107	12370.75
3207.60111246648	12374.25
3209.57621079421	12414.25
3211.55078239041	12422.25
3213.52482749093	12304
3215.49834633133	12484.25
3217.4713391469	12477.5
3219.44380617262	12465.5
3221.41574764317	12567.5
3223.38716379296	12449.5
3225.35805485607	12595
3227.32842106631	12529
3229.29826265718	12689.75
3231.26757986187	12658
3233.2363729133	12666.25
3235.20464204405	12628.75
3237.17238748643	12607.25
3239.13960947243	12692.25
3241.10630823374	12790.25
3243.07248400174	12697.5
3245.03813700748	12924.25
3247.00326748177	12722.5
3248.96787565503	12840.75
3250.93196175742	12772.75
3252.89552601877	12872.75
3254.8585686686	12764.75
3256.82108993612	12977.25
3258.78309005022	12786.75
3260.74456923948	12841.75
3262.70552773215	12927.5
3264.66596575617	12883
3266.62588353916	12900.75
3268.58528130843	12786
3270.54415929094	12793.75
3272.50251771336	12833.25
3274.46035680201	12875.75
3276.4176767829	12922.5
3278.37447788171	12843
3280.33076032379	12926.5
3282.28652433416	12853.5
3284.24177013751	12866.25
3286.1964979582	12950.25
3288.15070802027	12955
3290.10440054741	12913.5
3292.05757576298	12869
3294.01023389001	12874
3295.96237515119	12926
3297.91399976887	12888.5
3299.86510796506	12870
3301.81569996142	12865
3303.76577597932	12908.25
3305.7153362397	12910.75
3307.66438096324	12888.5
3309.61291037024	12894.75
3311.56092468064	12848.25
3313.50842411404	12749.25
3315.45540888971	12885.25
3317.40187922656	12808.75
3319.34783534315	12833
3321.29327745768	12759.75
3323.23820578801	12666.25
3325.18262055164	12764.25
3327.1265219657	12640.75
3329.06991024699	12768.25
3331.01278561194	12738
3332.95514827662	12698.5
3334.89699845674	12726.25
3336.83833636766	12740
3338.77916222434	12544
3340.71947624143	12664.75
3342.65927863317	12714
3344.59856961346	12649
3346.53734939584	12672
3348.47561819344	12594.75
3350.41337621906	12556
3352.35062368513	12599
3354.28736080368	12673.5
3356.22358778637	12607.75
3358.15930484452	12620.75
3360.09451218904	12704.75
3362.02921003047	12630.25
3363.96339857898	12632.75
3365.89707804436	12582.75
3367.83024863602	12558.5
3369.76291056299	12599
3371.69506403389	12571.75
3373.62670925699	12479
3375.55784644016	12553
3377.4884757909	12557
3379.41859751629	12570
3381.34821182305	12535.25
3383.27731891749	12576.25
3385.20591900555	12585.5
3387.13401229276	12601.75
3389.06159898426	12657.5
3390.9886792848	12649.75
3392.91525339872	12621.75
3394.84132152998	12652.5
3396.76688388213	12592.5
3398.69194065833	12562.25
3400.61649206133	12562.75
3402.54053829348	12631.25
3404.46407955672	12547.75
3406.3871160526	12599
3408.30964798225	12507.25
3410.23167554639	12620.75
3412.15319894535	12628.25
3414.07421837904	12498
3415.99473404695	12549.25
3417.91474614817	12584.5
3419.83425488136	12661.5
3421.75326044479	12552
3423.67176303631	12484.25
3425.58976285332	12547
3427.50726009282	12574.75
3429.42425495143	12450
3431.34074762528	12426.75
3433.25673831012	12434
3435.17222720127	12409.5
3437.08721449362	12473.25
3439.00170038164	12316.25
3440.91568505936	12384.75
3442.82916872039	12342.25
3444.74215155791	12349.5
3446.65463376468	12291
3448.566615533	12358.75
3450.47809705476	12261.75
3452.3890785214	12305.25
3454.29956012393	12342.5
3456.20954205293	12360.75
3458.11902449853	12305
3460.02800765041	12211.5
3461.93649169784	12228.25
3463.84447682962	12119
3465.75196323412	12191.75
3467.65895109925	12167.5
3469.56544061249	12177.5
3471.47143196086	12187.25
3473.37692533093	12150.25
3475.28192090884	12153.75
3477.18641888026	12248.5
3479.09041943039	12201.5
3480.99392274402	12168.5
3482.89692900545	12166.5
3484.79943839853	12112.25
3486.70145110666	12199.75
3488.60296731277	12193.25
3490.50398719933	12021.25
3492.40451094836	11976
3494.30453874141	12049.25
3496.20407075956	12041.5
3498.10310718342	12081.5
3500.00164819315	12048