201.866871357051	1096.75
204.754250281454	1110.5
207.640596790938	1122.25
210.525911876299	1117.75
213.410196525689	1098.25
216.293451724508	1106.75
219.175678455485	1111.75
222.056877698662	1106.25
224.937050431388	1097.5
227.816197628363	1113.25
230.694320261602	1127.75
233.571419300504	1120
236.447495711764	1118.5
239.322550459507	1110.75
242.196584505182	1126
245.069598807626	1111
247.941594323078	1107
250.812572005154	1125.25
253.682532804884	1130.75
256.551477670699	1126
259.419407548456	1141.5
262.286323381439	1115.75
265.152226110364	1125.5
268.017116673389	1107
270.880996006115	1108.25
273.743865041622	1122
276.605724710436	1113.25
279.466575940562	1110.75
282.326419657496	1098.25
285.1852567842	1123
288.043088241157	1125.25
290.899914946349	1091.75
293.75573781526	1104
296.610557760898	1115.75
299.464375693817	1108.5
302.317192522078	1103.25
305.169009151297	1092.75
308.019826484655	1102.5
310.86964542287	1106.25
313.718466864233	1093.25
316.566291704614	1087.25
319.413120837457	1115
322.258955153804	1113.25
325.103795542291	1088
327.947642889128	1100.5
330.79049807819	1096.25
333.632361990927	1103.5
336.473235506444	1094.75
339.31311950145	1098.25
342.152014850322	1114.5
344.989922425062	1119.5
347.826843095354	1116.25
350.662777728528	1100.25
353.497727189577	1108
356.331692341195	1120.25
359.164674043732	1114.25
361.996673155267	1115
364.827690531536	1111.5
367.65772702602	1107.5
370.486783489887	1105
373.314860772047	1101.25
376.14195971912	1126
378.968081175466	1109
381.793225983212	1123
384.617394982201	1118.5
387.44058901005	1104
390.262808902131	1097.75
393.08405549161	1108.25
395.904329609395	1108
398.723632084213	1094.75
401.541963742569	1098.5
404.359325408779	1092
407.175717904938	1102.5
409.991142050982	1091.5
412.805598664665	1084.75
415.619088561551	1102.5
418.43161255505	1082.75
421.243171456415	1098.5
424.053766074758	1082
426.863397217017	1094.5
429.672065688024	1092.5
432.479772290455	1084
435.286517824879	1104
438.092303089736	1095.5
440.897128881359	1096
443.70099599399	1087.75
446.503905219761	1102
449.305857348711	1097
452.106853168796	1089.25
454.906893465919	1090.5
457.705979023885	1077.25
460.504110624439	1075
463.3012890473	1064.25
466.097515070087	1072.75
468.892789468424	1059.25
471.687113015869	1062.25
474.48048648395	1075.5
477.272910642198	1060.25
480.064386258109	1064.5
482.854914097159	1077.5
485.644494922839	1074.5
488.433129496636	1073
491.220818578047	1086.75
494.007562924584	1073.25
496.793363291785	1061.25
499.578220433217	1077.75
502.362135100473	1072
505.145108043209	1077
507.927140009098	1069
510.708231743909	1075.75
513.488383991433	1073.25
516.267597493556	1074.75
519.04587299022	1068
521.82321121946	1075
524.599612917398	1057.25
527.375078818233	1071.25
530.149609654287	1074.5
532.923206155967	1059
535.695869051804	1059.5
538.467599068448	1057.75
541.238396930665	1068.25
544.008263361364	1056.5
546.777199081578	1055.25
549.545204810493	1057.75
552.312281265436	1061.25
555.078429161898	1057.75
557.843649213533	1060.5
560.607942132156	1056
563.371308627753	1062.75
566.133749408495	1054.25
568.895265180756	1052.5
571.655856649064	1060
574.415524516189	1061.75
577.174269483075	1064.25
579.932092248884	1069
582.688993510994	1085
585.444973965023	1090
588.200034304795	1106.75
590.95417522237	1120.25
593.70739740807	1122.5
596.459701550433	1117.75
599.21108833628	1095.5
601.961558450668	1081.75
604.711112576933	1071.25
607.459751396673	1070.75
610.207475589748	1071.25
612.954285834338	1078.75
615.700182806879	1062
618.445167182101	1062.75
621.189239633055	1068.5
623.932400831087	1069
626.674651445839	1066.75
629.415992145303	1073.5
632.156423595745	1065.25
634.895946461813	1052.25
637.634561406449	1079.25
640.37226909096	1065.25
643.109070174978	1044.75
645.844965316508	1067
648.579955171888	1051
651.314040395846	1044.5
654.047221641456	1038.75
656.779499560176	1049.25
659.510874801828	1034.75
662.241348014642	1042.25
664.97091984524	1050.75
667.699590938606	1048
670.427361938164	1044
673.15423348573	1076
675.880206221526	1120.25
678.605280784206	1170
681.329457810829	1169.75
684.05273793692	1129.25
686.775121796389	1096.25
689.49661002163	1080
692.217203243454	1062.75
694.936902091144	1067
697.655707192425	1049.5
700.373619173493	1047.75
703.09063865901	1059.5
705.806766272093	1037.5
708.522002634378	1046.5
711.236348365946	1037.75
713.94980408538	1022.25
716.662370409762	1016.5
719.374047954676	1019.75
722.08483733419	1015.25
724.794739160909	1008.75
727.503754045949	995.5
730.21188259892	1009.25
732.919125427998	1011.25
735.625483139855	1013.5
738.330956339723	1007
741.035545631374	1014
743.739251617106	1014.75
746.44207489779	1031.5
749.144016072852	1040.25
751.845075740272	1024.75
754.545254496603	986.5
757.244552936976	1004.5
759.94297165508	998.75
762.640511243222	998.75
765.337172292249	1002
768.032955391649	996.25
770.727861129482	997.75
773.421890092413	998.75
776.11504286572	1009.75
778.807320033298	994.75
781.49872217765	996.5
784.18924987991	994
786.87890371984	998
789.567684275826	987.25
792.255592124908	1003.25
794.94262784276	977.75
797.628792003703	975.5
800.314085180715	979.75
802.998507945427	982.25
805.682060868145	967.5
808.364744517821	979
811.046559462105	984.5
813.727506267311	977.25
816.407585498422	976
819.08679771913	976.75
821.765143491822	982.75
824.442623377563	987.25
827.119237936127	1002
829.794987726003	1012.75
832.469873304377	1014.75
835.143895227167	1008.25
837.817054048985	1012.25
840.489350323205	996
843.160784601892	1013.25
845.831357435894	993.25
848.501069374739	1006
851.169920966753	1017.25
853.837912758987	1004.5
856.505045297232	989
859.171319126071	988.75
861.836734788823	971.5
864.501292827579	986.75
867.164993783208	978
869.827838195361	971.25
872.489826602454	984.75
875.150959541701	973
877.811237549104	969.25
880.470661159456	976.5
883.129230906357	972.5
885.786947322205	967.5
888.443810938206	978.5
891.099822284385	962.25
893.754981889586	961
896.409290281452	956.75
899.062747986485	985.75
901.715355529999	963.75
904.367113436154	962.25
907.01802222793	982.75
909.668082427172	957.75
912.317294554574	961.75
914.965659129659	963.75
917.613176670835	978
920.259847695364	966.5
922.90567271936	966.75
925.550652257825	968
928.194786824621	960.75
930.838076932512	977.5
933.480523093109	962.5
936.122125816953	953.5
938.762885613447	961
941.402802990899	959.5
944.041878456523	976.75
946.680112516428	981.5
949.31750567563	980.5
951.954058438081	997.5
954.589771306633	990
957.224644783048	984
959.858679368044	966
962.491875561238	963
965.12423386121	969.75
967.75575476545	966.75
970.386438770423	956.5
973.016286371501	960.75
975.645298063046	964
978.273474338355	947.75
980.900815689674	957.5
983.527322608243	951.5
986.152995584245	956
988.777835106834	960
991.401841664148	954.5
994.025015743307	965.5
996.647357830407	960
999.268868410534	951
1001.88954796777	949.75
1004.50939698518	960.25
1007.12841594484	954.5
1009.74660532783	955.25
1012.36396561423	951.5
1014.98049728314	957.5
1017.59620081267	956.75
1020.21107667995	952.75
1022.82512536112	951.75
1025.43834733138	954
1028.05074306493	974.75
1030.66231303501	965.25
1033.27305771392	970.75
1035.88297757299	964.5
1038.49207308257	969.5
1041.10034471211	970.25
1043.70779293008	964.5
1046.31441820402	969
1048.92022100052	947
1051.52520178525	953.75
1054.12936102295	950.75
1056.73269917742	953.75
1059.33521671154	955.75
1061.93691408729	944.5
1064.53779176571	955.75
1067.13785020694	960.25
1069.73708987022	952.75
1072.33551121386	942.75
1074.93311469528	941
1077.52990077103	946.5
1080.12586989674	952.5
1082.72102252714	947.25
1085.31535911611	956
1087.90888011663	956.5
1090.50158598078	952.25
1093.09347715979	955.5
1095.68455410403	951
1098.27481726296	959.25
1100.86426708523	957.75
1103.45290401857	947.5
1106.04072850991	955.5
1108.6277410053	963.5
1111.21394194993	952.75
1113.79933178816	964.75
1116.3839109635	959.75
1118.96767991862	965.5
1121.55063909539	949.25
1124.13278893477	958.25
1126.71412987696	956
1129.29466236132	960.75
1131.87438682637	979.5
1134.45330370982	967.5
1137.03141344858	988.75
1139.60871647872	1001.75
1142.18521323554	1014
1144.7609041535	1015
1147.33578966629	982.5
1149.90987020676	965.5
1152.48314620702	947
1155.05561809835	950
1157.62728631125	947.5
1160.19815127545	952.5
1162.76821341988	946
1165.33747317271	953.75
1167.90593096133	941.75
1170.47358721235	949
1173.04044235163	944.75
1175.60649680425	946.75
1178.17175099454	958.75
1180.73620534607	967.5
1183.29986028165	961.75
1185.86271622336	948.25
1188.42477359249	958.75
1190.98603280964	968.5
1193.54649429462	963.75
1196.10615846653	964
1198.66502574372	958
1201.22309654385	963.75
1203.78037128378	960.75
1206.33685037971	955
1208.89253424709	949.25
1211.44742330063	957.75
1214.00151795438	951.25
1216.55481862163	946.5
1219.10732571497	960.75
1221.65903964631	945.25
1224.20996082683	939
1226.760089667	937.75
1229.30942657664	941.75
1231.85797196483	940
1234.40572623998	954.25
1236.95268980981	946.75
1239.49886308136	950.25
1242.04424646098	943.75
1244.58884035435	947.75
1247.13264516647	947.75
1249.67566130166	950.75
1252.21788916358	963.75
1254.75932915524	971.5
1257.29998167896	967.25
1259.83984713639	955.75
1262.37892592857	952.75
1264.91721845586	955
1267.45472511795	949.5
1269.9914463139	945.5
1272.52738244213	951.5
1275.0625339004	948.75
1277.59690108587	954.25
1280.130484395	944.25
1282.66328422367	948.75
1285.19530096712	960
1287.72653501993	962.5
1290.25698677608	961.25
1292.78665662894	966.5
1295.31554497125	976.75
1297.8436521951	987.75
1300.37097869203	981.5
1302.89752485292	992.5
1305.42329106805	992.25
1307.94827772713	987.75
1310.47248521921	981.25
1312.99591393279	979.5
1315.51856425575	976.5
1318.04043657536	961.75
1320.56153127836	971.75
1323.08184875083	976.25
1325.6013893783	983.75
1328.12015354572	1012.25
1330.63814163744	1046.25
1333.15535403727	1084.25
1335.67179112839	1139.25
1338.18745329347	1174.25
1340.70234091454	1168.75
1343.21645437314	1087.25
1345.72979405019	1040.5
1348.24236032607	993.25
1350.75415358059	997.75
1353.26517419303	979.25
1355.7754225421	969.25
1358.28489900594	971.25
1360.79360396218	961
1363.30153778787	975.75
1365.80870085955	962
1368.31509355319	979.5
1370.82071624424	972.25
1373.32556930762	962
1375.8296531177	956.5
1378.33296804832	961
1380.83551447282	958
1383.33729276399	973.25
1385.83830329408	969
1388.33854643489	973.5
1390.83802255762	962.5
1393.33673203301	966.25
1395.83467523128	971
1398.33185252211	971.25
1400.82826427471	956.75
1403.32391085777	967.25
1405.81879263947	983.75
1408.31290998752	969.5
1410.80626326908	973.75
1413.29885285087	962.25
1415.79067909909	970.25
1418.28174237944	970.5
1420.77204305717	978
1423.26158149702	974.5
1425.75035806323	979.25
1428.2383731196	975.75
1430.72562702942	983.75
1433.21212015554	981.5
1435.69785286028	983.75
1438.18282550555	1007.75
1440.66703845275	1009.25
1443.15049206284	1030.5
1445.6331866963	1108.75
1448.11512271316	1155.75
1450.59630047298	1171.5
1453.07672033486	1093.5
1455.55638265748	1039
1458.03528779902	1003.75
1460.51343611725	996.75
1462.99082796946	991.75
1465.46746371252	979.5
1467.94334370285	999.75
1470.41846829642	995.5
1472.89283784878	997
1475.36645271503	991.5
1477.83931324983	993.5
1480.31141980743	1006
1482.78277274164	992.5
1485.25337240583	983.75
1487.72321915297	968.5
1490.19231333557	973.25
1492.66065530578	974.5
1495.12824541525	964.25
1497.5950840153	974.5
1500.06117145678	976.5
1502.52650809014	986
1504.99109426543	984.25
1507.45493033227	984.75
1509.91801663992	1001.5
1512.38035353717	1006.5
1514.84194137248	1055
1517.30278049386	1115.25
1519.76287124894	1214
1522.22221398497	1358.25
1524.68080904876	1438.75
1527.13865678681	1380.25
1529.59575754514	1264.25
1532.05211166945	1142
1534.50771950503	1062
1536.96258139678	1030.5
1539.41669768924	1009.75
1541.87006872656	996.25
1544.32269485252	991.25
1546.77457641051	970.75
1549.22571374357	975.25
1551.67610719434	980.75
1554.12575710513	973
1556.57466381785	970.75
1559.02282767408	974.5
1561.47024901499	967
1563.91692818144	961.5
1566.3628655139	952
1568.80806135249	976
1571.252516037	968.25
1573.6962299068	986.25
1576.13920330099	987.5
1578.58143655828	991.5
1581.02293001704	997.75
1583.46368401528	1009.75
1585.90369889071	1009.25
1588.34297498065	1039
1590.7815126221	1043.5
1593.21931215173	1075.5
1595.65637390588	1079
1598.09269822053	1071.25
1600.52828543135	1035
1602.96313587367	1010.25
1605.3972498825	998.25
1607.83062779252	975.75
1610.26326993808	990.25
1612.69517665322	978.25
1615.12634827165	967.25
1617.55678512676	961.75
1619.98648755163	971.5
1622.41545587902	971.75
1624.84369044138	957.25
1627.27119157085	951.75
1629.69795959924	953.75
1632.12399485808	986.75
1634.54929767859	955
1636.97386839165	957.75
1639.39770732789	954.25
1641.8208148176	947.75
1644.24319119078	957
1646.66483677715	964.75
1649.0857519061	954.5
1651.50593690677	951.75
1653.92539210795	950
1656.3441178382	949
1658.76211442575	950.25
1661.17938219855	959.5
1663.59592148428	956
1666.01173261032	951.5
1668.42681590377	946.5
1670.84117169145	952.75
1673.25480029991	960.25
1675.66770205541	960.75
1678.07987728393	954.75
1680.49132631119	957.25
1682.90204946263	973.25
1685.31204706342	952
1687.72131943846	952
1690.1298669124	980.5
1692.53768980957	954.25
1694.94478845411	962.75
1697.35116316982	965.75
1699.75681428031	975.5
1702.16174210887	960.5
1704.56594697858	957.75
1706.96942921222	976
1709.37218913235	959.25
1711.77422706125	958.25
1714.17554332098	962
1716.5761382333	963.75
1718.97601211977	947.75
1721.37516530169	963
1723.77359810006	960.75
1726.17131083572	958
1728.56830382922	966.25
1730.96457740087	966
1733.36013187075	962
1735.75496755868	955.5
1738.14908478428	954.75
1740.54248386689	943.5
1742.93516512565	969.75
1745.32712887946	948
1747.71837544697	961.75
1750.10890514662	948
1752.49871829661	945
1754.88781521492	952.75
1757.27619621929	957.25
1759.66386162726	946
1762.05081175612	959.5
1764.43704692297	959.5
1766.82256744465	961.25
1769.20737363782	950.5
1771.59146581887	954
1773.97484430405	960.25
1776.35750940932	956.5
1778.73946145048	943.75
1781.12070074309	955
1783.50122760249	958.75
1785.88104234385	965
1788.26014528209	953.5
1790.63853673196	967
1793.01621700796	957.75
1795.39318642443	961.25
1797.76944529549	968
1800.14499393503	958.5
1802.51983265681	954.5
1804.8939617743	965.25
1807.26738160085	972
1809.64009244957	960.5
1812.01209463339	953.5
1814.38338846504	960.25
1816.75397425706	973
1819.12385232181	953.25
1821.49302297142	971.25
1823.86148651789	972.25
1826.22924327299	953.25
1828.59629354831	955.75
1830.96263765526	947.75
1833.32827590507	965.75
1835.69320860877	965.75
1838.05743607724	956.25
1840.42095862113	960.75
1842.78377655097	965.25
1845.14589017707	971
1847.50729980956	966
1849.86800575843	960.25
1852.22800833346	957.75
1854.58730784427	959.25
1856.94590460032	967.5
1859.30379891087	963
1861.66099108503	962.75
1864.01748143175	963.75
1866.37327025978	957
1868.72835787773	950.5
1871.08274459403	963.25
1873.43643071697	963.5
1875.78941655464	965.5
1878.14170241498	980.25
1880.4932886058	964.25
1882.84417543469	964
1885.19436320915	974.75
1887.54385223646	955
1889.89264282378	979
1892.24073527809	970.5
1894.58812990625	975.5
1896.93482701493	984.5
1899.28082691067	972.5
1901.62612989984	972.25
1903.97073628868	972.75
1906.31464638326	978.5
1908.6578604895	985
1911.00037891321	984
1913.34220196	990
1915.68332993537	978.75
1918.02376314468	976.75
1920.36350189311	977.5
1922.70254648573	984.5
1925.04089722744	988.75
1927.37855442303	984.5
1929.71551837715	990
1932.05178939426	990
1934.38736777876	986.25
1936.72225383484	978.25
1939.0564478666	994.75
1941.38995017799	990.75
1943.72276107283	977
1946.05488085479	970.75
1948.38630982744	988.5
1950.71704829419	995.75
1953.04709655832	980
1955.376454923	983.25
1957.70512369126	978.5
1960.03310316599	989.75
1962.36039364999	986
1964.68699544589	978
1967.01290885622	978.25
1969.33813418338	987
1971.66267172965	990.5
1973.98652179718	975
1976.309684688	976
1978.63216070402	993.25
1980.95395014705	992.75
1983.27505331873	980.75
1985.59547052063	989
1987.9152020542	990.5
1990.23424822074	991.25
1992.55260932146	993.5
1994.87028565746	986.25
1997.18727752968	973
1999.503585239	986.25
2001.81920908618	989.5
2004.13414937184	994.5
2006.44840639651	1003.5
2008.7619804606	990.75
2011.07487186442	1002.5
2013.38708090815	1005.25
2015.6986078919	1004
2018.00945311564	1020.25
2020.31961687923	1002.5
2022.62909948246	999
2024.93790122498	997.5
2027.24602240636	1011.75
2029.55346332604	1021.75
2031.86022428337	1024.25
2034.16630557761	1020.5
2036.47170750791	1013
2038.77643037331	1016
2041.08047447275	996
2043.38384010509	1004.25
2045.68652756907	1028.5
2047.98853716335	1008.25
2050.28986918648	1013.75
2052.59052393692	1013
2054.89050171302	1017.25
2057.18980281306	1014.25
2059.4884275352	1012.25
2061.78637617753	1011
2064.08364903802	1008
2066.38024641457	1013.5
2068.67616860497	1009.5
2070.97141590694	1013.25
2073.26598861809	1011.25
2075.55988703595	1008
2077.85311145796	1007
2080.14566218145	1019.75
2082.43753950371	1014.5
2084.72874372188	1024.75
2087.01927513307	1007.75
2089.30913403428	1010
2091.59832072241	1009.5
2093.88683549429	1017.25
2096.17467864666	1021.5
2098.46185047619	1016.75
2100.74835127944	1013.25
2103.03418135292	1027
2105.31934099303	1017.75
2107.6038304961	1028.75
2109.88765015838	1021.75
2112.17080027602	1024.75
2114.45328114513	1018.75
2116.7350930617	1014.75
2119.01623632165	1038
2121.29671122085	1030.5
2123.57651805505	1023.5
2125.85565711996	1029
2128.13412871117	1018.5
2130.41193312424	1034.5
2132.68907065462	1035.5
2134.96554159771	1029.25
2137.24134624881	1029.5
2139.51648490317	1034
2141.79095785593	1029.5
2144.0647654022	1043
2146.33790783698	1043.25
2148.61038545524	1045.5
2150.88219855182	1049
2153.15334742154	1030.5
2155.42383235911	1041
2157.6936536592	1043.5
2159.9628116164	1044.75
2162.23130652522	1030
2164.49913868011	1059.75
2166.76630837544	1052.5
2169.03281590552	1051.25
2171.2986615646	1060.5
2173.56384564685	1048.25
2175.82836844637	1047.25
2178.0922302572	1048
2180.35543137332	1051.75
2182.61797208862	1057.25
2184.87985269695	1057
2187.14107349208	1045
2189.40163476773	1057.25
2191.66153681753	1041.25
2193.92077993507	1054.5
2196.17936441386	1052.25
2198.43729054735	1051
2200.69455862894	1057
2202.95116895194	1049.5
2205.20712180962	1057
2207.46241749519	1063.5
2209.71705630179	1063.75
2211.97103852248	1057.25
2214.2243644503	1067
2216.47703437819	1054.5
2218.72904859905	1055
2220.98040740571	1056.5
2223.23111109095	1064.75
2225.4811599475	1058
2227.73055426799	1068
2229.97929434504	1065
2232.22738047118	1071
2234.47481293889	1056
2236.72159204058	1063
2238.96771806864	1054.5
2241.21319131536	1073.5
2243.458012073	1044.75
2245.70218063374	1056.75
2247.94569728973	1069
2250.18856233304	1056.5
2252.4307760557	1068.75
2254.67233874967	1064.25
2256.91325070687	1068.25
2259.15351221915	1066.75
2261.39312357831	1058.25
2263.63208507611	1071.25
2265.87039700422	1063
2268.1080596543	1060.75
2270.34507331792	1074.75
2272.5814382866	1087.25
2274.81715485183	1075.5
2277.05222330502	1089.75
2279.28664393755	1078.25
2281.52041704072	1062.75
2283.75354290581	1078.25
2285.98602182401	1064.25
2288.21785408648	1073.5
2290.44903998434	1073.5
2292.67957980862	1071.75
2294.90947385033	1078.25
2297.1387224004	1083
2299.36732574975	1079.25
2301.59528418921	1072
2303.82259800958	1072.75
2306.04926750158	1063.25
2308.27529295593	1074.25
2310.50067466325	1083
2312.72541291412	1070.75
2314.9495079991	1083.5
2317.17296020866	1070.25
2319.39576983323	1071
2321.61793716322	1084.25
2323.83946248894	1079.75
2326.06034610069	1070.25
2328.28058828871	1083.75
2330.50018934317	1073.75
2332.7191495542	1092.5
2334.93746921192	1086
2337.15514860633	1079.75
2339.37218802743	1074.25
2341.58858776516	1081.75
2343.80434810941	1076.75
2346.01946935001	1083.5
2348.23395177675	1087.75
2350.44779567939	1074
2352.66100134759	1083
2354.87356907101	1088.25
2357.08549913925	1073.75
2359.29679184185	1078.5
2361.50744746829	1089.25
2363.71746630804	1087.5
2365.92684865048	1086.5
2368.13559478499	1072.75
2370.34370500083	1079
2372.55117958727	1067.5
2374.75801883352	1081.5
2376.96422302874	1082.5
2379.16979246202	1086.25
2381.37472742243	1079.75
2383.57902819898	1079.75
2385.78269508063	1075
2387.98572835629	1082.75
2390.18812831482	1070
2392.38989524505	1058.5
2394.59102943573	1064
2396.79153117559	1087.25
2398.9914007533	1092.25
2401.19063845748	1087.75
2403.38924457672	1082.75
2405.58721939951	1081
2407.78456321435	1083.75
2409.98127630966	1073.5
2412.17735897382	1065.25
2414.37281149517	1083
2416.56763416198	1073.75
2418.76182726249	1085
2420.95539108487	1084.5
2423.14832591726	1090.25
2425.34063204776	1084.75
2427.53230976439	1075
2429.72335935513	1080.5
2431.91378110795	1077.25
2434.10357531071	1082.75
2436.29274225125	1077.75
2438.48128221739	1078.75
2440.66919549683	1075
2442.8564823773	1085.25
2445.04314314641	1069.25
2447.22917809176	1082.75
2449.4145875009	1068
2451.59937166131	1070
2453.78353086044	1077.5
2455.96706538568	1059.75
2458.14997552436	1054.75
2460.33226156379	1069.25
2462.51392379119	1073.5
2464.69496249376	1069.5
2466.87537795862	1085
2469.05517047288	1054.75
2471.23434032357	1076.5
2473.41288779767	1089.5
2475.59081318211	1070.75
2477.76811676378	1073
2479.9447988295	1078.25
2482.12085966605	1078.75
2484.29629956016	1077
2486.4711187985	1080.25
2488.64531766769	1077
2490.8188964543	1074.5
2492.99185544484	1059.25
2495.16419492579	1060.75
2497.33591518353	1069.5
2499.50701650444	1072.75
2501.67749917482	1084.75
2503.84736348091	1063.25
2506.01660970891	1056.75
2508.18523814496	1064.75
2510.35324907514	1075.5
2512.52064278551	1083.5
2514.68741956201	1083
2516.85357969058	1088
2519.01912345709	1070
2521.18405114735	1069
2523.34836304711	1089.75
2525.51205944208	1083.75
2527.6751406179	1071.75
2529.83760686016	1078.5
2531.99945845439	1092.5
2534.16069568606	1093
2536.3213188406	1077.5
2538.48132820336	1066.25
2540.64072405965	1080.5
2542.79950669471	1085.75
2544.95767639373	1097.75
2547.11523344184	1075
2549.27217812411	1082.75
2551.42851072555	1086.25
2553.58423153111	1095.25
2555.73934082569	1080.25
2557.89383889412	1071
2560.04772602118	1077.75
2562.20100249158	1070
2564.35366858996	1087.25
2566.50572460093	1089.5
2568.65717080901	1091.75
2570.80800749867	1072.5
2572.95823495433	1084.25
2575.10785346031	1084.75
2577.25686330093	1081
2579.40526476038	1069.75
2581.55305812282	1083.5
2583.70024367237	1070
2585.84682169303	1071.5
2587.99279246879	1072.5
2590.13815628354	1073.5
2592.28291342112	1066.75
2594.42706416531	1078.75
2596.5706087998	1062.5
2598.71354760826	1076.5
2600.85588087425	1079
2602.99760888127	1081.75
2605.13873191278	1067
2607.27925025214	1066.5
2609.41916418269	1065.75
2611.55847398764	1057.25
2613.69717995017	1065.75
2615.83528235339	1061.5
2617.97278148034	1078
2620.10967761398	1076.25
2622.2459710372	1078.75
2624.38166203284	1079.75
2626.51675088365	1061.5
2628.65123787231	1077
2630.78512328145	1066
2632.9184073936	1065
2635.05109049124	1083.75
2637.18317285676	1077
2639.31465477248	1071.5
2641.44553652067	1071
2643.5758183835	1072.75
2645.70550064309	1078.75
2647.83458358144	1077.5
2649.96306748053	1083.75
2652.09095262223	1096
2654.21823928836	1096.75
2656.34492776063	1084.5
2658.47101832071	1089.25
2660.59651125015	1097.25
2662.72140683047	1090
2664.84570534309	1101
2666.96940706934	1089.75
2669.0925122905	1086.75
2671.21502128773	1100.5
2673.33693434215	1092.25
2675.45825173479	1095.5
2677.57897374658	1084.25
2679.69910065839	1083
2681.818632751	1091.25
2683.93757030511	1091
2686.05591360133	1086.25
2688.17366292021	1080
2690.29081854218	1079
2692.40738074762	1074.25
2694.52334981681	1079.5
2696.63872602995	1082.25
2698.75350966713	1084.75
2700.86770100841	1088.75
2702.98130033371	1059
2705.09430792289	1067.25
2707.20672405571	1090.75
2709.31854901185	1085.25
2711.42978307091	1080.25
2713.54042651238	1074.5
2715.65047961567	1083.75
2717.7599426601	1090.75
2719.86881592491	1072
2721.97709968924	1077.25
2724.08479423213	1086.75
2726.19189983255	1089.75
2728.29841676934	1088
2730.4043453213	1094.75
2732.5096857671	1084.5
2734.61443838532	1085
2736.71860345444	1080
2738.82218125286	1069
2740.92517205889	1083.75
2743.02757615072	1099.5
2745.12939380646	1068.5
2747.23062530411	1086.75
2749.33127092159	1092.5
2751.4313309367	1084
2753.53080562716	1102.75
2755.62969527058	1097
2757.72800014448	1092.75
2759.82572052625	1089.5
2761.92285669323	1092.75
2764.0194089226	1083.5
2766.11537749147	1088.5
2768.21076267686	1092.25
2770.30556475566	1088.5
2772.39978400465	1087.25
2774.49342070054	1088.25
2776.58647511991	1088.25
2778.67894753923	1107.75
2780.77083823487	1105
2782.8621474831	1095.75
2784.95287556007	1100
2787.04302274184	1099
2789.13258930433	1090.25
2791.22157552338	1094.5
2793.30998167471	1093
2795.39780803392	1078
2797.4850548765	1090.75
2799.57172247786	1084
2801.65781111324	1089.5
2803.74332105781	1092
2805.82825258661	1099
2807.91260597457	1088.75
2809.9963814965	1087.25
2812.07957942711	1098
2814.16220004096	1100.75
2816.24424361252	1104.25
2818.32571041614	1079.25
2820.40660072604	1081.25
2822.48691481631	1103.75
2824.56665296098	1088.5
2826.64581543388	1106.5
2828.72440250876	1091
2830.80241445925	1102
2832.87985155885	1106
2834.95671408093	1107.75
2837.03300229875	1124
2839.10871648544	1112.75
2841.18385691399	1119.25
2843.25842385729	1112.5
2845.33241758808	1108.5
2847.40583837898	1122.75
2849.4786865025	1128.5
2851.550962231	1129.75
2853.6226658367	1118.5
2855.69379759173	1133.25
2857.76435776806	1147
2859.83434663753	1136
2861.90376447184	1158
2863.97261154259	1161.25
2866.0408881212	1145
2868.10859447901	1152.5
2870.17573088717	1162
2872.24229761673	1129
2874.30829493859	1147.75
2876.37372312352	1131.75
2878.43858244215	1129.5
2880.50287316496	1142
2882.56659556231	1139.5
2884.62974990439	1136.5
2886.69233646129	1133.75
2888.75435550293	1134.75
2890.81580729909	1147
2892.87669211941	1142.5
2894.93701023339	1154.75
2896.99676191039	1158
2899.05594741961	1171.75
2901.1145670301	1186.75
2903.1726210108	1194
2905.23010963045	1213.75
2907.28703315768	1230
2909.34339186096	1243
2911.39918600861	1267.5
2913.45441586879	1259
2915.50908170952	1271.25
2917.56318379867	1246.25
2919.61672240395	1260
2921.66969779291	1236.5
2923.72211023295	1245.5
2925.77395999134	1221.75
2927.82524733515	1210
2929.87597253132	1220
2931.92613584663	1219
2933.97573754769	1223.5
2936.02477790097	1200.25
2938.07325717276	1201.5
2940.1211756292	1212.75
2942.16853353626	1192.75
2944.21533115976	1192
2946.26156876536	1186.25
2948.30724661853	1189
2950.3523649846	1174.5
2952.39692412872	1175.75
2954.44092431587	1174.75
2956.48436581089	1170.25
2958.52724887843	1158.75
2960.56957378296	1153.5
2962.6113407888	1180.5
2964.65255016011	1157.5
2966.69320216083	1171.75
2968.73329705479	1181
2970.77283510559	1178.25
2972.81181657671	1168.5
2974.8502417314	1161.75
2976.88811083279	1170
2978.92542414378	1168.75
2980.96218192713	1175
2982.99838444541	1150.25
2985.034031961	1152.75
2987.06912473612	1139.75
2989.1036630328	1135
2991.13764711288	1147.25
2993.17107723804	1139.75
2995.20395366974	1141.25
2997.23627666931	1142.75
2999.26804649782	1122.5
3001.29926341624	1140.25
3003.32992768528	1131
3005.3600395655	1137.25
3007.38959931726	1136.25
3009.41860720076	1140.75
3011.44706347595	1140.75
3013.47496840263	1146.5
3015.50232224041	1143
3017.5291252487	1138.25
3019.5553776867	1131.25
3021.58107981344	1141.5
3023.60623188773	1141.25
3025.63083416822	1123.5
3027.65488691331	1152.5
3029.67839038125	1123.5
3031.70134483007	1137.25
3033.72375051759	1148
3035.74560770144	1148.5
3037.76691663907	1152.75
3039.78767758768	1159.75
3041.80789080431	1151.75
3043.82755654577	1161.75
3045.84667506867	1181.25
3047.8652466294	1180.5
3049.88327148418	1185
3051.90074988899	1187.25
3053.91768209961	1184.25
3055.9340683716	1168.75
3057.94990896033	1155.25
3059.96520412095	1144.25
3061.97995410838	1157.25
3063.99415917734	1171.75
3066.00781958234	1162.25
3068.02093557766	1159.75
3070.03350741738	1132.75
3072.04553535535	1154
3074.05701964521	1155.75
3076.06796054036	1132.5
3078.078358294	1149.25
3080.08821315912	1136.25
3082.09752538846	1145
3084.10629523454	1140
3086.11452294967	1144.75
3088.12220878592	1146.5
3090.12935299515	1126.75
3092.13595582898	1143.75
3094.1420175388	1134.75
3096.14753837579	1145.5
3098.15251859088	1123.25
3100.15695843477	1144.5
3102.16085815793	1132.5
3104.16421801061	1142.25
3106.16703824282	1124.5
3108.16931910432	1118
3110.17106084464	1154.75
3112.17226371308	1128.25
3114.17292795872	1144.5
3116.17305383034	1139.25
3118.17264157657	1131
3120.17169144571	1127.75
3122.17020368587	1126.75
3124.16817854492	1145.25
3126.16561627044	1131.25
3128.16251710982	1139
3130.15888131017	1158
3132.15470911837	1149.75
3134.15000078104	1147
3136.14475654455	1143
3138.13897665502	1155.75
3140.13266135835	1143.75
3142.12581090014	1132.5
3144.11842552577	1151
3146.11050548036	1149
3148.10205100875	1150
3150.09306235557	1146.75
3152.08353976515	1152.5
3154.07348348158	1143.5
3156.06289374869	1140
3158.05177081006	1138.75
3160.04011490899	1149.25
3162.02792628852	1156.75
3164.01520519145	1135.5
3166.00195186029	1149.25
3167.98816653728	1143
3169.97384946442	1154.25
3171.95900088344	1141.5
3173.94362103577	1143.25
3175.92771016259	1153.5
3177.91126850484	1152.5
3179.89429630312	1149.75
3181.87679379782	1155.25
3183.85876122903	1154
3185.84019883657	1137.25
3187.82110685997	1145.25
3189.80148553851	1141
3191.78133511116	1153
3193.76065581664	1146.75
3195.73944789337	1152.25
3197.7177115795	1145
3199.6954471129	1161.25
3201.67265473114	1138.75
3203.64933467153	1149.5
3205.62548717107	1161.5
3207.60111246648	1150.75
3209.57621079421	1165.75
3211.55078239041	1154.5
3213.52482749093	1147.75
3215.49834633133	1158.75
3217.4713391469	1145.75
3219.44380617262	1150
3221.41574764317	1157
3223.38716379296	1150
3225.35805485607	1163.75
3227.32842106631	1169.5
3229.29826265718	1161.25
3231.26757986187	1170.75
3233.2363729133	1173.5
3235.20464204405	1178
3237.17238748643	1164.5
3239.13960947243	1166.75
3241.10630823374	1181.75
3243.07248400174	1159.25
3245.03813700748	1178.25
3247.00326748177	1172.5
3248.96787565503	1167.25
3250.93196175742	1177.75
3252.89552601877	1168
3254.8585686686	1161
3256.82108993612	1177.25
3258.78309005022	1183.75
3260.74456923948	1159.25
3262.70552773215	1167.75
3264.66596575617	1185
3266.62588353916	1168
3268.58528130843	1167.75
3270.54415929094	1172.5
3272.50251771336	1167.25
3274.46035680201	1189.25
3276.4176767829	1175.75
3278.37447788171	1177.5
3280.33076032379	1178.25
3282.28652433416	1175
3284.24177013751	1173.5
3286.1964979582	1183
3288.15070802027	1170.75
3290.10440054741	1181
3292.05757576298	1167.25
3294.01023389001	1173
3295.96237515119	1190.25
3297.91399976887	1184.75
3299.86510796506	1169.25
3301.81569996142	1176.5
3303.76577597932	1179
3305.7153362397	1190.25
3307.66438096324	1186
3309.61291037024	1190.25
3311.56092468064	1184
3313.50842411404	1174.5
3315.45540888971	1184
3317.40187922656	1165
3319.34783534315	1184.25
3321.29327745768	1175.5
3323.23820578801	1159
3325.18262055164	1153
3327.1265219657	1176
3329.06991024699	1167
3331.01278561194	1173.75
3332.95514827662	1154
3334.89699845674	1177.75
3336.83833636766	1182
3338.77916222434	1156.25
3340.71947624143	1164.5
3342.65927863317	1185
3344.59856961346	1169.25
3346.53734939584	1179.25
3348.47561819344	1171.5
3350.41337621906	1176
3352.35062368513	1155.75
3354.28736080368	1166.25
3356.22358778637	1175.25
3358.15930484452	1181.75
3360.09451218904	1168.5
3362.02921003047	1170
3363.96339857898	1172.5
3365.89707804436	1182.5
3367.83024863602	1180
3369.76291056299	1170.25
3371.69506403389	1179.75
3373.62670925699	1182.75
3375.55784644016	1175.5
3377.4884757909	1171.5
3379.41859751629	1179
3381.34821182305	1181.5
3383.27731891749	1197.5
3385.20591900555	1183.5
3387.13401229276	1187.5
3389.06159898426	1177.5
3390.9886792848	1172.5
3392.91525339872	1192
3394.84132152998	1180.25
3396.76688388213	1175.5
3398.69194065833	1185.25
3400.61649206133	1181.75
3402.54053829348	1190.5
3404.46407955672	1177.5
3406.3871160526	1177.25
3408.30964798225	1193.25
3410.23167554639	1183.75
3412.15319894535	1187.5
3414.07421837904	1191
3415.99473404695	1188.25
3417.91474614817	1196.75
3419.83425488136	1169
3421.75326044479	1187.5
3423.67176303631	1204
3425.58976285332	1191
3427.50726009282	1187.75
3429.42425495143	1192.5
3431.34074762528	1196
3433.25673831012	1192
3435.17222720127	1184.75
3437.08721449362	1186
3439.00170038164	1168.5
3440.91568505936	1199
3442.82916872039	1177.75
3444.74215155791	1180
3446.65463376468	1193
3448.566615533	1191.5
3450.47809705476	1177
3452.3890785214	1184.75
3454.29956012393	1185.25
3456.20954205293	1195
3458.11902449853	1196.5
3460.02800765041	1209.5
3461.93649169784	1167.5
3463.84447682962	1180.5
3465.75196323412	1191
3467.65895109925	1177.5
3469.56544061249	1184.25
3471.47143196086	1169.25
3473.37692533093	1183
3475.28192090884	1192
3477.18641888026	1192.75
3479.09041943039	1187.5
3480.99392274402	1206.25
3482.89692900545	1182.5
3484.79943839853	1181
3486.70145110666	1176.5
3488.60296731277	1186
3490.50398719933	1180.25
3492.40451094836	1187
3494.30453874141	1188
3496.20407075956	1199
3498.10310718342	1180.75
3500.00164819315	1178.75