
200.090469251518	1557
202.974751419362	1541
205.858021632263	1551
208.740280737522	1570
211.621529580443	1556
214.501769004371	1564
217.380999850626	1569
220.25922295859	1559
223.136439165646	1579
226.012649307235	1604
228.88785421682	1549
231.762054725918	1610
234.635251664113	1579
237.507445859021	1592
240.378638136346	1630
243.248829319855	1617
246.11802023137	1604
248.986211690826	1616
251.853404516227	1588
254.719599523654	1631
257.584797527335	1602
260.44899933954	1642
263.312205770682	1639
266.174417629303	1639
269.035635722015	1660
271.895860853609	1627
274.755093826978	1635
277.613335443144	1695
280.470586501309	1660
283.326847798766	1663
286.182120131019	1689
289.036404291684	1681
291.889701072574	1679
294.742011263643	1670
297.593335653048	1678
300.443675027094	1673
303.293030170295	1671
306.141401865367	1705
308.988790893174	1689
311.835198032837	1656
314.680624061635	1721
317.525069755113	1654
320.36853588697	1722
323.211023229178	1697
326.052532551923	1693
328.893064623604	1710
331.732620210885	1708
334.57120007867	1671
337.408804990093	1715
340.245435706565	1703
343.081092987733	1768
345.915777591523	1676
348.749490274145	1762
351.582231790049	1742
354.414002891997	1764
357.244804331021	1718
360.074636856443	1747
362.903501215886	1769
365.731398155265	1781
368.558328418814	1733
371.384292749062	1777
374.209291886869	1777
377.033326571407	1764
379.85639754017	1758
382.678505529009	1793
385.499651272065	1809
388.319835501872	1844
391.139058949258	1749
393.957322343453	1810
396.774626412011	1831
399.590971880847	1796
402.406359474258	1822
405.220789914893	1833
408.034263923801	1782
410.8467822204	1813
413.658345522483	1850
416.468954546242	1854
419.278610006277	1830
422.087312615557	1837
424.895063085503	1853
427.701862125901	1864
430.507710444981	1877
433.312608749366	1859
436.116557744146	1916
438.919558132791	1892
441.721610617238	1863
444.522715897856	1894
447.322874673457	1904
450.122087641299	1914
452.920355497092	1890
455.717678935009	1850
458.514058647681	1877
461.309495326219	1886
464.103989660191	1896
466.89754233765	1885
469.690154045114	1912
472.481825467625	1823
475.272557288674	1830
478.062350190281	1879
480.851204852952	1924
483.639121955683	1906
486.426102176007	1933
489.212146189955	1914
491.997254672093	1887
494.781428295471	1974
497.564667731716	1943
500.346973650958	1970
503.128346721878	1947
505.90878761169	1953
508.688296986151	1967
511.46687550957	1920
514.244523844831	1961
517.021242653354	1999
519.797032595132	1947
522.571894328732	1978
525.345828511279	2016
528.11883579849	2003
530.890916844655	1970
533.662072302668	1990
536.432302823985	2008
539.201609058684	2009
541.96999165542	1975
544.737451261473	1968
547.503988522723	1994
550.26960408366	1970
553.034298587394	1970
555.798072675669	1974
558.560926988819	2021
561.322862165849	2030
564.083878844369	2038
566.843977660654	2033
569.603159249604	2010
572.361424244769	2045
575.118773278369	2065
577.87520698124	1979
580.630725982905	2022
583.385330911566	2057
586.139022394076	2092
588.891801055954	2044
591.643667521406	2124
594.394622413318	2103
597.144666353273	2075
599.893799961512	2100
602.64202385701	2066
605.389338657413	2109
608.135744979089	2053
610.881243437092	2083
613.625834645191	2046
616.369519215881	2056
619.112297760374	2034
621.854170888604	2069
624.595139209225	2116
627.335203329614	2088
630.074363855914	2091
632.81262139299	2030
635.549976544436	2060
638.286429912612	2019
641.021982098635	2086
643.756633702364	2101
646.49038532241	2044
649.223237556176	2039
651.955190999808	2143
654.686246248224	2068
657.416403895135	2064
660.145664533011	2145
662.874028753133	2133
665.601497145537	2123
668.328070299071	2155
671.05374880138	2131
673.778533238885	2185
676.502424196839	2194
679.225422259297	2159
681.947528009099	2163
684.668742027927	2094
687.389064896281	2101
690.108497193465	2161
692.827039497621	2145
695.544692385724	2105
698.261456433585	2137
700.977332215847	2172
703.692320305981	2182
706.406421276337	2179
709.11963569808	2178
711.831964141256	2189
714.54340717474	2161
717.253965366304	2167
719.963639282552	2207
722.672429488961	2173
725.380336549904	2209
728.087361028596	2254
730.793503487166	2185
733.498764486594	2222
736.203144586758	2255
738.906644346447	2231
741.60926432331	2212
744.311005073912	2176
747.011867153727	2304
749.711851117121	2275
752.410957517375	2281
755.109186906677	2259
757.806539836132	2338
760.503016855779	2296
763.198618514551	2249
765.893345360346	2246
768.587197939964	2281
771.28017679914	2258
773.972282482566	2298
776.663515533859	2249
779.353876495581	2287
782.043365909241	2263
784.731984315327	2278
787.419732253235	2235
790.106610261366	2283
792.792618877058	2299
795.477758636618	2285
798.162030075313	2293
800.845433727423	2283
803.52797012615	2274
806.209639803714	2289
808.890443291304	2297
811.570381119098	2360
814.249453816265	2347
816.927661910959	2331
819.60500593036	2294
822.281486400603	2295
824.957103846864	2341
827.631858793316	2323
830.305751763135	2300
832.978783278519	2375
835.650953860677	2345
838.322264029848	2370
840.992714305292	2398
843.662305205289	2301
846.331037247157	2411
848.998910947241	2432
851.665926820933	2376
854.332085382674	2444
856.997387145915	2444
859.661832623191	2447
862.325422326066	2417
864.988156765172	2414
867.650036450181	2376
870.311061889846	2393
872.971233591961	2381
875.630552063409	2431
878.28901781013	2435
880.946631337138	2440
883.603393148533	2379
886.259303747484	2409
888.914363636246	2438
891.568573316155	2454
894.22193328767	2383
896.874444050281	2400
899.526106102625	2388
902.176919942416	2444
904.826886066483	2414
907.476004970747	2433
910.124277150255	2471
912.77170309913	2436
915.418283310642	2405
918.064018277175	2452
920.708908490222	2450
923.352954440405	2456
925.996156617486	2440
928.638515510334	2502
931.280031606966	2443
933.920705394521	2482
936.560537359303	2470
939.199527986737	2451
941.837677761392	2462
944.474987167006	2416
947.111456686438	2483
949.747086801734	2500
952.38187799407	2486
955.015830743792	2470
957.648945530418	2494
960.281222832633	2484
962.91266312826	2466
965.543266894336	2495
968.173034607058	2453
970.801966741779	2474
973.43006377307	2433
976.057326174661	2458
978.683754419471	2500
981.309348979623	2453
983.93411032642	2502
986.558038930361	2482
989.181135261144	2507
991.803399787692	2506
994.424832978086	2527
997.045435299653	2478
999.665207218906	2523
1002.2841492016	2524
1004.90226171266	2525
1007.51954521628	2547
1010.13600017584	2547
1012.75162705397	2528
1015.3664263125	2588
1017.9803984125	2517
1020.5935438143	2540
1023.20586297741	2564
1025.81735636063	2584
1028.42802442196	2526
1031.03786761869	2536
1033.64688640732	2569
1036.2550812436	2576
1038.86245258255	2620
1041.46900087844	2563
1044.07472658479	2640
1046.67963015438	2645
1049.28371203927	2714
1051.88697269075	2760
1054.48941255943	2918
1057.09103209513	3124
1059.691831747	3475
1062.29181196343	3493
1064.89097319211	3309
1067.48931587999	2937
1070.08684047333	2819
1072.68354741766	2672
1075.27943715779	2683
1077.87451013787	2716
1080.46876680127	2705
1083.06220759071	2692
1085.65483294822	2655
1088.24664331509	2731
1090.83763913194	2688
1093.42782083869	2659
1096.01718887459	2682
1098.60574367818	2702
1101.19348568732	2671
1103.78041533919	2640
1106.3665330703	2719
1108.95183931646	2713
1111.53633451284	2703
1114.12001909391	2759
1116.70289349349	2831
1119.2849581447	2962
1121.86621348005	3260
1124.44665993134	3873
1127.02629792973	4399
1129.60512790574	4444
1132.18315028919	3785
1134.76036550929	3234
1137.3367739946	2927
1139.912376173	2741
1142.48717247176	2754
1145.06116331748	2747
1147.63434913616	2764
1150.20673035312	2734
1152.77830739307	2760
1155.34908068007	2719
1157.91905063757	2764
1160.48821768838	2786
1163.05658225471	2723
1165.6241447581	2734
1168.19090561951	2786
1170.75686525927	2748
1173.32202409708	2752
1175.88638255206	2696
1178.44994104269	2679
1181.01269998684	2703
1183.57465980182	2681
1186.13582090427	2684
1188.69618371026	2695
1191.25574863529	2638
1193.8145160942	2621
1196.37248650129	2677
1198.92966027025	2670
1201.48603781416	2605
1204.04161954556	2706
1206.59640587635	2673
1209.15039721788	2620
1211.70359398092	2681
1214.25599657564	2735
1216.80760541166	2652
1219.35842089801	2716
1221.90844344314	2709
1224.45767345496	2639
1227.00611134077	2696
1229.55375750736	2639
1232.10061236092	2726
1234.64667630707	2743
1237.1919497509	2780
1239.73643309692	2724
1242.28012674912	2684
1244.82303111089	2771
1247.36514658511	2752
1249.9064735741	2830
1252.44701247964	2795
1254.98676370294	2766
1257.52572764469	2838
1260.06390470506	2833
1262.60129528365	2838
1265.13789977954	2808
1267.67371859128	2792
1270.20875211688	2910
1272.74300075384	2855
1275.2764648991	2944
1277.80914494911	2800
1280.34104129978	2922
1282.87215434652	3004
1285.40248448419	3037
1287.93203210715	3189
1290.46079760927	3855
1292.98878138385	4406
1295.51598382375	4328
1298.04240532127	3791
1300.56804626822	3347
1303.09290705593	3076
1305.6169880752	3080
1308.14028971632	2988
1310.66281236913	2988
1313.18455642292	2901
1315.70552226653	2943
1318.22571028829	2979
1320.74512087603	2956
1323.26375441711	2981
1325.7816112984	2953
1328.29869190629	2952
1330.81499662666	3029
1333.33052584497	2989
1335.84527994613	3008
1338.35925931464	3008
1340.87246433446	3015
1343.38489538916	3027
1345.89655286177	3036
1348.40743713487	3028
1350.91754859059	3063
1353.42688761059	3086
1355.93545457606	3092
1358.44324986772	3055
1360.95027386588	3174
1363.45652695032	3147
1365.96200950042	3200
1368.4667218951	3210
1370.97066451281	3208
1373.47383773156	3184
1375.97624192891	3143
1378.47787748199	3146
1380.97874476746	3132
1383.47884416157	3158
1385.97817604009	3118
1388.4767407784	3186
1390.9745387514	3126
1393.47157033358	3164
1395.96783589898	3178
1398.46333582124	3150
1400.95807047354	3265
1403.45204022864	3274
1405.94524545889	3296
1408.4376865362	3448
1410.92936383205	3836
1413.42027771752	4253
1415.91042856328	4480
1418.39981673955	4219
1420.88844261615	3823
1423.37630656249	3709
1425.86340894757	3585
1428.34975013999	3701
1430.83533050792	3764
1433.32015041912	3863
1435.80421024098	4028
1438.28751034045	4139
1440.77005108411	3990
1443.25183283812	3956
1445.73285596824	3953
1448.21312083984	3950
1450.69262781791	3915
1453.17137726702	3961
1455.64936955137	3983
1458.12660503477	4080
1460.60308408063	4031
1463.07880705197	4055
1465.55377431145	3995
1468.02798622133	3925
1470.50144314348	3926
1472.97414543941	3868
1475.44609347024	3911
1477.91728759673	3906
1480.38772817924	3870
1482.85741557777	3901
1485.32635015194	3796
1487.79453226103	3880
1490.26196226391	3842
1492.72864051911	3937
1495.1945673848	3931
1497.65974321874	3933
1500.1241683784	3981
1502.58784322083	4066
1505.05076810274	4027
1507.51294338049	4033
1509.97436941009	4047
1512.43504654717	4125
1514.89497514704	4124
1517.35415556462	4155
1519.81258815451	4122
1522.27027327095	4150
1524.72721126784	4242
1527.18340249874	4214
1529.63884731684	4359
1532.09354607502	4288
1534.5474991258	4389
1537.00070682136	4404
1539.45316951355	4364
1541.90488755388	4436
1544.35586129353	4430
1546.80609108336	4586
1549.25557727385	4518
1551.70432021519	4596
1554.15232025725	4536
1556.59957774953	4696
1559.04609304125	4668
1561.49186648127	4718
1563.93689841815	4745
1566.38118920011	4936
1568.82473917506	4919
1571.2675486906	4864
1573.70961809399	4903
1576.15094773219	4918
1578.59153795184	4994
1581.03138909928	5039
1583.47050152051	5017
1585.90887556123	5067
1588.34651156686	5099
1590.78340988246	5156
1593.21957085283	5166
1595.65499482245	5234
1598.08968213547	5241
1600.52363313578	5265
1602.95684816694	5330
1605.38932757224	5271
1607.82107169462	5333
1610.25208087677	5353
1612.68235546107	5294
1615.1118957896	5308
1617.54070220415	5440
1619.96877504621	5327
1622.39611465701	5388
1624.82272137746	5395
1627.24859554818	5403
1629.67373750953	5557
1632.09814760155	5527
1634.52182616404	5460
1636.94477353647	5470
1639.36699005806	5539
1641.78847606776	5529
1644.20923190418	5658
1646.62925790573	5629
1649.04855441048	5700
1651.46712175628	5773
1653.88496028066	5751
1656.3020703209	5754
1658.71845221401	5777
1661.13410629671	5830
1663.54903290547	5907
1665.96323237649	5907
1668.37670504571	5835
1670.78945124877	5985
1673.20147132109	6054
1675.61276559779	6041
1678.02333441377	5996
1680.43317810362	6156
1682.84229700171	6188
1685.25069144213	6191
1687.65836175872	6215
1690.06530828507	6221
1692.47153135451	6303
1694.87703130009	6191
1697.28180845467	6449
1699.6858631508	6365
1702.08919572081	6204
1704.49180649676	6372
1706.89369581049	6368
1709.29486399355	6380
1711.69531137731	6326
1714.09503829282	6370
1716.49404507095	6326
1718.89233204229	6411
1721.28989953721	6416
1723.68674788581	6516
1726.08287741798	6534
1728.47828846338	6519
1730.87298135139	6411
1733.26695641119	6500
1735.66021397173	6437
1738.05275436169	6513
1740.44457790954	6480
1742.83568494354	6585
1745.22607579168	6589
1747.61575078175	6528
1750.00471024128	6602
1752.39295449761	6699
1754.78048387783	6661
1757.16729870881	6720
1759.5533993172	6767
1761.93878602942	6701
1764.32345917168	6747
1766.70741906995	6886
1769.09066604999	6810
1771.47320043735	6774
1773.85502255735	6952
1776.2361327351	6876
1778.61653129548	6908
1780.99621856318	7062
1783.37519486264	7033
1785.75346051813	7048
1788.13101585368	7171
1790.5078611931	7100
1792.88399686002	7114
1795.25942317785	7136
1797.63414046977	7228
1800.00814905878	7239
1802.38144926766	7302
1804.75404141898	7288
1807.12592583514	7291
1809.49710283829	7404
1811.86757275039	7380
1814.23733589322	7487
1816.60639258834	7405
1818.97474315712	7391
1821.34238792073	7501
1823.70932720012	7477
1826.07556131608	7540
1828.44109058918	7497
1830.8059153398	7594
1833.17003588812	7635
1835.53345255413	7554
1837.89616565765	7535
1840.25817551827	7626
1842.61948245541	7683
1844.9800867883	7733
1847.33998883598	7701
1849.69918891729	7787
1852.05768735091	7867
1854.4154844553	7726
1856.77258054875	7848
1859.12897594938	7850
1861.4846709751	7860
1863.83966594366	7713
1866.19396117261	7687
1868.54755697932	7897
1870.90045368099	7914
1873.25265159463	7976
1875.60415103708	8030
1877.95495232501	8207
1880.30505577486	8119
1882.65446170299	8250
1885.00317042548	8267
1887.35118225832	8337
1889.69849751726	8322
1892.04511651792	8383
1894.39103957574	8463
1896.73626700596	8415
1899.08079912368	8454
1901.42463624384	8444
1903.76777868116	8540
1906.11022675025	8491
1908.4519807655	8565
1910.79304104117	8623
1913.13340789134	8664
1915.47308162992	8585
1917.81206257067	8681
1920.15035102718	8722
1922.48794731286	8634
1924.82485174096	8816
1927.16106462461	8671
1929.49658627672	8732
1931.83141701008	8700
1934.1655571373	8775
1936.49900697085	8763
1938.83176682301	8770
1941.16383700594	8847
1943.49521783161	8808
1945.82590961186	8702
1948.15591265835	8646
1950.48522728262	8751
1952.81385379602	8698
1955.14179250976	8690
1957.46904373489	8838
1959.79560778233	8701
1962.12148496284	8745
1964.44667558701	8711
1966.77117996529	8744
1969.09499840799	8737
1971.41813122527	8858
1973.74057872714	8909
1976.06234122345	8821
1978.38341902391	8824
1980.7038124381	8898
1983.02352177543	8971
1985.34254734518	8913
1987.66088945649	9073
1989.97854841833	9083
1992.29552453956	8972
1994.61181812887	9073
1996.92742949483	9237
1999.24235894586	9113
2001.55660679023	9059
2003.87017333608	9151
2006.18305889143	9185
2008.49526376413	9156
2010.80678826189	9242
2013.1176326923	9343
2015.42779736282	9161
2017.73728258075	9376
2020.04608865326	9319
2022.3542158874	9292
2024.66166459008	9516
2026.96843506807	9534
2029.274527628	9500
2031.57994257637	9436
2033.88468021957	9513
2036.18874086383	9517
2038.49212481526	9558
2040.79483237983	9609
2043.0968638634	9512
2045.39821957169	9651
2047.69889981028	9607
2049.99890488462	9629
2052.29823510006	9772
2054.59689076181	9695
2056.89487217492	9752
2059.19217964437	9771
2061.48881347497	9789
2063.7847739714	9767
2066.08006143826	9828
2068.37467618	9728
2070.66861850093	9954
2072.96188870527	9880
2075.25448709707	9891
2077.54641398031	9798
2079.83766965881	9792
2082.12825443629	9954
2084.41816861634	9918
2086.70741250242	9918
2088.99598639789	9974
2091.28389060597	9910
2093.57112542978	9894
2095.85769117232	10120
2098.14358813644	9969
2100.42881662491	9972
2102.71337694037	10194
2104.99726938532	10140
2107.28049426219	10166
2109.56305187325	10211
2111.84494252069	10263
2114.12616650655	10277
2116.40672413278	10293
2118.68661570121	10258
2120.96584151355	10484
2123.24440187138	10513
2125.52229707622	10424
2127.79952742943	10353
2130.07609323227	10605
2132.35199478588	10516
2134.62723239132	10618
2136.90180634949	10737
2139.17571696123	10605
2141.44896452723	10719
2143.72154934809	10708
2145.99347172429	10757
2148.26473195623	10865
2150.53533034415	10865
2152.80526718821	10914
2155.07454278848	10861
2157.3431574449	10793
2159.61111145728	10931
2161.87840512538	10939
2164.1450387488	11013
2166.41101262707	11022
2168.67632705959	11079
2170.94098234567	11015
2173.20497878451	11021
2175.46831667519	11125
2177.73099631672	10991
2179.99301800797	10986
2182.25438204772	11113
2184.51508873466	11069
2186.77513836735	11087
2189.03453124427	11169
2191.29326766378	11185
2193.55134792416	11078
2195.80877232355	11119
2198.06554116004	11241
2200.32165473157	11112
2202.577113336	11128
2204.83191727111	11206
2207.08606683453	11221
2209.33956232384	11217
2211.59240403648	11150
2213.84459226982	11078
2216.09612732112	11212
2218.34700948753	11073
2220.59723906612	11191
2222.84681635385	11155
2225.09574164758	11236
2227.34401524408	11238
2229.59163744002	11087
2231.83860853197	11121
2234.08492881639	11260
2236.33059858968	11170
2238.5756181481	11307
2240.81998778784	11228
2243.06370780499	11285
2245.30677849555	11290
2247.54920015539	11309
2249.79097308033	11194
2252.03209756607	11267
2254.27257390822	11146
2256.51240240228	11200
2258.75158334369	11131
2260.99011702777	11281
2263.22800374976	11237
2265.46524380477	11169
2267.70183748786	11206
2269.93778509399	11174
2272.17308691801	11266
2274.40774325467	11234
2276.64175439866	11106
2278.87512064454	11221
2281.10784228682	10984
2283.33991961987	11192
2285.571352938	11088
2287.80214253541	10922
2290.03228870623	11057
2292.26179174449	11134
2294.4906519441	11086
2296.71886959892	11097
2298.9464450027	11095
2301.1733784491	11021
2303.39967023169	10953
2305.62532064395	10989
2307.85032997926	10976
2310.07469853093	10957
2312.29842659216	10959
2314.52151445608	11048
2316.7439624157	10985
2318.96577076397	10947
2321.18693979374	10924
2323.40746979777	10761
2325.62736106873	10895
2327.8466138992	10839
2330.06522858166	10865
2332.28320540853	10887
2334.50054467212	10864
2336.71724666465	10794
2338.93331167827	10776
2341.14874000501	10894
2343.36353193685	10746
2345.57768776564	10621
2347.79120778319	10745
2350.00409228117	10590
2352.21634155121	10686
2354.42795588482	10474
2356.63893557342	10480
2358.84928090838	10535
2361.05899218094	10590
2363.26806968228	10528
2365.47651370347	10628
2367.68432453552	10479
2369.89150246933	10481
2372.09804779571	10407
2374.30396080541	10302
2376.50924178907	10424
2378.71389103725	10310
2380.91790884042	10395
2383.12129548897	10315
2385.3240512732	10257
2387.52617648332	10233
2389.72767140946	10248
2391.92853634165	10266
2394.12877156985	10164
2396.32837738392	10253
2398.52735407365	10355
2400.72570192873	10173
2402.92342123875	10048
2405.12051229325	10177
2407.31697538167	9979
2409.51281079333	10092
2411.70801881751	10064
2413.90259974339	10099
2416.09655386004	10032
2418.28988145648	9902
2420.48258282162	10095
2422.6746582443	10029
2424.86610801325	10078
2427.05693241713	9967
2429.24713174452	9968
2431.43670628389	9896
2433.62565632365	10024
2435.81398215212	9853
2438.00168405752	9868
2440.18876232799	9810
2442.37521725158	9771
2444.56104911628	9801
2446.74625820994	9793
2448.93084482038	9774
2451.1148092353	9709
2453.29815174233	9865
2455.480872629	9670
2457.66297218275	9628
2459.84445069097	9526
2462.02530844092	9617
2464.2055457198	9529
2466.38516281471	9507
2468.56416001267	9476
2470.74253760061	9411
2472.92029586537	9418
2475.09743509372	9426
2477.27395557232	9275
2479.44985758777	9407
2481.62514142655	9490
2483.79980737508	9313
2485.97385571969	9369
2488.14728674661	9190
2490.32010074198	9250
2492.49229799188	9283
2494.66387878228	9254
2496.83484339905	9298
2499.00519212802	9173
2501.17492525488	9254
2503.34404306528	9280
2505.51254584473	9225
2507.6804338787	9300
2509.84770745254	9186
2512.01436685153	9175
2514.18041236085	9172
2516.34584426561	9159
2518.51066285081	9341
2520.67486840138	9287
2522.83846120214	9229
2525.00144153784	9160
2527.16380969314	9202
2529.32556595261	9196
2531.48671060072	9207
2533.64724392186	9058
2535.80716620033	9204
2537.96647772034	9070
2540.12517876602	9031
2542.2832696214	9101
2544.44075057041	9037
2546.59762189691	9070
2548.75388388466	8929
2550.90953681735	8902
2553.06458097853	8901
2555.21901665172	8952
2557.37284412031	8979
2559.5260636676	8835
2561.67867557684	8891
2563.83068013113	8727
2565.98207761351	8870
2568.13286830695	8719
2570.28305249429	8744
2572.43263045829	8715
2574.58160248163	8725
2576.72996884689	8553
2578.87772983655	8509
2581.02488573303	8617
2583.1714368186	8598
2585.31738337549	8613
2587.46272568582	8632
2589.60746403161	8633
2591.75159869479	8487
2593.89512995722	8450
2596.03805810061	8485
2598.18038340665	8417
2600.32210615686	8448
2602.46322663274	8405
2604.60374511563	8369
2606.74366188683	8461
2608.88297722751	8417
2611.02169141875	8312
2613.15980474156	8333
2615.29731747681	8368
2617.43422990532	8463
2619.57054230779	8355
2621.70625496483	8422
2623.84136815694	8257
2625.97588216456	8387
2628.10979726799	8197
2630.24311374746	8313
2632.3758318831	8313
2634.50795195493	8164
2636.6394742429	8180
2638.77039902682	8274
2640.90072658645	8349
2643.0304572014	8398
2645.15959115123	8292
2647.28812871538	8266
2649.41607017319	8232
2651.5434158039	8232
2653.67016588665	8279
2655.79632070049	8275
2657.92188052436	8103
2660.04684563711	8145
2662.17121631749	8196
2664.29499284413	8239
2666.41817549558	8180
2668.54076455027	8048
2670.66276028656	8306
2672.78416298267	8134
2674.90497291675	8066
2677.02519036682	8086
2679.14481561082	8135
2681.26384892658	8187
2683.38229059182	8142
2685.50014088417	8036
2687.61740008114	8028
2689.73406846017	8097
2691.85014629854	8039
2693.96563387347	8118
2696.08053146206	8119
2698.1948393413	8007
2700.3085577881	8013
2702.42168707924	8115
2704.53422749139	8116
2706.64617930112	8057
2708.75754278492	8111
2710.86831821913	8056
2712.97850588002	8203
2715.08810604372	8120
2717.19711898628	8272
2719.30554498363	8273
2721.41338431158	8268
2723.52063724586	8096
2725.62730406206	8200
2727.73338503569	8035
2729.83888044213	8155
2731.94379055664	8124
2734.04811565441	8035
2736.15185601048	8037
2738.25501189979	8075
2740.35758359718	7877
2742.45957137738	7855
2744.56097551499	7943
2746.6617962845	7911
2748.7620339603	7775
2750.86168881666	7817
2752.96076112774	7828
2755.05925116758	7954
2757.15715921012	7848
2759.25448552917	7921
2761.35123039843	7676
2763.44739409148	7748
2765.5429768818	7772
2767.63797904275	7785
2769.73240084756	7812
2771.82624256934	7834
2773.91950448113	7729
2776.01218685579	7789
2778.10428996609	7679
2780.19581408469	7722
2782.28675948414	7850
2784.37712643683	7781
2786.46691521507	7621
2788.55612609104	7725
2790.64475933678	7774
2792.73281522425	7637
2794.82029402525	7695
2796.90719601149	7701
2798.99352145453	7673
2801.07927062583	7708
2803.16444379672	7607
2805.24904123841	7678
2807.33306322197	7701
2809.41651001838	7870
2811.49938189847	7800
2813.58167913296	7814
2815.66340199243	7890
2817.74455074734	7745
2819.82512566805	7897
2821.90512702475	7863
2823.98455508754	7940
2826.06341012637	8053
2828.14169241109	8161
2830.2194022114	8497
2832.29653979686	8776
2834.37310543694	9221
2836.44909940096	9763
2838.5245219581	10577
2840.59937337744	11535
2842.67365392791	12570
2844.74736387829	13329
2846.82050349727	13635
2848.8930730534	13584
2850.96507281506	12922
2853.03650305056	12510
2855.10736402802	11969
2857.17765601545	11652
2859.24737928074	11258
2861.31653409164	11058
2863.38512071574	10749
2865.45313942054	10858
2867.52059047335	10571
2869.58747414139	10920
2871.65379069173	10890
2873.7195403913	11262
2875.78472350688	11740
2877.84934030515	12861
2879.91339105262	13940
2881.97687601567	13625
2884.03979546053	12602
2886.10214965332	11738
2888.16393886	11474
2890.22516334639	11377
2892.28582337816	11019
2894.34591922087	11092
2896.40545113992	11034
2898.46441940054	11032
2900.52282426787	10760
2902.58066600687	10672
2904.63794488237	10529
2906.69466115906	10326
2908.75081510147	10169
2910.806406974	10187
2912.8614370409	10005
2914.91590556626	9959
2916.96981281404	9935
2919.02315904807	9882
2921.07594453199	9817
2923.12816952932	9781
2925.17983430343	9793
2927.23093911753	9713
2929.28148423469	9671
2931.33146991782	9529
2933.3808964297	9366
2935.42976403294	9296
2937.47807299	9197
2939.5258235632	8806
2941.57301601469	8783
2943.61965060648	8595
2945.66572760042	8395
2947.71124725823	8314
2949.75620984143	8199
2951.80061561143	8199
2953.84446482945	8159
2955.88775775656	8161
2957.9304946537	8028
2959.97267578162	8070
2962.01430140095	8050
2964.05537177211	7935
2966.09588715541	8004
2968.13584781097	8044
2970.17525399875	8041
2972.21410597859	7995
2974.25240401011	8061
2976.29014835283	8088
2978.32733926604	8049
2980.36397700892	7981
2982.40006184049	8031
2984.43559401955	7995
2986.4705738048	8139
2988.50500145473	8105
2990.53887722771	8077
2992.57220138189	8117
2994.6049741753	8100
2996.63719586576	8204
2998.66886671097	8172
3000.69998696843	8082
3002.73055689549	8187
3004.7605767493	8195
3006.79004678688	8222
3008.81896726505	8075
3010.84733844048	8087
3012.87516056966	8173
3014.9024339089	8260
3016.92915871433	8271
3018.95533524196	8218
3020.98096374756	8275
3023.00604448675	8351
3025.030577715	8332
3027.05456368757	8348
3029.07800265956	8388
3031.10089488589	8354
3033.12324062131	8414
3035.14504012038	8455
3037.16629363749	8349
3039.18700142685	8426
3041.20716374249	8339
3043.22678083826	8329
3045.24585296782	8356
3047.26438038468	8367
3049.28236334212	8328
3051.29980209329	8494
3053.31669689111	8329
3055.33304798835	8457
3057.34885563757	8376
3059.36412009117	8435
3061.37884160134	8350
3063.39302042011	8483
3065.40665679931	8429
3067.41975099058	8433
3069.43230324538	8506
3071.44431381495	8474
3073.45578295041	8344
3075.46671090261	8385
3077.47709792227	8468
3079.48694425989	8309
3081.49625016578	8575
3083.50501589008	8458
3085.5132416827	8540
3087.5209277934	8552
3089.52807447169	8469
3091.53468196695	8488
3093.54075052832	8367
3095.54628040476	8439
3097.55127184503	8492
3099.55572509769	8567
3101.55964041111	8511
3103.56301803346	8448
3105.5658582127	8491
3107.56816119661	8539
3109.56992723275	8480
3111.57115656849	8661
3113.571849451	8430
3115.57200612724	8605
3117.57162684397	8460
3119.57071184775	8703
3121.56926138493	8601
3123.56727570166	8618
3125.56475504389	8679
3127.56169965735	8550
3129.55810978757	8612
3131.55398567987	8659
3133.54932757937	8602
3135.54413573099	8743
3137.53841037939	8665
3139.53215176909	8743
3141.52536014435	8789
3143.51803574924	8693
3145.51017882762	8635
3147.50178962311	8861
3149.49286837916	8827
3151.48341533897	8698
3153.47343074553	8924
3155.46291484164	8918
3157.45186786985	8806
3159.44029007252	8738
3161.42818169179	8810
3163.41554296955	8828
3165.40237414753	8949
3167.38867546718	8904
3169.37444716975	8722
3171.35968949631	8874
3173.34440268764	8866
3175.32858698436	8938
3177.31224262682	8990
3179.29536985517	8902
3181.27796890934	8917
3183.26004002902	8837
3185.24158345368	8885
3187.22259942256	8961
3189.2030881747	8912
3191.18304994886	9048
3193.16248498363	8944
3195.14139351733	8937
3197.11977578807	8991
3199.09763203371	9105
3201.07496249191	9014
3203.05176740007	8898
3205.02804699537	8960
3207.00380151475	9088
3208.97903119493	9079
3210.95373627238	9144
3212.92791698335	9072
3214.90157356383	8969
3216.8747062496	9079
3218.84731527619	9067
3220.81940087889	9064
3222.79096329275	9200
3224.76200275259	9142
3226.73251949298	9077
3228.70251374825	9204
3230.67198575251	9214
3232.64093573959	9292
3234.6093639431	9217
3236.57727059641	9382
3238.54465593261	9457
3240.51152018461	9221
3242.47786358502	9247
3244.44368636621	9408
3246.40898876031	9280
3248.37377099923	9395
3250.33803331458	9390
3252.30177593775	9368
3254.26499909987	9482
3256.22770303184	9495
3258.18988796427	9440
3260.15155412755	9469
3262.1127017518	9316
3264.0733310669	9378
3266.03344230246	9486
3267.99303568784	9549
3269.95211145215	9481
3271.91066982422	9495
3273.86871103267	9562
3275.82623530581	9578
3277.7832428717	9616
3279.73973395818	9441
3281.69570879278	9507
3283.6511676028	9532
3285.60611061527	9585
3287.56053805694	9570
3289.51445015432	9612
3291.46784713364	9562
3293.42072922088	9544
3295.37309664173	9585
3297.32494962163	9504
3299.27628838575	9522
3301.227113159	9659
3303.17742416601	9565
3305.12722163114	9548
3307.07650577848	9520
3309.02527683185	9546
3310.9735350148	9564
3312.9212805506	9718
3314.86851366225	9615
3316.81523457249	9653
3318.76144350377	9699
3320.70714067825	9718
3322.65232631783	9537
3324.59700064415	9620
3326.54116387854	9702
3328.48481624207	9612
3330.42795795551	9700
3332.37058923938	9488
3334.31271031389	9579
3336.25432139898	9527
3338.19542271432	9636
3340.13601447927	9608
3342.07609691292	9604
3344.01567023407	9520
3345.95473466124	9530
3347.89329041266	9654
3349.83133770627	9689
3351.76887675973	9553
3353.70590779039	9537
3355.64243101534	9631
3357.57844665135	9599
3359.51395491492	9664
3361.44895602224	9583
3363.38345018922	9593
3365.31743763148	9573
3367.25091856432	9585
3369.18389320278	9559
3371.11636176156	9661
3373.0483244551	9661
3374.97978149754	9847
3376.91073310269	9478
3378.84117948409	9672
3380.77112085498	9633
3382.70055742826	9670
3384.62948941659	9695
3386.55791703227	9710
3388.48584048733	9788
3390.41325999348	9684
3392.34017576214	9729
3394.2665880044	9729
3396.19249693107	9686
3398.11790275263	9669
3400.04280567926	9743
3401.96720592084	9799
3403.89110368692	9741
3405.81449918675	9773
3407.73739262928	9776
3409.65978422311	9766
3411.58167417658	9677
3413.50306269768	9845
3415.42394999408	9819
3417.34433627316	9854
3419.26422174195	9778
3421.18360660721	9782
3423.10249107532	9737
3425.02087535239	9628
3426.93875964421	9757
3428.8561441562	9662
3430.77302909353	9737
3432.68941466097	9815
3434.60530106301	9819
3436.52068850383	9782
3438.43557718726	9802
3440.34996731681	9800
3442.26385909565	9642
3444.17725272664	9617
3446.09014841231	9741
3448.00254635486	9750
3449.91444675614	9683
3451.82584981771	9697
3453.73675574076	9648
3455.64716472616	9667
3457.55707697445	9573
3459.46649268584	9571
3461.37541206018	9614
3463.28383529703	9696
3465.19176259555	9603
3467.09919415464	9611
3469.00613017278	9636
3470.91257084817	9670
3472.81851637863	9538
3474.72396696168	9533
3476.62892279446	9511
3478.53338407379	9666
3480.43735099614	9558
3482.34082375764	9569
3484.24380255404	9592
3486.1462875808	9687
3488.048279033	9682
3489.94977710537	9654
3491.85078199231	9531
3493.75129388783	9643
3495.65131298566	9558
3497.5508394791	9581
3499.44987356115	9618