201.866871357053	2801.5
204.754250281456	2785.75
207.640596790939	2764.25
210.525911876301	2806.75
213.41019652569	2804
216.293451724511	2807
219.175678455486	2790.25
222.056877698663	2812.75
224.937050431391	2817.75
227.816197628365	2832.5
230.694320261604	2825
233.571419300504	2844.75
236.447495711765	2839.75
239.322550459507	2866.5
242.196584505184	2877.5
245.069598807628	2881
247.94159432308	2887.75
250.812572005157	2911
253.682532804885	2907
256.551477670701	2894.25
259.419407548458	2887.5
262.286323381442	2889.25
265.152226110364	2927.25
268.017116673389	2936.5
270.880996006118	2906.75
273.743865041624	2956.25
276.605724710438	2898.5
279.466575940565	2918.25
282.326419657499	2951.25
285.185256784201	2949.5
288.04308824116	2959.5
290.899914946356	2947.75
293.75573781526	2967.75
296.610557760899	2944
299.464375693819	2971.75
302.317192522079	2965.25
305.169009151297	2975.25
308.019826484655	2988.25
310.869645422872	2997
313.718466864235	2950.5
316.566291704615	2987.25
319.41312083746	2977
322.258955153805	2993
325.103795542294	2949.25
327.947642889129	2969.25
330.79049807819	3000.5
333.63236199093	2998
336.473235506447	3008.75
339.313119501453	2999.5
342.152014850323	2956.25
344.989922425064	3014.75
347.826843095356	3029
350.662777728529	2992.5
353.497727189577	3037
356.331692341196	3057
359.164674043732	3078
361.996673155267	3078.75
364.827690531538	3096.5
367.657727026021	3049
370.486783489887	3073.75
373.314860772046	3061
376.14195971912	3094.5
378.968081175469	3100.75
381.793225983214	3079.5
384.617394982201	3080.25
387.44058901005	3099
390.262808902134	3106.5
393.084055491614	3138.75
395.904329609395	3166.5
398.723632084216	3149.25
401.541963742572	3162.5
404.359325408781	3149.75
407.17571790494	3135.5
409.991142050985	3123
412.805598664665	3164.5
415.619088561551	3131.5
418.431612555051	3125
421.243171456419	3126
424.05376607476	3145.5
426.86339721702	3146
429.672065688025	3125
432.479772290455	3208.25
435.28651782488	3136.75
438.092303089737	3205.75
440.897128881362	3193.5
443.700995993992	3190.75
446.503905219761	3227
449.305857348711	3212.5
452.106853168798	3200.5
454.906893465921	3193.25
457.705979023886	3219.5
460.504110624441	3235.5
463.301289047302	3183.25
466.09751507009	3204.5
468.892789468424	3196
471.687113015869	3177.75
474.480486483952	3185
477.272910642201	3168.75
480.064386258111	3179.25
482.854914097161	3167.25
485.644494922841	3196.5
488.433129496637	3226.75
491.22081857805	3225.25
494.007562924587	3246.5
496.793363291787	3264
499.578220433219	3289
502.362135100475	3254.5
505.145108043209	3288
507.927140009101	3273.25
510.70823174391	3288
513.488383991435	3300.75
516.267597493556	3291.25
519.045872990221	3326.25
521.823211219462	3297
524.5996129174	3333
527.375078818234	3320.5
530.149609654287	3320.75
532.923206155968	3305.25
535.695869051803	3285.5
538.46759906845	3260
541.238396930667	3297.5
544.008263361365	3266
546.777199081581	3259.75
549.545204810496	3300.75
552.312281265439	3266.5
555.078429161901	3302.75
557.843649213536	3300
560.607942132158	3296.75
563.371308627753	3284.75
566.133749408497	3326
568.895265180758	3307
571.655856649067	3311.5
574.415524516192	3316.5
577.174269483075	3342.5
579.932092248886	3368
582.688993510996	3380.5
585.444973965024	3341.25
588.200034304796	3377.75
590.954175222372	3379.75
593.707397408072	3362.75
596.459701550436	3396.75
599.211088336284	3377.75
601.961558450671	3376.75
604.711112576934	3368.5
607.459751396673	3367.5
610.207475589751	3344.5
612.954285834339	3376.5
615.70018280688	3339.75
618.445167182103	3360.75
621.189239633057	3291
623.932400831087	3361.75
626.674651445839	3358.75
629.415992145303	3321.25
632.156423595745	3321.75
634.895946461815	3321.25
637.634561406448	3343
640.372269090962	3353.25
643.109070174981	3339.5
645.84496531651	3370.25
648.579955171891	3358
651.314040395848	3365
654.047221641459	3339.25
656.779499560178	3354
659.510874801831	3359.25
662.241348014646	3369.5
664.970919845243	3379.25
667.699590938608	3423.25
670.427361938164	3398.75
673.154233485732	3376
675.880206221526	3373
678.605280784208	3417.5
681.329457810832	3401.75
684.052737936921	3368.25
686.77512179639	3447.75
689.496610021632	3388.75
692.217203243456	3362.75
694.936902091147	3368.5
697.655707192428	3365.75
700.373619173495	3372.75
703.090638659013	3388.25
705.806766272093	3382.5
708.522002634379	3389.5
711.236348365948	3361.75
713.949804085381	3379.5
716.662370409764	3370.25
719.374047954676	3370.25
722.084837334191	3369.5
724.79473916091	3361.5
727.50375404595	3353
730.21188259892	3415.25
732.919125427998	3418.25
735.625483139858	3418.25
738.330956339726	3388.75
741.035545631373	3418.5
743.739251617109	3422.25
746.44207489779	3406.25
749.144016072856	3463
751.845075740273	3458.75
754.545254496604	3450.5
757.244552936979	3443
759.942971655083	3453
762.640511243225	3440.25
765.337172292252	3472
768.032955391651	3452.25
770.727861129485	3489.75
773.421890092416	3456
776.11504286572	3494.25
778.807320033299	3478
781.49872217765	3480
784.189249879911	3436.5
786.87890371984	3408.75
789.567684275826	3448
792.255592124909	3442.25
794.942627842762	3437.5
797.628792003709	3452.75
800.314085180718	3440.25
802.998507945429	3557.25
805.682060868145	3610.25
808.364744517821	3673
811.046559462106	3648.25
813.727506267312	3550.5
816.407585498422	3523.25
819.086797719131	3493.5
821.765143491823	3484.75
824.442623377565	3509
827.119237936129	3504.5
829.794987726006	3494.5
832.469873304377	3544.75
835.143895227169	3511.25
837.817054048985	3543
840.489350323206	3555.5
843.160784601894	3551.75
845.831357435894	3517.75
848.501069374742	3529.5
851.169920966756	3502.25
853.837912758989	3549.25
856.505045297233	3493
859.171319126073	3524
861.836734788825	3476
864.501292827581	3537.75
867.164993783208	3466.75
869.827838195363	3457.25
872.489826602455	3490
875.150959541702	3519.25
877.811237549104	3472
880.470661159458	3515.75
883.129230906359	3477
885.786947322208	3454.75
888.443810938208	3488.25
891.099822284387	3460.75
893.754981889586	3501.5
896.409290281453	3475.5
899.062747986487	3496.75
901.715355530001	3496.75
904.367113436154	3499.75
907.018022227933	3512.5
909.668082427173	3514
912.317294554575	3507.25
914.965659129661	3533.5
917.613176670838	3532.5
920.259847695365	3513.5
922.90567271936	3538.5
925.550652257826	3501.25
928.194786824624	3499.5
930.838076932514	3518
933.480523093111	3521
936.122125816956	3567.25
938.762885613448	3543
941.402802990899	3536
944.041878456524	3555.5
946.680112516429	3557.75
949.317505675633	3511.5
951.954058438084	3527
954.589771306634	3538.5
957.224644783051	3582.25
959.858679368047	3559
962.491875561238	3556.5
965.124233861212	3573.5
967.755754765453	3606.25
970.386438770423	3672.25
973.016286371502	3693.25
975.645298063046	3607
978.273474338357	3624.5
980.900815689675	3579.5
983.527322608245	3562.5
986.152995584248	3530.25
988.777835106835	3542.5
991.401841664151	3567
994.025015743307	3519
996.64735783041	3565
999.268868410535	3570.75
1001.88954796777	3540.75
1004.50939698518	3539.5
1007.12841594484	3553.75
1009.74660532783	3569.25
1012.36396561423	3611.25
1014.98049728314	3552.75
1017.59620081267	3564.25
1020.21107667995	3596.25
1022.82512536112	3610.25
1025.43834733138	3597
1028.05074306492	3551.5
1030.66231303501	3611
1033.27305771392	3628.75
1035.88297757299	3608.75
1038.49207308257	3587.25
1041.10034471211	3588.25
1043.70779293008	3635.5
1046.31441820402	3635.25
1048.92022100052	3591
1051.52520178525	3639.5
1054.12936102295	3656.5
1056.73269917742	3669.5
1059.33521671154	3670.75
1061.93691408729	3640.5
1064.53779176572	3624.25
1067.13785020694	3638.25
1069.73708987022	3633.5
1072.33551121386	3613.75
1074.93311469528	3596.75
1077.52990077103	3614
1080.12586989674	3586.75
1082.72102252715	3595.25
1085.31535911612	3621
1087.90888011663	3637.25
1090.50158598078	3602.5
1093.09347715979	3595.25
1095.68455410403	3612.5
1098.27481726296	3582.75
1100.86426708523	3629.75
1103.45290401857	3625.75
1106.04072850991	3600.75
1108.6277410053	3580.5
1111.21394194993	3601.5
1113.79933178816	3631.25
1116.3839109635	3651.25
1118.96767991862	3652.25
1121.55063909539	3636.25
1124.13278893477	3731.25
1126.71412987696	3689.75
1129.29466236132	3708.25
1131.87438682637	3735.75
1134.45330370982	3696.25
1137.03141344858	3727.5
1139.60871647873	3714.5
1142.18521323554	3689.75
1144.7609041535	3719.25
1147.33578966629	3792.25
1149.90987020677	3811.25
1152.48314620702	3805.75
1155.05561809835	3785
1157.62728631126	3771.5
1160.19815127545	3799
1162.76821341988	3804.5
1165.33747317271	3849.25
1167.90593096133	3882
1170.47358721235	3802.5
1173.04044235163	3846
1175.60649680425	3782
1178.17175099454	3726.75
1180.73620534607	3750
1183.29986028165	3678.5
1185.86271622336	3710.25
1188.42477359249	3691
1190.98603280964	3716.25
1193.54649429462	3679.75
1196.10615846653	3716.25
1198.66502574373	3697
1201.22309654385	3708.75
1203.78037128379	3720
1206.33685037971	3700.25
1208.89253424709	3693.75
1211.44742330063	3714.75
1214.00151795439	3714
1216.55481862163	3750.75
1219.10732571498	3702
1221.65903964631	3779.5
1224.20996082683	3730
1226.760089667	3717
1229.30942657664	3750
1231.85797196483	3778
1234.40572623998	3731
1236.95268980981	3758
1239.49886308136	3779.75
1242.04424646099	3775.25
1244.58884035435	3847
1247.13264516647	3868
1249.67566130166	3897
1252.21788916359	3885.25
1254.75932915524	3939.5
1257.29998167896	3940.25
1259.8398471364	3892.5
1262.37892592858	3940.75
1264.91721845586	3878
1267.45472511795	3917.25
1269.9914463139	3929.75
1272.52738244213	3916.75
1275.06253390041	3862
1277.59690108587	3946
1280.130484395	3906.75
1282.66328422368	3903
1285.19530096712	3913.75
1287.72653501993	4004.75
1290.25698677609	3978.75
1292.78665662895	4054.25
1295.31554497125	4053.5
1297.84365219511	3994.75
1300.37097869203	3987.25
1302.89752485292	4018.5
1305.42329106806	3990.25
1307.94827772713	4036.5
1310.47248521921	4023.25
1312.99591393279	4062.25
1315.51856425575	4011.75
1318.04043657537	4026.25
1320.56153127836	4047.5
1323.08184875083	4079.75
1325.6013893783	4121.5
1328.12015354572	4167
1330.63814163744	4221.5
1333.15535403727	4214.75
1335.67179112839	4220
1338.18745329347	4176.75
1340.70234091455	4197.5
1343.21645437314	4168.25
1345.72979405019	4210
1348.24236032607	4263.25
1350.75415358059	4274.75
1353.26517419303	4281.5
1355.7754225421	4276.25
1358.28489900594	4327
1360.79360396218	4360.75
1363.30153778788	4339.75
1365.80870085955	4308
1368.31509355319	4347
1370.82071624425	4331.5
1373.32556930762	4336.5
1375.8296531177	4356.5
1378.33296804833	4320.25
1380.83551447282	4344.5
1383.33729276399	4309.25
1385.83830329408	4324.75
1388.33854643489	4393.75
1390.83802255762	4360
1393.33673203302	4369.25
1395.83467523128	4416
1398.33185252212	4454.75
1400.82826427472	4407.25
1403.32391085777	4412.75
1405.81879263948	4405.75
1408.31290998752	4418
1410.80626326908	4391.5
1413.29885285087	4372.75
1415.79067909909	4424
1418.28174237944	4481.75
1420.77204305717	4417.5
1423.26158149702	4447.5
1425.75035806323	4471.5
1428.2383731196	4478.5
1430.72562702943	4524.75
1433.21212015554	4579.25
1435.69785286029	4638.75
1438.18282550555	4669.75
1440.66703845276	4695
1443.15049206284	4697.5
1445.6331866963	4726
1448.11512271316	4738
1450.59630047298	4810
1453.07672033486	4838.5
1455.55638265748	4831.75
1458.03528779902	4914.75
1460.51343611725	4931.5
1462.99082796946	4917.5
1465.46746371252	4866.75
1467.94334370285	4884.5
1470.41846829642	4834.75
1472.89283784878	4846.75
1475.36645271503	4892
1477.83931324984	4908.25
1480.31141980743	4961.25
1482.78277274164	4959
1485.25337240583	4916.75
1487.72321915297	4890.25
1490.19231333557	4917.25
1492.66065530577	4941.75
1495.12824541525	4943.25
1497.5950840153	4996.25
1500.06117145678	4958.5
1502.52650809014	4979.25
1504.99109426543	4974.75
1507.45493033228	5034.25
1509.91801663992	5013.5
1512.38035353717	5093.5
1514.84194137248	5112
1517.30278049386	5151
1519.76287124895	5177.5
1522.22221398497	5172
1524.68080904877	5161
1527.13865678681	5227.75
1529.59575754514	5237.5
1532.05211166946	5292
1534.50771950503	5236.75
1536.96258139678	5361.25
1539.41669768925	5327.25
1541.87006872656	5311.25
1544.32269485252	5415.5
1546.77457641051	5382.5
1549.22571374357	5500.5
1551.67610719434	5465.75
1554.12575710513	5551.5
1556.57466381786	5515
1559.02282767408	5509
1561.470249015	5611.25
1563.91692818144	5615.25
1566.3628655139	5646.75
1568.80806135249	5669.75
1571.252516037	5689.5
1573.6962299068	5750
1576.139203301	5753.75
1578.58143655828	5797.5
1581.02293001704	5835.5
1583.46368401528	5857.25
1585.90369889071	5887.75
1588.34297498065	6005.25
1590.7815126221	6025.25
1593.21931215174	6167.5
1595.65637390588	6252
1598.09269822053	6251.25
1600.52828543135	6289.75
1602.96313587367	6169
1605.3972498825	6079.5
1607.83062779252	6033.25
1610.26326993808	6039
1612.69517665322	6001.5
1615.12634827165	6079.75
1617.55678512676	5967
1619.98648755164	6020.75
1622.41545587903	5989.25
1624.84369044138	5973.75
1627.27119157085	6005.75
1629.69795959924	6041.75
1632.12399485809	6063.25
1634.54929767859	6080
1636.97386839165	6097.75
1639.39770732789	6079.5
1641.8208148176	6077.75
1644.24319119078	6107.75
1646.66483677715	6169
1649.08575190611	6194.75
1651.50593690677	6188
1653.92539210795	6274
1656.3441178382	6256
1658.76211442575	6303.25
1661.17938219855	6328
1663.59592148428	6355
1666.01173261033	6359.5
1668.42681590377	6433.25
1670.84117169145	6380.75
1673.25480029991	6430.75
1675.66770205541	6458.5
1678.07987728393	6494.75
1680.49132631119	6600
1682.90204946263	6576.75
1685.31204706342	6610.25
1687.72131943847	6624.5
1690.1298669124	6661.5
1692.53768980957	6679
1694.94478845411	6694
1697.35116316982	6706.25
1699.75681428031	6683
1702.16174210887	6716.25
1704.56594697858	6712.25
1706.96942921222	6770.75
1709.37218913235	6747.5
1711.77422706126	6779
1714.17554332098	6740.75
1716.57613823331	6848.5
1718.97601211977	6754.75
1721.37516530169	6790.75
1723.77359810006	6769.75
1726.17131083573	6758
1728.56830382922	6807.25
1730.96457740087	6819.75
1733.36013187075	6736.5
1735.75496755868	6790
1738.14908478428	6827.75
1740.54248386689	6862.75
1742.93516512566	6821
1745.32712887946	6855.75
1747.71837544697	6888
1750.10890514662	6907
1752.49871829661	6905.5
1754.88781521492	6939.5
1757.27619621929	6927.25
1759.66386162726	6988.5
1762.05081175613	6992.5
1764.43704692297	7050
1766.82256744465	7062.5
1769.20737363782	7058
1771.59146581888	7056.75
1773.97484430405	7094.75
1776.35750940932	7184.75
1778.73946145048	7175.25
1781.12070074309	7171.5
1783.50122760249	7245.75
1785.88104234385	7271
1788.26014528209	7229.5
1790.63853673197	7254.5
1793.01621700796	7286.5
1795.39318642444	7353.25
1797.76944529549	7381.25
1800.14499393504	7379
1802.51983265681	7333.5
1804.8939617743	7413.75
1807.26738160085	7453.75
1809.64009244957	7407.25
1812.01209463339	7399
1814.38338846504	7501.5
1816.75397425706	7500.75
1819.12385232181	7498.5
1821.49302297142	7572
1823.86148651789	7509.25
1826.22924327299	7554.25
1828.59629354831	7603.75
1830.96263765526	7587.75
1833.32827590507	7629.25
1835.69320860877	7598.25
1838.05743607724	7658.25
1840.42095862113	7695.5
1842.78377655097	7683
1845.14589017707	7658
1847.50729980956	7649.25
1849.86800575843	7703
1852.22800833346	7732.5
1854.58730784427	7718.5
1856.94590460032	7797.75
1859.30379891087	7734.75
1861.66099108503	7750.75
1864.01748143175	7842.25
1866.37327025978	7827
1868.72835787773	7831.75
1871.08274459404	7929.75
1873.43643071697	7861.75
1875.78941655464	7969.75
1878.14170241499	7951
1880.4932886058	7983.25
1882.84417543469	8077.5
1885.19436320915	8065.25
1887.54385223646	8077
1889.89264282378	8119.25
1892.24073527809	8131.25
1894.58812990625	8159
1896.93482701494	8261.25
1899.28082691067	8257.5
1901.62612989985	8316.75
1903.97073628868	8332.75
1906.31464638326	8337.5
1908.6578604895	8392.75
1911.00037891321	8464.25
1913.34220196001	8491.5
1915.68332993538	8450
1918.02376314468	8521.75
1920.36350189311	8493.5
1922.70254648573	8498.5
1925.04089722744	8460.75
1927.37855442304	8517
1929.71551837715	8538
1932.05178939427	8502.75
1934.38736777876	8518.25
1936.72225383484	8559
1939.0564478666	8695
1941.38995017799	8564
1943.72276107283	8664.75
1946.05488085479	8603.75
1948.38630982744	8529.75
1950.71704829419	8628.25
1953.04709655832	8532.75
1955.376454923	8582.75
1957.70512369126	8574
1960.03310316599	8611
1962.36039364999	8570.75
1964.68699544589	8555.5
1967.01290885622	8645.25
1969.33813418338	8606.5
1971.66267172965	8727.5
1973.98652179718	8736.75
1976.309684688	8729.5
1978.63216070402	8669.25
1980.95395014705	8844.5
1983.27505331873	8696.75
1985.59547052064	8843.5
1987.9152020542	8852.5
1990.23424822074	8813.75
1992.55260932146	8857.25
1994.87028565746	8839.25
1997.18727752968	8872
1999.50358523901	8931
2001.81920908618	8914
2004.13414937184	9019.25
2006.44840639651	9098
2008.7619804606	9082.75
2011.07487186442	9072
2013.38708090815	9179
2015.6986078919	9129.75
2018.00945311564	9154.75
2020.31961687924	9155
2022.62909948247	9255.25
2024.93790122499	9275
2027.24602240636	9312.75
2029.55346332604	9336.25
2031.86022428337	9388
2034.16630557761	9389.25
2036.47170750791	9455.25
2038.77643037331	9397
2041.08047447275	9413
2043.38384010509	9407
2045.68652756907	9408.75
2047.98853716335	9422
2050.28986918648	9450
2052.59052393692	9478
2054.89050171302	9511.75
2057.18980281307	9506
2059.4884275352	9504
2061.78637617753	9484.75
2064.08364903802	9511
2066.38024641457	9524.5
2068.67616860497	9492.75
2070.97141590694	9550.75
2073.26598861809	9534
2075.55988703595	9552.5
2077.85311145796	9519.25
2080.14566218145	9538
2082.43753950371	9582.5
2084.72874372188	9587
2087.01927513307	9588.75
2089.30913403428	9619.5
2091.59832072241	9603.75
2093.88683549429	9576.75
2096.17467864666	9537.75
2098.46185047619	9609
2100.74835127944	9682.5
2103.03418135292	9732
2105.31934099303	9675.75
2107.6038304961	9708.25
2109.88765015838	9755.5
2112.17080027602	9671.75
2114.45328114513	9809.5
2116.7350930617	9846
2119.01623632165	9833.75
2121.29671122085	9725.5
2123.57651805505	9845.25
2125.85565711996	9888.75
2128.13412871117	9870.25
2130.41193312424	9924.75
2132.68907065462	9956.75
2134.96554159771	9964.5
2137.24134624881	9954.25
2139.51648490317	10052.25
2141.79095785594	9989.25
2144.0647654022	10066
2146.33790783698	10081.25
2148.61038545524	10004.75
2150.88219855182	10089.25
2153.15334742154	10123.25
2155.42383235911	10194.5
2157.69365365921	10146.25
2159.9628116164	10069.25
2162.23130652522	10103.5
2164.49913868011	10115
2166.76630837544	10122.25
2169.03281590553	10108.25
2171.29866156461	10054.25
2173.56384564685	10099.75
2175.82836844637	10065.25
2178.0922302572	10094
2180.35543137332	10061.25
2182.61797208862	10102.75
2184.87985269695	10056
2187.14107349208	10036
2189.40163476773	10025.75
2191.66153681753	10039
2193.92077993507	10057
2196.17936441386	10034.75
2198.43729054735	10074.5
2200.69455862894	10010
2202.95116895194	10002.5
2205.20712180963	9983.5
2207.4624174952	9945.25
2209.71705630179	9949.5
2211.97103852248	9946.25
2214.22436445031	9977.75
2216.47703437819	9942.25
2218.72904859905	9916.25
2220.98040740571	10015
2223.23111109096	9965
2225.4811599475	9960.5
2227.730554268	9980.75
2229.97929434505	9931.5
2232.22738047118	9860
2234.47481293889	9848.25
2236.72159204058	9937.75
2238.96771806864	9999.5
2241.21319131537	9908.5
2243.458012073	9846
2245.70218063374	9932.5
2247.94569728973	9970
2250.18856233304	9858.25
2252.4307760557	9857.5
2254.67233874967	9891
2256.91325070687	9886
2259.15351221915	9813
2261.39312357831	9778.75
2263.63208507611	9779.75
2265.87039700422	9756.75
2268.1080596543	9872.25
2270.34507331792	9815.5
2272.5814382866	9751.5
2274.81715485183	9849
2277.05222330502	9808.75
2279.28664393755	9793.75
2281.52041704073	9702.5
2283.75354290581	9754.75
2285.98602182401	9785.75
2288.21785408649	9749.75
2290.44903998434	9736.25
2292.67957980862	9754.5
2294.90947385033	9703.5
2297.1387224004	9647
2299.36732574976	9694
2301.59528418921	9685.25
2303.82259800958	9657.75
2306.04926750158	9648.25
2308.27529295593	9548.75
2310.50067466325	9607.75
2312.72541291412	9566.5
2314.9495079991	9585.75
2317.17296020866	9544.5
2319.39576983324	9522.5
2321.61793716322	9505
2323.83946248895	9496
2326.0603461007	9534
2328.28058828871	9517.25
2330.50018934317	9472.25
2332.7191495542	9481
2334.93746921192	9456
2337.15514860633	9364
2339.37218802743	9370
2341.58858776516	9315.5
2343.80434810941	9352.75
2346.01946935001	9349
2348.23395177676	9306.25
2350.44779567939	9330
2352.66100134759	9288.5
2354.87356907102	9351.5
2357.08549913925	9286.25
2359.29679184185	9246
2361.50744746829	9343.75
2363.71746630804	9236.5
2365.92684865049	9170.75
2368.13559478499	9205.25
2370.34370500083	9262.5
2372.55117958727	9234.75
2374.75801883353	9085
2376.96422302874	9088.25
2379.16979246202	9099.25
2381.37472742244	9125.5
2383.57902819898	9046.75
2385.78269508063	9024.75
2387.98572835629	9053.25
2390.18812831482	9011.25
2392.38989524505	8985.5
2394.59102943573	8995
2396.79153117559	8968.25
2398.9914007533	8951.25
2401.19063845748	8961
2403.38924457672	8899
2405.58721939951	8911
2407.78456321435	8882
2409.98127630966	8923.25
2412.17735897383	8912.5
2414.37281149518	8851.75
2416.56763416198	8908
2418.76182726249	8929.75
2420.95539108487	8845.75
2423.14832591726	8819
2425.34063204776	8792.5
2427.53230976439	8832.75
2429.72335935513	8785.5
2431.91378110795	8781.5
2434.10357531071	8785.75
2436.29274225126	8780.5
2438.48128221739	8664.5
2440.66919549684	8754.25
2442.8564823773	8735.25
2445.04314314641	8635.25
2447.22917809176	8638
2449.4145875009	8729
2451.59937166131	8692.75
2453.78353086044	8628.75
2455.96706538567	8655.25
2458.14997552437	8618
2460.33226156379	8599.75
2462.51392379119	8603.5
2464.69496249376	8523
2466.87537795862	8581.5
2469.05517047288	8437.5
2471.23434032358	8452.75
2473.41288779767	8542.25
2475.59081318212	8466.75
2477.76811676378	8448
2479.9447988295	8455.75
2482.12085966605	8329.5
2484.29629956016	8363
2486.4711187985	8424.75
2488.64531766769	8417.5
2490.8188964543	8431
2492.99185544484	8373.25
2495.16419492579	8383.5
2497.33591518353	8312.25
2499.50701650444	8288.25
2501.67749917482	8370.25
2503.84736348091	8292.75
2506.01660970891	8289
2508.18523814496	8274.25
2510.35324907515	8289
2512.52064278551	8319.5
2514.68741956201	8271.25
2516.85357969058	8365.75
2519.01912345709	8338.25
2521.18405114735	8323.75
2523.34836304711	8250.25
2525.51205944209	8332.5
2527.6751406179	8211.75
2529.83760686016	8290.75
2531.99945845439	8244.5
2534.16069568607	8232.75
2536.3213188406	8247.75
2538.48132820336	8177.5
2540.64072405965	8220
2542.79950669471	8202.75
2544.95767639373	8181.75
2547.11523344184	8219.5
2549.27217812411	8196.5
2551.42851072555	8185.5
2553.58423153111	8164
2555.7393408257	8149.5
2557.89383889413	8135.5
2560.04772602119	8164.75
2562.20100249158	8085.25
2564.35366858996	8042.5
2566.50572460093	8103
2568.65717080901	8009.5
2570.80800749867	8083.5
2572.95823495433	8095.5
2575.10785346031	8029.5
2577.25686330093	7968
2579.40526476038	7838.75
2581.55305812282	7971
2583.70024367237	7819.5
2585.84682169303	7873.75
2587.99279246879	7918.5
2590.13815628354	7878.75
2592.28291342112	7873.25
2594.42706416531	7881.5
2596.57060879981	7886
2598.71354760826	7913.25
2600.85588087425	7907.5
2602.99760888127	7864
2605.13873191278	7822.5
2607.27925025215	7791
2609.41916418269	7846
2611.55847398764	7802
2613.69717995017	7796
2615.8352823534	7819
2617.97278148034	7769.25
2620.10967761398	7744.5
2622.2459710372	7795.75
2624.38166203284	7838.25
2626.51675088365	7747.25
2628.65123787232	7733.75
2630.78512328145	7797
2632.9184073936	7713.5
2635.05109049124	7817
2637.18317285676	7753.25
2639.31465477249	7797
2641.44553652067	7809
2643.5758183835	7738.75
2645.70550064309	7737.25
2647.83458358144	7780.5
2649.96306748053	7823
2652.09095262224	7748.75
2654.21823928836	7794
2656.34492776063	7692.5
2658.47101832071	7700.5
2660.59651125015	7730.75
2662.72140683047	7768
2664.84570534309	7721.75
2666.96940706935	7734.75
2669.0925122905	7687.25
2671.21502128773	7775.5
2673.33693434216	7734.5
2675.45825173479	7751
2677.57897374658	7703.75
2679.6991006584	7710
2681.81863275101	7714.75
2683.93757030512	7708.5
2686.05591360133	7716.75
2688.17366292021	7688
2690.29081854218	7673
2692.40738074762	7662
2694.52334981681	7685.5
2696.63872602995	7621.75
2698.75350966714	7702.25
2700.86770100842	7690
2702.98130033372	7660.25
2705.09430792289	7639.25
2707.20672405572	7645.75
2709.31854901185	7722.5
2711.42978307091	7678.75
2713.54042651238	7686.75
2715.65047961567	7743
2717.7599426601	7706
2719.86881592492	7685.5
2721.97709968924	7744
2724.08479423213	7693.5
2726.19189983255	7693
2728.29841676935	7698
2730.40434532131	7734
2732.5096857671	7711
2734.61443838532	7676.25
2736.71860345444	7633.5
2738.82218125287	7595
2740.92517205889	7631.5
2743.02757615073	7696.75
2745.12939380646	7660
2747.23062530411	7679.5
2749.33127092159	7731.5
2751.4313309367	7663.25
2753.53080562717	7752.75
2755.62969527058	7734.25
2757.72800014448	7680.5
2759.82572052625	7681.75
2761.92285669323	7692
2764.0194089226	7710.5
2766.11537749147	7691.75
2768.21076267686	7663
2770.30556475566	7664.75
2772.39978400465	7692
2774.49342070054	7660.5
2776.58647511991	7734.25
2778.67894753923	7757.75
2780.77083823487	7715.25
2782.8621474831	7682
2784.95287556007	7680.25
2787.04302274184	7702.25
2789.13258930433	7727.5
2791.22157552338	7663.25
2793.30998167471	7635.25
2795.39780803392	7768.5
2797.48505487651	7766.75
2799.57172247786	7709.75
2801.65781111324	7698.5
2803.74332105781	7737.25
2805.82825258661	7672.25
2807.91260597457	7720.75
2809.9963814965	7718
2812.07957942711	7714.5
2814.16220004096	7682.25
2816.24424361252	7710
2818.32571041614	7729
2820.40660072604	7767.5
2822.48691481632	7791.5
2824.56665296098	7827.5
2826.64581543388	7812
2828.72440250876	7852.25
2830.80241445925	7952.75
2832.87985155885	8007.75
2834.95671408094	8149.25
2837.03300229875	8283.5
2839.10871648544	8392
2841.18385691399	8488.75
2843.25842385729	8481.25
2845.33241758808	8473.5
2847.40583837899	8508.25
2849.4786865025	8438.5
2851.550962231	8424.75
2853.6226658367	8415.25
2855.69379759174	8386.25
2857.76435776806	8397
2859.83434663753	8451.5
2861.90376447184	8517.25
2863.97261154259	8644.25
2866.04088812121	8737.75
2868.10859447901	8772.25
2870.17573088717	8798.75
2872.24229761673	8775.5
2874.30829493859	8836
2876.37372312353	8947.75
2878.43858244215	9159.75
2880.50287316496	9184.75
2882.56659556231	9266.75
2884.6297499044	9212.25
2886.69233646129	9112.75
2888.75435550293	8915.25
2890.81580729909	8947.5
2892.87669211941	8895.75
2894.9370102334	8846.25
2896.99676191039	8815.25
2899.05594741961	8880
2901.11456703011	8826.5
2903.1726210108	8851
2905.23010963045	8954.5
2907.28703315768	8832.25
2909.34339186096	8916.75
2911.39918600861	8806.75
2913.45441586879	8700.5
2915.50908170953	8690
2917.56318379867	8669.75
2919.61672240395	8743.5
2921.66969779291	8702.5
2923.72211023296	8738.75
2925.77395999134	8702.25
2927.82524733515	8677.5
2929.87597253133	8677.75
2931.92613584663	8563.75
2933.9757375477	8465.25
2936.02477790097	8347.25
2938.07325717276	8322
2940.1211756292	8389
2942.16853353626	8346.75
2944.21533115977	8439.75
2946.26156876536	8420.75
2948.30724661853	8445.5
2950.3523649846	8658.25
2952.39692412872	8637.75
2954.44092431587	8650
2956.4843658109	8744.75
2958.52724887843	8806.5
2960.56957378296	8834.75
2962.6113407888	8917.25
2964.65255016011	8790.5
2966.69320216083	8735
2968.73329705479	8527.25
2970.77283510559	8459
2972.81181657671	8341.25
2974.85024173141	8321.5
2976.88811083279	8297.25
2978.92542414379	8287
2980.96218192714	8212
2982.99838444541	8243.5
2985.034031961	8238
2987.06912473612	8217.5
2989.1036630328	8109.5
2991.13764711289	8221
2993.17107723804	8276
2995.20395366975	8249.5
2997.23627666931	8337.75
2999.26804649782	8236.25
3001.29926341624	8347.25
3003.32992768528	8311.25
3005.3600395655	8325
3007.38959931727	8359
3009.41860720076	8376.75
3011.44706347595	8371.75
3013.47496840263	8368.5
3015.50232224042	8413
3017.5291252487	8446.5
3019.5553776867	8400.5
3021.58107981344	8457.25
3023.60623188773	8475.75
3025.63083416822	8476
3027.65488691331	8542.75
3029.67839038125	8519.75
3031.70134483007	8503.25
3033.72375051759	8619.75
3035.74560770145	8571.75
3037.76691663907	8528
3039.78767758768	8631.5
3041.80789080431	8603.75
3043.82755654577	8622.5
3045.84667506867	8639.75
3047.8652466294	8607
3049.88327148418	8671.5
3051.90074988899	8633.75
3053.91768209961	8620.5
3055.93406837161	8564.5
3057.94990896033	8669.5
3059.96520412095	8611.25
3061.97995410838	8752
3063.99415917734	8729.75
3066.00781958234	8713.75
3068.02093557766	8648.25
3070.03350741738	8593.75
3072.04553535535	8701.75
3074.05701964521	8671.5
3076.06796054036	8679.5
3078.07835829401	8592
3080.08821315912	8609
3082.09752538846	8717.75
3084.10629523454	8612
3086.11452294967	8612.75
3088.12220878592	8668.5
3090.12935299515	8712.75
3092.13595582898	8634.5
3094.1420175388	8701
3096.1475383758	8658.5
3098.15251859088	8697
3100.15695843477	8678.75
3102.16085815793	8685.5
3104.16421801062	8697.25
3106.16703824282	8649
3108.16931910432	8723
3110.17106084464	8692
3112.17226371308	8762.5
3114.17292795872	8761
3116.17305383034	8783.25
3118.17264157657	8718.75
3120.17169144571	8758.75
3122.17020368587	8688.25
3124.16817854492	8790.75
3126.16561627044	8772
3128.16251710982	8861
3130.15888131017	8841.75
3132.15470911837	8883
3134.15000078104	8840.25
3136.14475654455	8894.75
3138.13897665502	8934.5
3140.13266135835	8879
3142.12581090015	8849
3144.11842552578	8906.5
3146.11050548036	8933.25
3148.10205100875	8996.75
3150.09306235557	8971.25
3152.08353976515	8914
3154.07348348158	8826.75
3156.06289374869	8964.75
3158.05177081006	8875
3160.04011490899	8992.5
3162.02792628852	9040.75
3164.01520519145	8898.75
3166.00195186029	8906.25
3167.98816653728	8988.25
3169.97384946442	8881.75
3171.95900088344	8950.25
3173.94362103577	9015.75
3175.9277101626	8967
3177.91126850484	9031
3179.89429630312	9035.75
3181.87679379782	8980.25
3183.85876122904	9045
3185.84019883657	9098.75
3187.82110685997	9056.75
3189.80148553851	9077
3191.78133511116	9114.25
3193.76065581664	9113.5
3195.73944789337	9153
3197.7177115795	9066.75
3199.6954471129	9149.75
3201.67265473114	9108.25
3203.64933467153	9110.75
3205.62548717107	9106.5
3207.60111246649	9241.5
3209.57621079422	9160.5
3211.55078239041	9174
3213.52482749093	9105.5
3215.49834633133	9193.75
3217.4713391469	9325
3219.44380617262	9152.75
3221.41574764318	9249
3223.38716379296	9240
3225.35805485607	9301
3227.32842106631	9263.75
3229.29826265718	9306.75
3231.26757986187	9309.25
3233.2363729133	9353
3235.20464204405	9301.25
3237.17238748644	9362.25
3239.13960947243	9342
3241.10630823374	9406
3243.07248400174	9378.25
3245.03813700748	9448
3247.00326748177	9394.75
3248.96787565503	9451.75
3250.93196175742	9425
3252.89552601877	9447.25
3254.8585686686	9512
3256.82108993612	9515
3258.78309005022	9526
3260.74456923948	9472.75
3262.70552773215	9498.5
3264.66596575617	9474.25
3266.62588353916	9495.75
3268.58528130843	9477.5
3270.54415929094	9479.5
3272.50251771336	9543
3274.46035680202	9502
3276.4176767829	9519.75
3278.37447788171	9464
3280.33076032379	9538.25
3282.28652433416	9495
3284.24177013751	9463
3286.1964979582	9531.25
3288.15070802027	9587.25
3290.10440054741	9527.5
3292.05757576298	9505.75
3294.01023389001	9542
3295.96237515119	9554.5
3297.91399976887	9538.25
3299.86510796506	9610.25
3301.81569996143	9546.5
3303.76577597932	9565
3305.71533623971	9554.25
3307.66438096325	9565.75
3309.61291037024	9516.25
3311.56092468063	9530
3313.50842411404	9434
3315.45540888971	9571.75
3317.40187922656	9518.75
3319.34783534315	9544.75
3321.29327745768	9498.75
3323.23820578801	9374
3325.18262055164	9523.75
3327.1265219657	9441.75
3329.06991024699	9446.75
3331.01278561194	9459.5
3332.95514827663	9431.75
3334.89699845675	9471.75
3336.83833636766	9462.25
3338.77916222434	9367.5
3340.71947624143	9428.5
3342.65927863317	9473.5
3344.59856961347	9406.75
3346.53734939584	9486.25
3348.47561819344	9413.75
3350.41337621907	9384
3352.35062368513	9477.5
3354.28736080368	9460
3356.22358778637	9516.25
3358.15930484452	9389.5
3360.09451218904	9482.5
3362.02921003047	9447.75
3363.96339857899	9478.75
3365.89707804437	9469.5
3367.83024863603	9421
3369.76291056299	9454.25
3371.69506403389	9487
3373.62670925699	9437.25
3375.55784644016	9512
3377.4884757909	9456.25
3379.41859751629	9530
3381.34821182305	9536.5
3383.27731891749	9549.25
3385.20591900555	9614
3387.13401229276	9611
3389.06159898426	9618.75
3390.9886792848	9599
3392.91525339872	9643
3394.84132152998	9612.75
3396.76688388213	9628.25
3398.69194065834	9610.5
3400.61649206133	9683.75
3402.54053829348	9644.25
3404.46407955672	9588.5
3406.3871160526	9574.75
3408.30964798225	9628.75
3410.23167554639	9615.75
3412.15319894535	9645.75
3414.07421837904	9602.25
3415.99473404695	9643.5
3417.91474614817	9644.75
3419.83425488136	9653
3421.7532604448	9724.25
3423.67176303631	9640.5
3425.58976285332	9609.25
3427.50726009283	9674.75
3429.42425495143	9635
3431.34074762528	9661
3433.25673831012	9543.75
3435.17222720127	9668.25
3437.08721449362	9596.5
3439.00170038164	9523.25
3440.91568505936	9562
3442.8291687204	9583
3444.74215155792	9596
3446.65463376469	9577.75
3448.566615533	9611.25
3450.47809705476	9574.5
3452.3890785214	9585.75
3454.29956012393	9657.25
3456.20954205293	9562.5
3458.11902449853	9558.75
3460.02800765042	9496.75
3461.93649169784	9528.5
3463.84447682962	9501.75
3465.75196323412	9527
3467.65895109925	9435.25
3469.56544061249	9497.75
3471.47143196086	9383.75
3473.37692533094	9470.75
3475.28192090884	9437.5
3477.18641888026	9482.25
3479.09041943039	9452
3480.99392274402	9427.75
3482.89692900545	9437.25
3484.79943839853	9456.5
3486.70145110666	9352.75
3488.60296731277	9366
3490.50398719933	9375
3492.40451094836	9271.75
3494.30453874141	9292.25
3496.20407075956	9398.75
3498.10310718342	9410.25
3500.00164819315	9349.5