200.090469251518	754.416687011719
202.974751419362	757.75
205.858021632263	757.166687011719
208.740280737522	755.833312988281
211.621529580443	761.333312988281
214.501769004371	765.666687011719
217.380999850626	757
220.25922295859	762
223.136439165646	759.166687011719
226.012649307235	760.583312988281
228.88785421682	759.5
231.762054725918	763.25
234.635251664113	754.25
237.507445859021	758.75
240.378638136346	758.083312988281
243.248829319855	761.583312988281
246.11802023137	761.916687011719
248.986211690826	766.583312988281
251.853404516227	765.083312988281
254.719599523654	764.833312988281
257.584797527335	760.583312988281
260.44899933954	767.5
263.312205770682	765.5
266.174417629303	765.416687011719
269.035635722015	771.083312988281
271.895860853609	767.333312988281
274.755093826978	762.916687011719
277.613335443144	765.583312988281
280.470586501309	769.416687011719
283.326847798766	770
286.182120131019	766.5
289.036404291684	761
291.889701072574	765.75
294.742011263643	762
297.593335653048	768.25
300.443675027094	762.25
303.293030170295	766.333312988281
306.141401865367	770.916687011719
308.988790893174	771.666687011719
311.835198032837	762.333312988281
314.680624061635	768.666687011719
317.525069755113	766.5
320.36853588697	765.833312988281
323.211023229178	764
326.052532551923	768.75
328.893064623604	766
331.732620210885	766.083312988281
334.57120007867	768
337.408804990093	767.833312988281
340.245435706565	765.333312988281
343.081092987733	775
345.915777591523	768.5
348.749490274145	767
351.582231790049	768.25
354.414002891997	768.916687011719
357.244804331021	770.583312988281
360.074636856443	775.166687011719
362.903501215886	772.25
365.731398155265	772.583312988281
368.558328418814	774.833312988281
371.384292749062	774.083312988281
374.209291886869	774.75
377.033326571407	773.083312988281
379.85639754017	774.25
382.678505529009	772.666687011719
385.499651272065	775.083312988281
388.319835501872	785.833312988281
391.139058949258	781.833312988281
393.957322343453	788.083312988281
396.774626412011	783
399.590971880847	781.416687011719
402.406359474258	784.333312988281
405.220789914893	782.833312988281
408.034263923801	777.583312988281
410.8467822204	780.166687011719
413.658345522483	775.166687011719
416.468954546242	779.833312988281
419.278610006277	775.916687011719
422.087312615557	777.833312988281
424.895063085503	779.333312988281
427.701862125901	780.083312988281
430.507710444981	783.083312988281
433.312608749366	779.416687011719
436.116557744146	783.5
438.919558132791	778.25
441.721610617238	785.916687011719
444.522715897856	783.416687011719
447.322874673457	780.333312988281
450.122087641299	781.166687011719
452.920355497092	788.583312988281
455.717678935009	779.25
458.514058647681	783.333312988281
461.309495326219	786.583312988281
464.103989660191	782.75
466.89754233765	779.666687011719
469.690154045114	776.666687011719
472.481825467625	778.666687011719
475.272557288674	779.5
478.062350190281	777.5
480.851204852952	780.75
483.639121955683	778.25
486.426102176007	777.416687011719
489.212146189955	776.166687011719
491.997254672093	778.5
494.781428295471	785.166687011719
497.564667731716	784.166687011719
500.346973650958	782.333312988281
503.128346721878	785.333312988281
505.90878761169	781
508.688296986151	783.416687011719
511.46687550957	783.166687011719
514.244523844831	782.666687011719
517.021242653354	790
519.797032595132	785.5
522.571894328732	791
525.345828511279	789.666687011719
528.11883579849	785.833312988281
530.890916844655	790.5
533.662072302668	779.25
536.432302823985	777.083312988281
539.201609058684	782.166687011719
541.96999165542	781.666687011719
544.737451261473	784.916687011719
547.503988522723	774.666687011719
550.26960408366	781.166687011719
553.034298587394	784.333312988281
555.798072675669	782
558.560926988819	782.083312988281
561.322862165849	777.583312988281
564.083878844369	785.583312988281
566.843977660654	780.416687011719
569.603159249604	782.333312988281
572.361424244769	780.083312988281
575.118773278369	777.916687011719
577.87520698124	780.083312988281
580.630725982905	786.583312988281
583.385330911566	781.833312988281
586.139022394076	788.75
588.891801055954	788
591.643667521406	786.416687011719
594.394622413318	787.75
597.144666353273	788.083312988281
599.893799961512	781.833312988281
602.64202385701	782.75
605.389338657413	783.583312988281
608.135744979089	782.75
610.881243437092	789.25
613.625834645191	784
616.369519215881	783.5
619.112297760374	785.666687011719
621.854170888604	781.666687011719
624.595139209225	780.166687011719
627.335203329614	782.666687011719
630.074363855914	785.583312988281
632.81262139299	776.75
635.549976544436	781.25
638.286429912612	778.416687011719
641.021982098635	783.166687011719
643.756633702364	779.916687011719
646.49038532241	780.083312988281
649.223237556176	790.333312988281
651.955190999808	780.166687011719
654.686246248224	782.916687011719
657.416403895135	783.416687011719
660.145664533011	787.416687011719
662.874028753133	785.666687011719
665.601497145537	785.25
668.328070299071	786.166687011719
671.05374880138	788.583312988281
673.778533238885	784.916687011719
676.502424196839	795.083312988281
679.225422259297	785.916687011719
681.947528009099	789.25
684.668742027927	794.416687011719
687.389064896281	783.833312988281
690.108497193465	783.833312988281
692.827039497621	788.5
695.544692385724	784.083312988281
698.261456433585	784
700.977332215847	785.416687011719
703.692320305981	786.25
706.406421276337	785.5
709.11963569808	783.166687011719
711.831964141256	791.666687011719
714.54340717474	793.75
717.253965366304	787.333312988281
719.963639282552	795.416687011719
722.672429488961	787.666687011719
725.380336549904	781.416687011719
728.087361028596	782.25
730.793503487166	789
733.498764486594	789.25
736.203144586758	790
738.906644346447	794.166687011719
741.60926432331	791.25
744.311005073912	791.583312988281
747.011867153727	793.5
749.711851117121	796.5
752.410957517375	799.25
755.109186906677	794.166687011719
757.806539836132	795
760.503016855779	801.5
763.198618514551	790.75
765.893345360346	794.666687011719
768.587197939964	788.75
771.28017679914	796.416687011719
773.972282482566	797.25
776.663515533859	798.916687011719
779.353876495581	793.25
782.043365909241	789.5
784.731984315327	789.75
787.419732253235	793.25
790.106610261366	795.916687011719
792.792618877058	793.583312988281
795.477758636618	791.333312988281
798.162030075313	798.916687011719
800.845433727423	799.916687011719
803.52797012615	800
806.209639803714	806.916687011719
808.890443291304	812.166687011719
811.570381119098	808.916687011719
814.249453816265	801.916687011719
816.927661910959	797.583312988281
819.60500593036	804.583312988281
822.281486400603	799.333312988281
824.957103846864	804.75
827.631858793316	812.833312988281
830.305751763135	804.25
832.978783278519	811.916687011719
835.650953860677	817.583312988281
838.322264029848	820.416687011719
840.992714305292	824.583312988281
843.662305205289	819.666687011719
846.331037247157	809.666687011719
848.998910947241	805.583312988281
851.665926820933	800
854.332085382674	807.083312988281
856.997387145915	802.166687011719
859.661832623191	805
862.325422326066	800
864.988156765172	800.083312988281
867.650036450181	807.083312988281
870.311061889846	798.833312988281
872.971233591961	801.583312988281
875.630552063409	799.583312988281
878.28901781013	802.25
880.946631337138	794.25
883.603393148533	797.333312988281
886.259303747484	798.083312988281
888.914363636246	801.166687011719
891.568573316155	799.5
894.22193328767	805
896.874444050281	804.5
899.526106102625	799.916687011719
902.176919942416	801.666687011719
904.826886066483	798.083312988281
907.476004970747	801.75
910.124277150255	807.75
912.77170309913	799.75
915.418283310642	806.083312988281
918.064018277175	804.75
920.708908490222	796.5
923.352954440405	798.166687011719
925.996156617486	805.5
928.638515510334	796.333312988281
931.280031606966	797.25
933.920705394521	807.416687011719
936.560537359303	800.5
939.199527986737	804.75
941.837677761392	805.416687011719
944.474987167006	800.083312988281
947.111456686438	803.916687011719
949.747086801734	802.5
952.38187799407	808.833312988281
955.015830743792	807.416687011719
957.648945530418	802.916687011719
960.281222832633	805.5
962.91266312826	809.25
965.543266894336	803.416687011719
968.173034607058	806.75
970.801966741779	810.833312988281
973.43006377307	807.5
976.057326174661	811.833312988281
978.683754419471	803.083312988281
981.309348979623	811.25
983.93411032642	804.416687011719
986.558038930361	804.166687011719
989.181135261144	806.416687011719
991.803399787692	807.916687011719
994.424832978086	812.333312988281
997.045435299653	805.666687011719
999.665207218906	811.666687011719
1002.2841492016	809.75
1004.90226171266	810.5
1007.51954521628	814.333312988281
1010.13600017584	810.25
1012.75162705397	808.333312988281
1015.3664263125	812.166687011719
1017.9803984125	816.583312988281
1020.5935438143	815.666687011719
1023.20586297741	815.75
1025.81735636063	810.833312988281
1028.42802442196	820.916687011719
1031.03786761869	817.583312988281
1033.64688640732	820.333312988281
1036.2550812436	819.166687011719
1038.86245258255	820.666687011719
1041.46900087844	817.916687011719
1044.07472658479	818.083312988281
1046.67963015438	819.166687011719
1049.28371203927	818.333312988281
1051.88697269075	822.333312988281
1054.48941255943	821.666687011719
1057.09103209513	817.416687011719
1059.691831747	825.666687011719
1062.29181196343	823.416687011719
1064.89097319211	816.5
1067.48931587999	810
1070.08684047333	818.916687011719
1072.68354741766	820.666687011719
1075.27943715779	818.916687011719
1077.87451013787	811.583312988281
1080.46876680127	821.583312988281
1083.06220759071	816.333312988281
1085.65483294822	823.583312988281
1088.24664331509	821.083312988281
1090.83763913194	821.333312988281
1093.42782083869	823.166687011719
1096.01718887459	823.75
1098.60574367818	821.333312988281
1101.19348568732	822.583312988281
1103.78041533919	814.833312988281
1106.3665330703	822.583312988281
1108.95183931646	820.166687011719
1111.53633451284	811.5
1114.12001909391	811.25
1116.70289349349	819.083312988281
1119.2849581447	821.916687011719
1121.86621348005	820.25
1124.44665993134	829.083312988281
1127.02629792973	833.5
1129.60512790574	829.166687011719
1132.18315028919	819.333312988281
1134.76036550929	824.166687011719
1137.3367739946	832.583312988281
1139.912376173	831.25
1142.48717247176	837.833312988281
1145.06116331748	832.166687011719
1147.63434913616	849
1150.20673035312	842.75
1152.77830739307	841.083312988281
1155.34908068007	829.666687011719
1157.91905063757	832.833312988281
1160.48821768838	834.583312988281
1163.05658225471	834.25
1165.6241447581	835.75
1168.19090561951	832.666687011719
1170.75686525927	829.333312988281
1173.32202409708	832.5
1175.88638255206	824.083312988281
1178.44994104269	828.833312988281
1181.01269998684	830.666687011719
1183.57465980182	836.333312988281
1186.13582090427	822.916687011719
1188.69618371026	834.25
1191.25574863529	818.666687011719
1193.8145160942	823.75
1196.37248650129	825.75
1198.92966027025	830.25
1201.48603781416	826.75
1204.04161954556	831.5
1206.59640587635	824.583312988281
1209.15039721788	832.833312988281
1211.70359398092	824.25
1214.25599657564	824.916687011719
1216.80760541166	836.5
1219.35842089801	835.75
1221.90844344314	832.833312988281
1224.45767345496	835.333312988281
1227.00611134077	831.416687011719
1229.55375750736	839.083312988281
1232.10061236092	833.25
1234.64667630707	833.666687011719
1237.1919497509	835.916687011719
1239.73643309692	831.916687011719
1242.28012674912	840.75
1244.82303111089	838.583312988281
1247.36514658511	838.416687011719
1249.9064735741	845.25
1252.44701247964	844.75
1254.98676370294	847.333312988281
1257.52572764469	849.333312988281
1260.06390470506	847.5
1262.60129528365	844.083312988281
1265.13789977954	846.833312988281
1267.67371859128	840.75
1270.20875211688	852.75
1272.74300075384	845.833312988281
1275.2764648991	847.333312988281
1277.80914494911	845.333312988281
1280.34104129978	852.5
1282.87215434652	855.083312988281
1285.40248448419	856.833312988281
1287.93203210715	856.666687011719
1290.46079760927	855.666687011719
1292.98878138385	862.75
1295.51598382375	872
1298.04240532127	874.25
1300.56804626822	866.166687011719
1303.09290705593	870.416687011719
1305.6169880752	871.083312988281
1308.14028971632	866.333312988281
1310.66281236913	873.5
1313.18455642292	866.25
1315.70552226653	864.166687011719
1318.22571028829	865.25
1320.74512087603	871.416687011719
1323.26375441711	878.916687011719
1325.7816112984	881.75
1328.29869190629	876.333312988281
1330.81499662666	882.916687011719
1333.33052584497	873.75
1335.84527994613	877.5
1338.35925931464	875.833312988281
1340.87246433446	876.583312988281
1343.38489538916	879.833312988281
1345.89655286177	883.083312988281
1348.40743713487	883.75
1350.91754859059	888.083312988281
1353.42688761059	881.416687011719
1355.93545457606	886.416687011719
1358.44324986772	885.666687011719
1360.95027386588	887.5
1363.45652695032	880.166687011719
1365.96200950042	886.166687011719
1368.4667218951	888
1370.97066451281	882.333312988281
1373.47383773156	887.5
1375.97624192891	881.75
1378.47787748199	884.75
1380.97874476746	881.083312988281
1383.47884416157	891.166687011719
1385.97817604009	880.75
1388.4767407784	884.583312988281
1390.9745387514	876.916687011719
1393.47157033358	877.083312988281
1395.96783589898	892.083312988281
1398.46333582124	883.583312988281
1400.95807047354	882.25
1403.45204022864	877.333312988281
1405.94524545889	881.25
1408.4376865362	886.083312988281
1410.92936383205	878.75
1413.42027771752	878.666687011719
1415.91042856328	884.5
1418.39981673955	881.5
1420.88844261615	885.416687011719
1423.37630656249	889.416687011719
1425.86340894757	894.083312988281
1428.34975013999	909.416687011719
1430.83533050792	904.75
1433.32015041912	916.5
1435.80421024098	918.666687011719
1438.28751034045	923.75
1440.77005108411	927.833312988281
1443.25183283812	921.166687011719
1445.73285596824	930
1448.21312083984	930
1450.69262781791	925.833312988281
1453.17137726702	934.916687011719
1455.64936955137	931.083312988281
1458.12660503477	943.25
1460.60308408063	939.833312988281
1463.07880705197	931.583312988281
1465.55377431145	925.833312988281
1468.02798622133	920
1470.50144314348	916.416687011719
1472.97414543941	907.75
1475.44609347024	913.416687011719
1477.91728759673	915.75
1480.38772817924	915.416687011719
1482.85741557777	911.5
1485.32635015194	904.833312988281
1487.79453226103	906.75
1490.26196226391	908
1492.72864051911	913.833312988281
1495.1945673848	910.416687011719
1497.65974321874	916.583312988281
1500.1241683784	908.75
1502.58784322083	910.5
1505.05076810274	908.5
1507.51294338049	907.916687011719
1509.97436941009	911.416687011719
1512.43504654717	910.5
1514.89497514704	919.833312988281
1517.35415556462	909.416687011719
1519.81258815451	921.083312988281
1522.27027327095	915.583312988281
1524.72721126784	923.5
1527.18340249874	924.75
1529.63884731684	923.916687011719
1532.09354607502	919.166687011719
1534.5474991258	926.083312988281
1537.00070682136	931
1539.45316951355	927.75
1541.90488755388	931.583312988281
1544.35586129353	931.5
1546.80609108336	930.5
1549.25557727385	936.833312988281
1551.70432021519	931.5
1554.15232025725	942.916687011719
1556.59957774953	943.583312988281
1559.04609304125	936.583312988281
1561.49186648127	945
1563.93689841815	942.416687011719
1566.38118920011	946.75
1568.82473917506	947.5
1571.2675486906	956.916687011719
1573.70961809399	958.916687011719
1576.15094773219	955.333312988281
1578.59153795184	961.25
1581.03138909928	960.333312988281
1583.47050152051	963.25
1585.90887556123	962.25
1588.34651156686	974.75
1590.78340988246	971.583312988281
1593.21957085283	982.083312988281
1595.65499482245	992.916687011719
1598.08968213547	983.916687011719
1600.52363313578	980.666687011719
1602.95684816694	974.833312988281
1605.38932757224	972.083312988281
1607.82107169462	979.333312988281
1610.25208087677	974.333312988281
1612.68235546107	970.833312988281
1615.1118957896	970.75
1617.54070220415	967.833312988281
1619.96877504621	959.75
1622.39611465701	966
1624.82272137746	968.75
1627.24859554818	965.333312988281
1629.67373750953	969.75
1632.09814760155	964
1634.52182616404	959.666687011719
1636.94477353647	965
1639.36699005806	961.166687011719
1641.78847606776	964.75
1644.20923190418	968.666687011719
1646.62925790573	973.25
1649.04855441048	964.583312988281
1651.46712175628	969.5
1653.88496028066	970.166687011719
1656.3020703209	967.666687011719
1658.71845221401	973.166687011719
1661.13410629671	975
1663.54903290547	978.25
1665.96323237649	990.666687011719
1668.37670504571	988.75
1670.78945124877	988.916687011719
1673.20147132109	990
1675.61276559779	994.75
1678.02333441377	994.583312988281
1680.43317810362	999.75
1682.84229700171	1002
1685.25069144213	1002.25
1687.65836175872	997.166687011719
1690.06530828507	1003.66668701172
1692.47153135451	1009.25
1694.87703130009	1005.08331298828
1697.28180845467	1013.66668701172
1699.6858631508	1010.08331298828
1702.08919572081	1014.83331298828
1704.49180649676	1016.41668701172
1706.89369581049	1011.83331298828
1709.29486399355	1011.5
1711.69531137731	1021.08331298828
1714.09503829282	1019.08331298828
1716.49404507095	1020.08331298828
1718.89233204229	1021
1721.28989953721	1017.58331298828
1723.68674788581	1016.33331298828
1726.08287741798	1024
1728.47828846338	1027.33337402344
1730.87298135139	1029.08337402344
1733.26695641119	1027.08337402344
1735.66021397173	1038.33337402344
1738.05275436169	1033
1740.44457790954	1028.33337402344
1742.83568494354	1032
1745.22607579168	1033.16662597656
1747.61575078175	1041.25
1750.00471024128	1037.08337402344
1752.39295449761	1042.75
1754.78048387783	1041.41662597656
1757.16729870881	1041.66662597656
1759.5533993172	1046
1761.93878602942	1054.66662597656
1764.32345917168	1048.33337402344
1766.70741906995	1064.16662597656
1769.09066604999	1060.58337402344
1771.47320043735	1059.83337402344
1773.85502255735	1069.41662597656
1776.2361327351	1061.33337402344
1778.61653129548	1068
1780.99621856318	1064
1783.37519486264	1069.5
1785.75346051813	1069.5
1788.13101585368	1078.5
1790.5078611931	1071.66662597656
1792.88399686002	1086.66662597656
1795.25942317785	1086.75
1797.63414046977	1085.58337402344
1800.00814905878	1085.66662597656
1802.38144926766	1091.83337402344
1804.75404141898	1091.25
1807.12592583514	1096.5
1809.49710283829	1105.16662597656
1811.86757275039	1103.66662597656
1814.23733589322	1107.25
1816.60639258834	1096.91662597656
1818.97474315712	1104.25
1821.34238792073	1104.58337402344
1823.70932720012	1108.5
1826.07556131608	1111.66662597656
1828.44109058918	1111.25
1830.8059153398	1112.33337402344
1833.17003588812	1113
1835.53345255413	1110.83337402344
1837.89616565765	1127.41662597656
1840.25817551827	1127.08337402344
1842.61948245541	1121.33337402344
1844.9800867883	1130.66662597656
1847.33998883598	1137.58337402344
1849.69918891729	1128.83337402344
1852.05768735091	1146.33337402344
1854.4154844553	1140.58337402344
1856.77258054875	1141.08337402344
1859.12897594938	1146.5
1861.4846709751	1147.66662597656
1863.83966594366	1147.66662597656
1866.19396117261	1139.33337402344
1868.54755697932	1152.5
1870.90045368099	1164.83337402344
1873.25265159463	1152.83337402344
1875.60415103708	1161.66662597656
1877.95495232501	1184.25
1880.30505577486	1177.33337402344
1882.65446170299	1183.66662597656
1885.00317042548	1186.91662597656
1887.35118225832	1189.33337402344
1889.69849751726	1191.33337402344
1892.04511651792	1193.33337402344
1894.39103957574	1196.25
1896.73626700596	1209.25
1899.08079912368	1220.58337402344
1901.42463624384	1216.66662597656
1903.76777868116	1213.58337402344
1906.11022675025	1223.25
1908.4519807655	1222.41662597656
1910.79304104117	1226.58337402344
1913.13340789134	1238.41662597656
1915.47308162992	1242.33337402344
1917.81206257067	1248.08337402344
1920.15035102718	1243.91662597656
1922.48794731286	1240
1924.82485174096	1248.25
1927.16106462461	1247.41662597656
1929.49658627672	1256.58337402344
1931.83141701008	1255.33337402344
1934.1655571373	1262.25
1936.49900697085	1263.91662597656
1938.83176682301	1258
1941.16383700594	1268.16662597656
1943.49521783161	1271.66662597656
1945.82590961186	1273.41662597656
1948.15591265835	1260.58337402344
1950.48522728262	1268.75
1952.81385379602	1278.16662597656
1955.14179250976	1283.41662597656
1957.46904373489	1270.58337402344
1959.79560778233	1284.83337402344
1962.12148496284	1293
1964.44667558701	1297.75
1966.77117996529	1282.08337402344
1969.09499840799	1294.33337402344
1971.41813122527	1298.16662597656
1973.74057872714	1320.08337402344
1976.06234122345	1317.25
1978.38341902391	1305.66662597656
1980.7038124381	1327.08337402344
1983.02352177543	1327.08337402344
1985.34254734518	1316.91662597656
1987.66088945649	1329.5
1989.97854841833	1342.33337402344
1992.29552453956	1337.08337402344
1994.61181812887	1340.25
1996.92742949483	1355.5
1999.24235894586	1350.58337402344
2001.55660679023	1354.91662597656
2003.87017333608	1359.08337402344
2006.18305889143	1360.91662597656
2008.49526376413	1368.33337402344
2010.80678826189	1369.83337402344
2013.1176326923	1370.66662597656
2015.42779736282	1391.16662597656
2017.73728258075	1386.16662597656
2020.04608865326	1385.83337402344
2022.3542158874	1386.25
2024.66166459008	1409.83337402344
2026.96843506807	1401.25
2029.274527628	1411.41662597656
2031.57994257637	1426.5
2033.88468021957	1418.75
2036.18874086383	1417.75
2038.49212481526	1431.83337402344
2040.79483237983	1432.66662597656
2043.0968638634	1428.16662597656
2045.39821957169	1429.5
2047.69889981028	1434.83337402344
2049.99890488462	1436.58337402344
2052.29823510006	1448.41662597656
2054.59689076181	1439.66662597656
2056.89487217492	1448.16662597656
2059.19217964437	1455.33337402344
2061.48881347497	1449.75
2063.7847739714	1461.25
2066.08006143826	1467
2068.37467618	1452.33337402344
2070.66861850093	1474.5
2072.96188870527	1454.66662597656
2075.25448709707	1466.91662597656
2077.54641398031	1454.41662597656
2079.83766965881	1459.16662597656
2082.12825443629	1462.83337402344
2084.41816861634	1480.83337402344
2086.70741250242	1480
2088.99598639789	1471.41662597656
2091.28389060597	1476.16662597656
2093.57112542978	1469.25
2095.85769117232	1477
2098.14358813644	1483
2100.42881662491	1493.91662597656
2102.71337694037	1500.08337402344
2104.99726938532	1489.66662597656
2107.28049426219	1485.16662597656
2109.56305187325	1489.08337402344
2111.84494252069	1497.75
2114.12616650655	1510.16662597656
2116.40672413278	1501.66662597656
2118.68661570121	1487.33337402344
2120.96584151355	1512.41662597656
2123.24440187138	1524.41662597656
2125.52229707622	1502.75
2127.79952742943	1512.66662597656
2130.07609323227	1527.58337402344
2132.35199478588	1507.5
2134.62723239132	1514.16662597656
2136.90180634949	1528.08337402344
2139.17571696123	1518.5
2141.44896452723	1537.5
2143.72154934809	1528.66662597656
2145.99347172429	1529.66662597656
2148.26473195623	1535.58337402344
2150.53533034415	1549.58337402344
2152.80526718821	1544.08337402344
2155.07454278848	1542.25
2157.3431574449	1530.91662597656
2159.61111145728	1540.41662597656
2161.87840512538	1555.41662597656
2164.1450387488	1548.16662597656
2166.41101262707	1554
2168.67632705959	1551.25
2170.94098234567	1549.83337402344
2173.20497878451	1547.5
2175.46831667519	1555.08337402344
2177.73099631672	1553.41662597656
2179.99301800797	1542.66662597656
2182.25438204772	1557.75
2184.51508873466	1546.08337402344
2186.77513836735	1546.16662597656
2189.03453124427	1544.66662597656
2191.29326766378	1550.58337402344
2193.55134792416	1552.33337402344
2195.80877232355	1548.25
2198.06554116004	1554
2200.32165473157	1540.83337402344
2202.577113336	1554.83337402344
2204.83191727111	1542.41662597656
2207.08606683453	1540.5
2209.33956232384	1540.16662597656
2211.59240403648	1547.41662597656
2213.84459226982	1535.66662597656
2216.09612732112	1539.08337402344
2218.34700948753	1538.5
2220.59723906612	1552.33337402344
2222.84681635385	1534.25
2225.09574164758	1529.25
2227.34401524408	1541.41662597656
2229.59163744002	1527.5
2231.83860853197	1525.25
2234.08492881639	1509.33337402344
2236.33059858968	1525.41662597656
2238.5756181481	1538.25
2240.81998778784	1533.66662597656
2243.06370780499	1525.33337402344
2245.30677849555	1526.66662597656
2247.54920015539	1525.75
2249.79097308033	1523
2252.03209756607	1522.66662597656
2254.27257390822	1523.16662597656
2256.51240240228	1515.5
2258.75158334369	1519.58337402344
2260.99011702777	1522.33337402344
2263.22800374976	1518.16662597656
2265.46524380477	1515.91662597656
2267.70183748786	1524.58337402344
2269.93778509399	1520.08337402344
2272.17308691801	1514
2274.40774325467	1517.66662597656
2276.64175439866	1515.25
2278.87512064454	1511.25
2281.10784228682	1510.16662597656
2283.33991961987	1520
2285.571352938	1509.83337402344
2287.80214253541	1505.33337402344
2290.03228870623	1520
2292.26179174449	1511.25
2294.4906519441	1514.16662597656
2296.71886959892	1510
2298.9464450027	1491.33337402344
2301.1733784491	1518.83337402344
2303.39967023169	1504.08337402344
2305.62532064395	1503.5
2307.85032997926	1499.08337402344
2310.07469853093	1504.83337402344
2312.29842659216	1494
2314.52151445608	1513.16662597656
2316.7439624157	1497.33337402344
2318.96577076397	1505.58337402344
2321.18693979374	1502.41662597656
2323.40746979777	1492.66662597656
2325.62736106873	1493.75
2327.8466138992	1502.16662597656
2330.06522858166	1493.16662597656
2332.28320540853	1488.66662597656
2334.50054467212	1487.41662597656
2336.71724666465	1489.08337402344
2338.93331167827	1486.5
2341.14874000501	1494.25
2343.36353193685	1486.25
2345.57768776564	1487.41662597656
2347.79120778319	1487.08337402344
2350.00409228117	1482.75
2352.21634155121	1490.58337402344
2354.42795588482	1473
2356.63893557342	1475.91662597656
2358.84928090838	1486.75
2361.05899218094	1477.16662597656
2363.26806968228	1473.16662597656
2365.47651370347	1478.66662597656
2367.68432453552	1472.91662597656
2369.89150246933	1478
2372.09804779571	1473.75
2374.30396080541	1470.08337402344
2376.50924178907	1464.66662597656
2378.71389103725	1466.5
2380.91790884042	1473.91662597656
2383.12129548897	1465.16662597656
2385.3240512732	1457.58337402344
2387.52617648332	1454.75
2389.72767140946	1449.83337402344
2391.92853634165	1461.41662597656
2394.12877156985	1456.91662597656
2396.32837738392	1463.25
2398.52735407365	1459.25
2400.72570192873	1440.91662597656
2402.92342123875	1448
2405.12051229325	1449.33337402344
2407.31697538167	1446.58337402344
2409.51281079333	1461.75
2411.70801881751	1456.16662597656
2413.90259974339	1441.25
2416.09655386004	1447.58337402344
2418.28988145648	1437.91662597656
2420.48258282162	1438.83337402344
2422.6746582443	1435.58337402344
2424.86610801325	1448.58337402344
2427.05693241713	1437.25
2429.24713174452	1446.75
2431.43670628389	1434.25
2433.62565632365	1439.25
2435.81398215212	1443.5
2438.00168405752	1438.16662597656
2440.18876232799	1444.75
2442.37521725158	1435
2444.56104911628	1434.08337402344
2446.74625820994	1427.5
2448.93084482038	1423.75
2451.1148092353	1433.66662597656
2453.29815174233	1426.16662597656
2455.480872629	1422.41662597656
2457.66297218275	1421.5
2459.84445069097	1409.33337402344
2462.02530844092	1425
2464.2055457198	1410.91662597656
2466.38516281471	1416
2468.56416001267	1409.58337402344
2470.74253760061	1414.08337402344
2472.92029586537	1408.16662597656
2475.09743509372	1409.25
2477.27395557232	1410.08337402344
2479.44985758777	1415.66662597656
2481.62514142655	1417
2483.79980737508	1408.83337402344
2485.97385571969	1412.75
2488.14728674661	1407.58337402344
2490.32010074198	1402.83337402344
2492.49229799188	1393.5
2494.66387878228	1405.5
2496.83484339905	1405.25
2499.00519212802	1411.91662597656
2501.17492525488	1405.16662597656
2503.34404306528	1411.33337402344
2505.51254584473	1412
2507.6804338787	1416
2509.84770745254	1401.91662597656
2512.01436685153	1406.83337402344
2514.18041236085	1401.16662597656
2516.34584426561	1410.08337402344
2518.51066285081	1401.91662597656
2520.67486840138	1415.83337402344
2522.83846120214	1419.58337402344
2525.00144153784	1406.16662597656
2527.16380969314	1399
2529.32556595261	1404.91662597656
2531.48671060072	1405.58337402344
2533.64724392186	1419.41662597656
2535.80716620033	1409.08337402344
2537.96647772034	1402.16662597656
2540.12517876602	1407.91662597656
2542.2832696214	1403.08337402344
2544.44075057041	1394.33337402344
2546.59762189691	1389
2548.75388388466	1400.16662597656
2550.90953681735	1400.25
2553.06458097853	1397.25
2555.21901665172	1393.66662597656
2557.37284412031	1401.16662597656
2559.5260636676	1392.75
2561.67867557684	1397.08337402344
2563.83068013113	1399.91662597656
2565.98207761351	1395.25
2568.13286830695	1406.75
2570.28305249429	1395.33337402344
2572.43263045829	1389.91662597656
2574.58160248163	1379.83337402344
2576.72996884689	1388.75
2578.87772983655	1366.41662597656
2581.02488573303	1383.41662597656
2583.1714368186	1392.5
2585.31738337549	1374.33337402344
2587.46272568582	1373.25
2589.60746403161	1381.58337402344
2591.75159869479	1387.75
2593.89512995722	1378
2596.03805810061	1382.75
2598.18038340665	1386.91662597656
2600.32210615686	1384.33337402344
2602.46322663274	1401.91662597656
2604.60374511563	1373.25
2606.74366188683	1376.08337402344
2608.88297722751	1372.5
2611.02169141875	1376.66662597656
2613.15980474156	1375
2615.29731747681	1380.41662597656
2617.43422990532	1385.66662597656
2619.57054230779	1372.41662597656
2621.70625496483	1368.91662597656
2623.84136815694	1375.91662597656
2625.97588216456	1390.16662597656
2628.10979726799	1379
2630.24311374746	1378.5
2632.3758318831	1387.5
2634.50795195493	1378.08337402344
2636.6394742429	1387.5
2638.77039902682	1381.91662597656
2640.90072658645	1366.75
2643.0304572014	1392.25
2645.15959115123	1376.91662597656
2647.28812871538	1380
2649.41607017319	1382.83337402344
2651.5434158039	1387.41662597656
2653.67016588665	1386.25
2655.79632070049	1381.5
2657.92188052436	1374.25
2660.04684563711	1389.33337402344
2662.17121631749	1383
2664.29499284413	1396.83337402344
2666.41817549558	1385.66662597656
2668.54076455027	1382.16662597656
2670.66276028656	1379.33337402344
2672.78416298267	1394.41662597656
2674.90497291675	1372.5
2677.02519036682	1384.5
2679.14481561082	1392.5
2681.26384892658	1386.58337402344
2683.38229059182	1376.83337402344
2685.50014088417	1385.5
2687.61740008114	1377.75
2689.73406846017	1375.16662597656
2691.85014629854	1388.75
2693.96563387347	1386.83337402344
2696.08053146206	1385.5
2698.1948393413	1388.66662597656
2700.3085577881	1381.66662597656
2702.42168707924	1382.5
2704.53422749139	1392.66662597656
2706.64617930112	1389.91662597656
2708.75754278492	1395.58337402344
2710.86831821913	1391.83337402344
2712.97850588002	1394.33337402344
2715.08810604372	1393.66662597656
2717.19711898628	1396.5
2719.30554498363	1394.16662597656
2721.41338431158	1387.08337402344
2723.52063724586	1399.41662597656
2725.62730406206	1391.66662597656
2727.73338503569	1396.33337402344
2729.83888044213	1385.58337402344
2731.94379055664	1388
2734.04811565441	1394.91662597656
2736.15185601048	1386.25
2738.25501189979	1393.41662597656
2740.35758359718	1384.58337402344
2742.45957137738	1382
2744.56097551499	1388.33337402344
2746.6617962845	1393.08337402344
2748.7620339603	1376.08337402344
2750.86168881666	1388.16662597656
2752.96076112774	1378.08337402344
2755.05925116758	1368.75
2757.15715921012	1382.58337402344
2759.25448552917	1381.08337402344
2761.35123039843	1386.83337402344
2763.44739409148	1377.83337402344
2765.5429768818	1370.75
2767.63797904275	1377.5
2769.73240084756	1378.16662597656
2771.82624256934	1377.08337402344
2773.91950448113	1369.41662597656
2776.01218685579	1382.5
2778.10428996609	1378.16662597656
2780.19581408469	1381.08337402344
2782.28675948414	1379.25
2784.37712643683	1376.66662597656
2786.46691521507	1381.25
2788.55612609104	1374.66662597656
2790.64475933678	1370.66662597656
2792.73281522425	1369.08337402344
2794.82029402525	1375.58337402344
2796.90719601149	1383.66662597656
2798.99352145453	1370.66662597656
2801.07927062583	1381.5
2803.16444379672	1380.91662597656
2805.24904123841	1380.08337402344
2807.33306322197	1375.91662597656
2809.41651001838	1382.16662597656
2811.49938189847	1392.83337402344
2813.58167913296	1385.58337402344
2815.66340199243	1385.08337402344
2817.74455074734	1385.25
2819.82512566805	1401.41662597656
2821.90512702475	1387.25
2823.98455508754	1397
2826.06341012637	1407.25
2828.14169241109	1417.83337402344
2830.2194022114	1438.16662597656
2832.29653979686	1451.5
2834.37310543694	1478.75
2836.44909940096	1518.33337402344
2838.5245219581	1550.33337402344
2840.59937337744	1578.5
2842.67365392791	1598.83337402344
2844.74736387829	1628.58337402344
2846.82050349727	1634.58337402344
2848.8930730534	1667.5
2850.96507281506	1660
2853.03650305056	1648.83337402344
2855.10736402802	1628.41662597656
2857.17765601545	1634.33337402344
2859.24737928074	1616.91662597656
2861.31653409164	1634.58337402344
2863.38512071574	1634.91662597656
2865.45313942054	1649.75
2867.52059047335	1652.25
2869.58747414139	1661.91662597656
2871.65379069173	1664.08337402344
2873.7195403913	1661.16662597656
2875.78472350688	1696.08337402344
2877.84934030515	1712.33337402344
2879.91339105262	1749.16662597656
2881.97687601567	1770.5
2884.03979546053	1749.25
2886.10214965332	1737.58337402344
2888.16393886	1718.25
2890.22516334639	1719.25
2892.28582337816	1709.75
2894.34591922087	1699.41662597656
2896.40545113992	1692.33337402344
2898.46441940054	1702.91662597656
2900.52282426787	1696.91662597656
2902.58066600687	1701
2904.63794488237	1694.83337402344
2906.69466115906	1674.25
2908.75081510147	1667.33337402344
2910.806406974	1658
2912.8614370409	1620.16662597656
2914.91590556626	1642.41662597656
2916.96981281404	1645.25
2919.02315904807	1639.16662597656
2921.07594453199	1636.75
2923.12816952932	1652.83337402344
2925.17983430343	1636.75
2927.23093911753	1630.25
2929.28148423469	1602.41662597656
2931.33146991782	1606.08337402344
2933.3808964297	1570.08337402344
2935.42976403294	1553.66662597656
2937.47807299	1529.83337402344
2939.5258235632	1513.08337402344
2941.57301601469	1490.16662597656
2943.61965060648	1495.16662597656
2945.66572760042	1502.33337402344
2947.71124725823	1511.58337402344
2949.75620984143	1518.5
2951.80061561143	1516.75
2953.84446482945	1499.25
2955.88775775656	1487
2957.9304946537	1483.41662597656
2959.97267578162	1487.5
2962.01430140095	1480
2964.05537177211	1475.08337402344
2966.09588715541	1457.75
2968.13584781097	1454.83337402344
2970.17525399875	1444.08337402344
2972.21410597859	1411.25
2974.25240401011	1427.58337402344
2976.29014835283	1425.41662597656
2978.32733926604	1422.83337402344
2980.36397700892	1404.41662597656
2982.40006184049	1410.91662597656
2984.43559401955	1408.41662597656
2986.4705738048	1404.41662597656
2988.50500145473	1411.75
2990.53887722771	1421.91662597656
2992.57220138189	1409.25
2994.6049741753	1412.75
2996.63719586576	1409.58337402344
2998.66886671097	1412.16662597656
3000.69998696843	1417.25
3002.73055689549	1420.41662597656
3004.7605767493	1415.66662597656
3006.79004678688	1423.25
3008.81896726505	1411.5
3010.84733844048	1414
3012.87516056966	1418.91662597656
3014.9024339089	1411.91662597656
3016.92915871433	1426.58337402344
3018.95533524196	1426.08337402344
3020.98096374756	1423.41662597656
3023.00604448675	1433.16662597656
3025.030577715	1426.83337402344
3027.05456368757	1427.5
3029.07800265956	1426.08337402344
3031.10089488589	1425.08337402344
3033.12324062131	1439.66662597656
3035.14504012038	1432.58337402344
3037.16629363749	1441.08337402344
3039.18700142685	1436.25
3041.20716374249	1446.16662597656
3043.22678083826	1419
3045.24585296782	1434.33337402344
3047.26438038468	1429.16662597656
3049.28236334212	1431.16662597656
3051.29980209329	1444.75
3053.31669689111	1424
3055.33304798835	1433.75
3057.34885563757	1435.41662597656
3059.36412009117	1436.66662597656
3061.37884160134	1429
3063.39302042011	1434.5
3065.40665679931	1429.16662597656
3067.41975099058	1437.75
3069.43230324538	1432.08337402344
3071.44431381495	1429.25
3073.45578295041	1437.33337402344
3075.46671090261	1434.66662597656
3077.47709792227	1432.58337402344
3079.48694425989	1436.66662597656
3081.49625016578	1423.83337402344
3083.50501589008	1428.33337402344
3085.5132416827	1442.58337402344
3087.5209277934	1434.58337402344
3089.52807447169	1434.75
3091.53468196695	1434.66662597656
3093.54075052832	1435.25
3095.54628040476	1455.16662597656
3097.55127184503	1444.83337402344
3099.55572509769	1436.5
3101.55964041111	1440.66662597656
3103.56301803346	1439.08337402344
3105.5658582127	1451.25
3107.56816119661	1448
3109.56992723275	1454.91662597656
3111.57115656849	1440
3113.571849451	1443.5
3115.57200612724	1440.33337402344
3117.57162684397	1451.08337402344
3119.57071184775	1448.33337402344
3121.56926138493	1448.75
3123.56727570166	1453
3125.56475504389	1460.08337402344
3127.56169965735	1450.08337402344
3129.55810978757	1451.25
3131.55398567987	1453.16662597656
3133.54932757937	1461.41662597656
3135.54413573099	1469.5
3137.53841037939	1458.33337402344
3139.53215176909	1457.33337402344
3141.52536014435	1469.83337402344
3143.51803574924	1466
3145.51017882762	1463.5
3147.50178962311	1472.33337402344
3149.49286837916	1461
3151.48341533897	1478.08337402344
3153.47343074553	1479.83337402344
3155.46291484164	1464.5
3157.45186786985	1470.5
3159.44029007252	1469.5
3161.42818169179	1472.08337402344
3163.41554296955	1478.58337402344
3165.40237414753	1483.16662597656
3167.38867546718	1494.66662597656
3169.37444716975	1467.75
3171.35968949631	1488.33337402344
3173.34440268764	1482.58337402344
3175.32858698436	1479.58337402344
3177.31224262682	1473.58337402344
3179.29536985517	1480.83337402344
3181.27796890934	1481.41662597656
3183.26004002902	1489.16662597656
3185.24158345368	1482.08337402344
3187.22259942256	1493.5
3189.2030881747	1485
3191.18304994886	1489.41662597656
3193.16248498363	1488.91662597656
3195.14139351733	1491.75
3197.11977578807	1487.16662597656
3199.09763203371	1488.91662597656
3201.07496249191	1504.75
3203.05176740007	1496.5
3205.02804699537	1498.08337402344
3207.00380151475	1494
3208.97903119493	1492.25
3210.95373627238	1509.08337402344
3212.92791698335	1507.58337402344
3214.90157356383	1498.83337402344
3216.8747062496	1511.08337402344
3218.84731527619	1514.41662597656
3220.81940087889	1513.16662597656
3222.79096329275	1508.33337402344
3224.76200275259	1505.16662597656
3226.73251949298	1521.75
3228.70251374825	1520.41662597656
3230.67198575251	1517.16662597656
3232.64093573959	1521.41662597656
3234.6093639431	1524.5
3236.57727059641	1531.08337402344
3238.54465593261	1540.25
3240.51152018461	1540.33337402344
3242.47786358502	1536.08337402344
3244.44368636621	1531.41662597656
3246.40898876031	1542.5
3248.37377099923	1549.58337402344
3250.33803331458	1547.25
3252.30177593775	1554.5
3254.26499909987	1545.91662597656
3256.22770303184	1559.66662597656
3258.18988796427	1550.5
3260.15155412755	1543.91662597656
3262.1127017518	1544.66662597656
3264.0733310669	1557.08337402344
3266.03344230246	1554.75
3267.99303568784	1559.41662597656
3269.95211145215	1560.75
3271.91066982422	1568.41662597656
3273.86871103267	1544.16662597656
3275.82623530581	1553.08337402344
3277.7832428717	1560.83337402344
3279.73973395818	1563.41662597656
3281.69570879278	1567.75
3283.6511676028	1578.16662597656
3285.60611061527	1578.66662597656
3287.56053805694	1560.83337402344
3289.51445015432	1564.16662597656
3291.46784713364	1570.25
3293.42072922088	1564.5
3295.37309664173	1574.16662597656
3297.32494962163	1562.75
3299.27628838575	1569.75
3301.227113159	1575.41662597656
3303.17742416601	1578.16662597656
3305.12722163114	1587.83337402344
3307.07650577848	1572.5
3309.02527683185	1580.41662597656
3310.9735350148	1583.16662597656
3312.9212805506	1583.5
3314.86851366225	1586.75
3316.81523457249	1592.75
3318.76144350377	1594.08337402344
3320.70714067825	1568.33337402344
3322.65232631783	1579.08337402344
3324.59700064415	1587.5
3326.54116387854	1575.08337402344
3328.48481624207	1575
3330.42795795551	1586.83337402344
3332.37058923938	1580.75
3334.31271031389	1582.33337402344
3336.25432139898	1579.25
3338.19542271432	1583.66662597656
3340.13601447927	1576.91662597656
3342.07609691292	1584.41662597656
3344.01567023407	1578.75
3345.95473466124	1585.25
3347.89329041266	1587.5
3349.83133770627	1589.5
3351.76887675973	1589.5
3353.70590779039	1575.25
3355.64243101534	1587.41662597656
3357.57844665135	1591
3359.51395491492	1586.33337402344
3361.44895602224	1596.75
3363.38345018922	1603.41662597656
3365.31743763148	1597.41662597656
3367.25091856432	1601.25
3369.18389320278	1593.5
3371.11636176156	1597.41662597656
3373.0483244551	1599.33337402344
3374.97978149754	1601.25
3376.91073310269	1604.41662597656
3378.84117948409	1598.08337402344
3380.77112085498	1603.75
3382.70055742826	1609.25
3384.62948941659	1617.16662597656
3386.55791703227	1603.75
3388.48584048733	1607.33337402344
3390.41325999348	1617.91662597656
3392.34017576214	1636.33337402344
3394.2665880044	1617.33337402344
3396.19249693107	1613.5
3398.11790275263	1622.41662597656
3400.04280567926	1628.83337402344
3401.96720592084	1627.33337402344
3403.89110368692	1622.83337402344
3405.81449918675	1619.16662597656
3407.73739262928	1630
3409.65978422311	1638.33337402344
3411.58167417658	1637.25
3413.50306269768	1640
3415.42394999408	1639.33337402344
3417.34433627316	1637.41662597656
3419.26422174195	1637.08337402344
3421.18360660721	1639.16662597656
3423.10249107532	1634.66662597656
3425.02087535239	1624.58337402344
3426.93875964421	1632.66662597656
3428.8561441562	1640.58337402344
3430.77302909353	1616.91662597656
3432.68941466097	1633.16662597656
3434.60530106301	1640.5
3436.52068850383	1632.75
3438.43557718726	1646.33337402344
3440.34996731681	1645.08337402344
3442.26385909565	1641.08337402344
3444.17725272664	1631.33337402344
3446.09014841231	1636.58337402344
3448.00254635486	1629.08337402344
3449.91444675614	1638.66662597656
3451.82584981771	1638.83337402344
3453.73675574076	1630.75
3455.64716472616	1627.25
3457.55707697445	1624.16662597656
3459.46649268584	1636.08337402344
3461.37541206018	1639.83337402344
3463.28383529703	1627.08337402344
3465.19176259555	1615.83337402344
3467.09919415464	1618.08337402344
3469.00613017278	1620.25
3470.91257084817	1631.91662597656
3472.81851637863	1624.08337402344
3474.72396696168	1613.41662597656
3476.62892279446	1629.25
3478.53338407379	1621.83337402344
3480.43735099614	1613
3482.34082375764	1612.41662597656
3484.24380255404	1622
3486.1462875808	1623.66662597656
3488.048279033	1622.08337402344
3489.94977710537	1614.16662597656
3491.85078199231	1617.91662597656
3493.75129388783	1617.75
3495.65131298566	1618.83337402344
3497.5508394791	1618.5
3499.44987356115	1615.5