201.866871357051	900.75
204.754250281454	915.75
207.640596790938	910.5
210.525911876299	922.75
213.410196525689	918.5
216.293451724508	903.25
219.175678455485	922.5
222.056877698662	910.5
224.937050431388	908.75
227.816197628363	915.25
230.694320261602	919.5
233.571419300504	928.75
236.447495711764	933
239.322550459507	930.25
242.196584505182	940.25
245.069598807626	944.75
247.941594323078	951.5
250.812572005154	950.75
253.682532804884	943.5
256.551477670699	952.25
259.419407548456	948.5
262.286323381439	947
265.152226110364	951.5
268.017116673389	940.75
270.880996006115	942.25
273.743865041622	939.5
276.605724710436	940.25
279.466575940562	941.25
282.326419657496	954
285.1852567842	946.5
288.043088241157	952.75
290.899914946349	947.25
293.75573781526	940.5
296.610557760898	951.25
299.464375693817	952.5
302.317192522078	942.25
305.169009151297	964.5
308.019826484655	960.75
310.86964542287	959.5
313.718466864233	952.75
316.566291704614	951.5
319.413120837457	971.25
322.258955153804	962
325.103795542291	965.25
327.947642889128	960.5
330.79049807819	961.25
333.632361990927	960.75
336.473235506444	967
339.31311950145	960.75
342.152014850322	951
344.989922425062	960
347.826843095354	958.75
350.662777728528	955.75
353.497727189577	971.25
356.331692341195	974
359.164674043732	979
361.996673155267	981.75
364.827690531536	986.25
367.65772702602	968.5
370.486783489887	974
373.314860772047	980.75
376.14195971912	982.75
378.968081175466	987.5
381.793225983212	981.5
384.617394982201	982
387.44058901005	992.5
390.262808902131	992
393.08405549161	1018
395.904329609395	1040
398.723632084213	1042
401.541963742569	1032
404.359325408779	1020.5
407.175717904938	1016.75
409.991142050982	1010.75
412.805598664665	989
415.619088561551	1014.25
418.43161255505	1004
421.243171456415	999.5
424.053766074758	1019.25
426.863397217017	1014.75
429.672065688024	1005
432.479772290455	1018.5
435.286517824879	1012.75
438.092303089736	1018.25
440.897128881359	1033
443.70099599399	1018.25
446.503905219761	1032.75
449.305857348711	1034
452.106853168796	1047.75
454.906893465919	1035.5
457.705979023885	1035.75
460.504110624439	1050
463.3012890473	1014
466.097515070087	1011.75
468.892789468424	1017.25
471.687113015869	1010.5
474.48048648395	1012
477.272910642198	1008
480.064386258109	1008.75
482.854914097159	1022
485.644494922839	1014
488.433129496636	1017
491.220818578047	1021
494.007562924584	1017
496.793363291785	1030.5
499.578220433217	1021
502.362135100473	1034.75
505.145108043209	1033.5
507.927140009098	1042.25
510.708231743909	1029
513.488383991433	1021.75
516.267597493556	1041.75
519.04587299022	1037.25
521.82321121946	1031.25
524.599612917398	1045
527.375078818233	1044.5
530.149609654287	1022
532.923206155967	1040.75
535.695869051804	1044.25
538.467599068448	1043.25
541.238396930665	1036.75
544.008263361364	1023.25
546.777199081578	1031
549.545204810493	1042.25
552.312281265436	1027.75
555.078429161898	1032.5
557.843649213533	1032.75
560.607942132156	1035.75
563.371308627753	1035
566.133749408495	1029.5
568.895265180756	1043.75
571.655856649064	1031
574.415524516189	1035
577.174269483075	1040.5
579.932092248884	1048.5
582.688993510994	1057.75
585.444973965023	1039
588.200034304795	1051.25
590.95417522237	1058.75
593.70739740807	1053.5
596.459701550433	1050.25
599.21108833628	1060
601.961558450668	1040
604.711112576933	1047.5
607.459751396673	1050.5
610.207475589748	1057.5
612.954285834338	1051.25
615.700182806879	1043
618.445167182101	1057.25
621.189239633055	1042.75
623.932400831087	1055.5
626.674651445839	1041
629.415992145303	1045.25
632.156423595745	1042.25
634.895946461813	1038.25
637.634561406449	1043.75
640.37226909096	1043
643.109070174978	1053.75
645.844965316508	1037.5
648.579955171888	1036
651.314040395846	1059.75
654.047221641456	1053.75
656.779499560176	1039.25
659.510874801828	1034.75
662.241348014642	1059
664.97091984524	1065.5
667.699590938606	1061.75
670.427361938164	1058.75
673.15423348573	1051
675.880206221526	1072
678.605280784206	1057.5
681.329457810829	1048.25
684.05273793692	1050.5
686.775121796389	1059.5
689.49661002163	1053.75
692.217203243454	1052.5
694.936902091144	1045.5
697.655707192425	1053.5
700.373619173493	1049
703.09063865901	1041
705.806766272093	1038
708.522002634378	1069.5
711.236348365946	1058.75
713.94980408538	1045.25
716.662370409762	1059.75
719.374047954676	1050.75
722.08483733419	1065
724.794739160909	1065.25
727.503754045949	1057.5
730.21188259892	1059
732.919125427998	1045.75
735.625483139855	1070.5
738.330956339723	1063.25
741.035545631374	1054.5
743.739251617106	1064.5
746.44207489779	1074
749.144016072852	1067.75
751.845075740272	1081.25
754.545254496603	1055
757.244552936976	1066.5
759.94297165508	1059
762.640511243222	1059.25
765.337172292249	1069.75
768.032955391649	1078
770.727861129482	1068
773.421890092413	1074.5
776.11504286572	1080.5
778.807320033298	1080.75
781.49872217765	1074.25
784.18924987991	1060
786.87890371984	1056.5
789.567684275826	1072.5
792.255592124908	1081.5
794.94262784276	1079
797.628792003703	1093
800.314085180715	1089.5
802.998507945427	1142.5
805.682060868145	1199.5
808.364744517821	1260.25
811.046559462105	1235.25
813.727506267311	1180.25
816.407585498422	1112
819.08679771913	1092.75
821.765143491822	1080.25
824.442623377563	1101
827.119237936127	1102.25
829.794987726003	1100
832.469873304377	1086.75
835.143895227167	1110.5
837.817054048985	1124.25
840.489350323205	1108.5
843.160784601892	1111.75
845.831357435894	1097.75
848.501069374739	1095
851.169920966753	1088.5
853.837912758987	1088.25
856.505045297232	1100.5
859.171319126071	1103
861.836734788823	1077
864.501292827579	1086.5
867.164993783208	1075.5
869.827838195361	1077.25
872.489826602454	1088.5
875.150959541701	1097.75
877.811237549104	1077.5
880.470661159456	1088
883.129230906357	1084.5
885.786947322205	1093.25
888.443810938206	1091
891.099822284385	1094.5
893.754981889586	1079.25
896.409290281452	1094.5
899.062747986485	1094.25
901.715355529999	1084.75
904.367113436154	1095.75
907.01802222793	1099.25
909.668082427172	1092.75
912.317294554574	1090.5
914.965659129659	1091.75
917.613176670835	1092.5
920.259847695364	1090.5
922.90567271936	1088.75
925.550652257825	1096.25
928.194786824621	1107.75
930.838076932512	1096.5
933.480523093109	1093.25
936.122125816953	1101.5
938.762885613447	1120
941.402802990899	1128
944.041878456523	1124.5
946.680112516428	1121
949.31750567563	1102.25
951.954058438081	1115.5
954.589771306633	1112.5
957.224644783048	1122.25
959.858679368044	1115
962.491875561238	1131.75
965.12423386121	1154.75
967.75575476545	1154.5
970.386438770423	1194.25
973.016286371501	1217.5
975.645298063046	1184.75
978.273474338355	1153.25
980.900815689674	1105
983.527322608243	1111
986.152995584245	1121
988.777835106834	1116.75
991.401841664148	1103.75
994.025015743307	1129.75
996.647357830407	1105.5
999.268868410534	1122.25
1001.88954796777	1120.75
1004.50939698518	1112.25
1007.12841594484	1127.25
1009.74660532783	1126.25
1012.36396561423	1126
1014.98049728314	1127
1017.59620081267	1120.25
1020.21107667995	1118.25
1022.82512536112	1109.25
1025.43834733138	1125
1028.05074306493	1138.75
1030.66231303501	1145.25
1033.27305771392	1143.25
1035.88297757299	1143
1038.49207308257	1153.75
1041.10034471211	1127.75
1043.70779293008	1123.25
1046.31441820402	1133
1048.92022100052	1139.25
1051.52520178525	1141
1054.12936102295	1148
1056.73269917742	1132.5
1059.33521671154	1142.25
1061.93691408729	1140.75
1064.53779176571	1146.25
1067.13785020694	1146.5
1069.73708987022	1134
1072.33551121386	1134.25
1074.93311469528	1141.5
1077.52990077103	1128.5
1080.12586989674	1141.25
1082.72102252714	1156.75
1085.31535911611	1155.25
1087.90888011663	1164
1090.50158598078	1148.25
1093.09347715979	1142.25
1095.68455410403	1135.5
1098.27481726296	1142.75
1100.86426708523	1133.75
1103.45290401857	1145.25
1106.04072850991	1147.75
1108.6277410053	1146.25
1111.21394194993	1152.25
1113.79933178816	1153.75
1116.3839109635	1142.25
1118.96767991862	1171
1121.55063909539	1157
1124.13278893477	1149.5
1126.71412987696	1166.5
1129.29466236132	1171.25
1131.87438682637	1168.75
1134.45330370982	1172.5
1137.03141344858	1157
1139.60871647872	1169.75
1142.18521323554	1187.25
1144.7609041535	1192.75
1147.33578966629	1203.5
1149.90987020676	1208
1152.48314620702	1206.75
1155.05561809835	1208.75
1157.62728631125	1225.5
1160.19815127545	1235.75
1162.76821341988	1265.5
1165.33747317271	1273
1167.90593096133	1296
1170.47358721235	1276
1173.04044235163	1250.5
1175.60649680425	1239.5
1178.17175099454	1222.5
1180.73620534607	1199
1183.29986028165	1187.75
1185.86271622336	1199
1188.42477359249	1170.5
1190.98603280964	1183.25
1193.54649429462	1177.75
1196.10615846653	1177.5
1198.66502574372	1178
1201.22309654385	1160
1203.78037128378	1179.75
1206.33685037971	1180.75
1208.89253424709	1176
1211.44742330063	1174.25
1214.00151795438	1185.5
1216.55481862163	1182.75
1219.10732571497	1198.75
1221.65903964631	1187
1224.20996082683	1184.5
1226.760089667	1169
1229.30942657664	1179
1231.85797196483	1196.75
1234.40572623998	1181.25
1236.95268980981	1190.75
1239.49886308136	1189
1242.04424646098	1182.25
1244.58884035435	1215.75
1247.13264516647	1194.5
1249.67566130166	1210.25
1252.21788916358	1197.5
1254.75932915524	1222.5
1257.29998167896	1223.75
1259.83984713639	1215.75
1262.37892592857	1209.75
1264.91721845586	1204.75
1267.45472511795	1204.5
1269.9914463139	1205.75
1272.52738244213	1213.25
1275.0625339004	1204.25
1277.59690108587	1228.5
1280.130484395	1219.75
1282.66328422367	1222.5
1285.19530096712	1220.5
1287.72653501993	1228
1290.25698677608	1236.75
1292.78665662894	1235.75
1295.31554497125	1245.25
1297.8436521951	1248.25
1300.37097869203	1253.5
1302.89752485292	1252.75
1305.42329106805	1245.5
1307.94827772713	1246.5
1310.47248521921	1257.5
1312.99591393279	1235.5
1315.51856425575	1249.5
1318.04043657536	1240.25
1320.56153127836	1255
1323.08184875083	1277.75
1325.6013893783	1289.25
1328.12015354572	1314.5
1330.63814163744	1309
1333.15535403727	1301.5
1335.67179112839	1301.5
1338.18745329347	1294.5
1340.70234091454	1289.5
1343.21645437314	1268.75
1345.72979405019	1285
1348.24236032607	1276
1350.75415358059	1282.75
1353.26517419303	1276.75
1355.7754225421	1287.5
1358.28489900594	1330.25
1360.79360396218	1321.25
1363.30153778787	1315
1365.80870085955	1302.25
1368.31509355319	1286.25
1370.82071624424	1295.75
1373.32556930762	1307.5
1375.8296531177	1299.5
1378.33296804832	1278.75
1380.83551447282	1285.25
1383.33729276399	1274.75
1385.83830329408	1281.25
1388.33854643489	1283
1390.83802255762	1280.5
1393.33673203301	1278
1395.83467523128	1280
1398.33185252211	1279.25
1400.82826427471	1278.25
1403.32391085777	1279
1405.81879263947	1294.25
1408.31290998752	1290.25
1410.80626326908	1287.75
1413.29885285087	1299.75
1415.79067909909	1281.75
1418.28174237944	1301.5
1420.77204305717	1310
1423.26158149702	1290
1425.75035806323	1306
1428.2383731196	1301.25
1430.72562702942	1303.25
1433.21212015554	1358.25
1435.69785286028	1362.75
1438.18282550555	1377.75
1440.66703845275	1368.25
1443.15049206284	1368
1445.6331866963	1375.5
1448.11512271316	1364.5
1450.59630047298	1398
1453.07672033486	1401.75
1455.55638265748	1448.75
1458.03528779902	1439.25
1460.51343611725	1442
1462.99082796946	1431.25
1465.46746371252	1394.5
1467.94334370285	1390.25
1470.41846829642	1372.75
1472.89283784878	1378.5
1475.36645271503	1377.25
1477.83931324983	1373.25
1480.31141980743	1366.5
1482.78277274164	1382
1485.25337240583	1378.75
1487.72321915297	1359.25
1490.19231333557	1368.75
1492.66065530578	1379.25
1495.12824541525	1377.25
1497.5950840153	1379.5
1500.06117145678	1361
1502.52650809014	1395.25
1504.99109426543	1377.5
1507.45493033227	1399.75
1509.91801663992	1382.25
1512.38035353717	1401
1514.84194137248	1398.75
1517.30278049386	1390.75
1519.76287124894	1407.5
1522.22221398497	1391.75
1524.68080904876	1385.75
1527.13865678681	1373
1529.59575754514	1403
1532.05211166945	1413.75
1534.50771950503	1411
1536.96258139678	1417.25
1539.41669768924	1417
1541.87006872656	1430.75
1544.32269485252	1406
1546.77457641051	1443.5
1549.22571374357	1432.75
1551.67610719434	1442.5
1554.12575710513	1446.75
1556.57466381785	1450.25
1559.02282767408	1439
1561.47024901499	1457.25
1563.91692818144	1452.25
1566.3628655139	1480.5
1568.80806135249	1473.75
1571.252516037	1476.75
1573.6962299068	1490
1576.13920330099	1480.75
1578.58143655828	1495.25
1581.02293001704	1493.5
1583.46368401528	1496.5
1585.90369889071	1464.5
1588.34297498065	1504.75
1590.7815126221	1498
1593.21931215173	1504
1595.65637390588	1508.75
1598.09269822053	1540.25
1600.52828543135	1529.25
1602.96313587367	1543.75
1605.3972498825	1532.5
1607.83062779252	1532
1610.26326993808	1545
1612.69517665322	1541.5
1615.12634827165	1527.25
1617.55678512676	1514
1619.98648755163	1498.25
1622.41545587902	1500
1624.84369044138	1510.75
1627.27119157085	1500.25
1629.69795959924	1512.5
1632.12399485808	1499
1634.54929767859	1515.5
1636.97386839165	1522
1639.39770732789	1524.75
1641.8208148176	1524.75
1644.24319119078	1512.75
1646.66483677715	1517.5
1649.0857519061	1515.5
1651.50593690677	1502
1653.92539210795	1525.75
1656.3441178382	1540.75
1658.76211442575	1525.5
1661.17938219855	1537.25
1663.59592148428	1557.5
1666.01173261032	1535.5
1668.42681590377	1551
1670.84117169145	1558.75
1673.25480029991	1563.5
1675.66770205541	1554.25
1678.07987728393	1573
1680.49132631119	1573.25
1682.90204946263	1582
1685.31204706342	1570.75
1687.72131943846	1581.25
1690.1298669124	1580.5
1692.53768980957	1595
1694.94478845411	1586.25
1697.35116316982	1587.5
1699.75681428031	1609
1702.16174210887	1608.5
1704.56594697858	1592.25
1706.96942921222	1611.5
1709.37218913235	1596.5
1711.77422706125	1578.75
1714.17554332098	1595.75
1716.5761382333	1585
1718.97601211977	1605.5
1721.37516530169	1588.75
1723.77359810006	1589
1726.17131083572	1607.25
1728.56830382922	1606.75
1730.96457740087	1603.25
1733.36013187075	1606.5
1735.75496755868	1590.75
1738.14908478428	1595.5
1740.54248386689	1584.5
1742.93516512565	1603.25
1745.32712887946	1620.25
1747.71837544697	1603.75
1750.10890514662	1612.75
1752.49871829661	1595.25
1754.88781521492	1620.5
1757.27619621929	1638.75
1759.66386162726	1627.5
1762.05081175612	1627.25
1764.43704692297	1633.5
1766.82256744465	1606
1769.20737363782	1629.75
1771.59146581887	1636.25
1773.97484430405	1642.75
1776.35750940932	1655.5
1778.73946145048	1634.5
1781.12070074309	1669.75
1783.50122760249	1670
1785.88104234385	1652.75
1788.26014528209	1682.75
1790.63853673196	1655.5
1793.01621700796	1670.25
1795.39318642443	1673.75
1797.76944529549	1675.5
1800.14499393503	1689.75
1802.51983265681	1681.5
1804.8939617743	1688.75
1807.26738160085	1718.5
1809.64009244957	1725.5
1812.01209463339	1690.25
1814.38338846504	1701
1816.75397425706	1708.5
1819.12385232181	1697
1821.49302297142	1690.25
1823.86148651789	1712.25
1826.22924327299	1686.75
1828.59629354831	1704.75
1830.96263765526	1710.5
1833.32827590507	1705.25
1835.69320860877	1730
1838.05743607724	1729.25
1840.42095862113	1697.25
1842.78377655097	1724.25
1845.14589017707	1732.75
1847.50729980956	1715.5
1849.86800575843	1731.75
1852.22800833346	1702.25
1854.58730784427	1752
1856.94590460032	1722.25
1859.30379891087	1762.5
1861.66099108503	1759
1864.01748143175	1767.75
1866.37327025978	1746.5
1868.72835787773	1759
1871.08274459403	1746.75
1873.43643071697	1765.25
1875.78941655464	1773.25
1878.14170241498	1773.75
1880.4932886058	1752.25
1882.84417543469	1771
1885.19436320915	1782
1887.54385223646	1772.75
1889.89264282378	1798.25
1892.24073527809	1803.25
1894.58812990625	1788
1896.93482701493	1833.25
1899.28082691067	1793
1901.62612989984	1844.25
1903.97073628868	1831.5
1906.31464638326	1831.25
1908.6578604895	1818.5
1911.00037891321	1846.5
1913.34220196	1849.75
1915.68332993537	1840.75
1918.02376314468	1852
1920.36350189311	1848.75
1922.70254648573	1883.75
1925.04089722744	1840.25
1927.37855442303	1898
1929.71551837715	1878.25
1932.05178939426	1841.5
1934.38736777876	1858
1936.72225383484	1867
1939.0564478666	1887.5
1941.38995017799	1857
1943.72276107283	1884.5
1946.05488085479	1871.75
1948.38630982744	1836.25
1950.71704829419	1874.25
1953.04709655832	1868.75
1955.376454923	1897.25
1957.70512369126	1870.75
1960.03310316599	1861.5
1962.36039364999	1846.75
1964.68699544589	1876.75
1967.01290885622	1875
1969.33813418338	1876
1971.66267172965	1884.25
1973.98652179718	1891.75
1976.309684688	1879.25
1978.63216070402	1876
1980.95395014705	1904.25
1983.27505331873	1894.25
1985.59547052063	1887.5
1987.9152020542	1899.25
1990.23424822074	1874.5
1992.55260932146	1919.5
1994.87028565746	1895
1997.18727752968	1919.75
1999.503585239	1919.75
2001.81920908618	1912.5
2004.13414937184	1922
2006.44840639651	1944
2008.7619804606	1942.25
2011.07487186442	1931
2013.38708090815	1955.5
2015.6986078919	1937.75
2018.00945311564	1962
2020.31961687923	1980.5
2022.62909948246	1991
2024.93790122498	1990.25
2027.24602240636	1979.5
2029.55346332604	1983.75
2031.86022428337	2002.75
2034.16630557761	2005.75
2036.47170750791	2000.5
2038.77643037331	2004.25
2041.08047447275	2020.25
2043.38384010509	1992.5
2045.68652756907	2001
2047.98853716335	1992.25
2050.28986918648	2000.25
2052.59052393692	2016.25
2054.89050171302	2037.75
2057.18980281306	2020
2059.4884275352	2044.75
2061.78637617753	2026.25
2064.08364903802	2017
2066.38024641457	2007.75
2068.67616860497	2044.25
2070.97141590694	2032.75
2073.26598861809	2038.5
2075.55988703595	2009.75
2077.85311145796	2025
2080.14566218145	2026.75
2082.43753950371	2040.25
2084.72874372188	2053.25
2087.01927513307	2034.5
2089.30913403428	2039.25
2091.59832072241	2056
2093.88683549429	2031
2096.17467864666	2060.75
2098.46185047619	2076
2100.74835127944	2060
2103.03418135292	2077.25
2105.31934099303	2035
2107.6038304961	2068.75
2109.88765015838	2067.25
2112.17080027602	2076.5
2114.45328114513	2106.75
2116.7350930617	2099.25
2119.01623632165	2097.25
2121.29671122085	2092.75
2123.57651805505	2112.25
2125.85565711996	2108
2128.13412871117	2097.25
2130.41193312424	2117
2132.68907065462	2138.25
2134.96554159771	2134.75
2137.24134624881	2114
2139.51648490317	2131.75
2141.79095785593	2121.5
2144.0647654022	2156.75
2146.33790783698	2132.25
2148.61038545524	2152.75
2150.88219855182	2164
2153.15334742154	2154.25
2155.42383235911	2172.75
2157.6936536592	2162.75
2159.9628116164	2152.25
2162.23130652522	2165.75
2164.49913868011	2165.25
2166.76630837544	2158.75
2169.03281590552	2190
2171.2986615646	2153.25
2173.56384564685	2177
2175.82836844637	2144.75
2178.0922302572	2192
2180.35543137332	2165.5
2182.61797208862	2185.25
2184.87985269695	2175.5
2187.14107349208	2180.75
2189.40163476773	2183.5
2191.66153681753	2162.25
2193.92077993507	2157.75
2196.17936441386	2158.25
2198.43729054735	2165.25
2200.69455862894	2176.75
2202.95116895194	2169.25
2205.20712180962	2168.5
2207.46241749519	2177.25
2209.71705630179	2150.25
2211.97103852248	2161.75
2214.2243644503	2162.25
2216.47703437819	2157.75
2218.72904859905	2147
2220.98040740571	2134
2223.23111109095	2153
2225.4811599475	2142.5
2227.73055426799	2155.25
2229.97929434504	2150.25
2232.22738047118	2147
2234.47481293889	2132.5
2236.72159204058	2163.75
2238.96771806864	2158
2241.21319131536	2131
2243.458012073	2162.25
2245.70218063374	2165.5
2247.94569728973	2179.25
2250.18856233304	2158.25
2252.4307760557	2143
2254.67233874967	2121.75
2256.91325070687	2137.25
2259.15351221915	2160
2261.39312357831	2137
2263.63208507611	2120.75
2265.87039700422	2141.5
2268.1080596543	2151
2270.34507331792	2128.25
2272.5814382866	2133.25
2274.81715485183	2124.75
2277.05222330502	2125.75
2279.28664393755	2142.75
2281.52041704072	2144.75
2283.75354290581	2106.75
2285.98602182401	2137.25
2288.21785408648	2122
2290.44903998434	2127.75
2292.67957980862	2144.5
2294.90947385033	2136
2297.1387224004	2114.25
2299.36732574975	2135.25
2301.59528418921	2152.5
2303.82259800958	2121.75
2306.04926750158	2124.75
2308.27529295593	2123.5
2310.50067466325	2117.5
2312.72541291412	2122.75
2314.9495079991	2125
2317.17296020866	2108
2319.39576983323	2141.5
2321.61793716322	2107
2323.83946248894	2109
2326.06034610069	2102.25
2328.28058828871	2112
2330.50018934317	2105.75
2332.7191495542	2122
2334.93746921192	2102.5
2337.15514860633	2127
2339.37218802743	2119.5
2341.58858776516	2118.5
2343.80434810941	2097
2346.01946935001	2118.25
2348.23395177675	2110
2350.44779567939	2105.25
2352.66100134759	2088.5
2354.87356907101	2117.25
2357.08549913925	2125
2359.29679184185	2108.75
2361.50744746829	2137.75
2363.71746630804	2102
2365.92684865048	2097.5
2368.13559478499	2082.25
2370.34370500083	2104.5
2372.55117958727	2070
2374.75801883352	2100.75
2376.96422302874	2060.75
2379.16979246202	2079.75
2381.37472742243	2077.75
2383.57902819898	2077.75
2385.78269508063	2070.25
2387.98572835629	2069.75
2390.18812831482	2066.5
2392.38989524505	2067
2394.59102943573	2061
2396.79153117559	2059.25
2398.9914007533	2056
2401.19063845748	2073.25
2403.38924457672	2062
2405.58721939951	2032.25
2407.78456321435	2054.5
2409.98127630966	2025.25
2412.17735897382	2016.5
2414.37281149517	2046.25
2416.56763416198	2030.75
2418.76182726249	2044.5
2420.95539108487	2059.75
2423.14832591726	2037.25
2425.34063204776	2037.5
2427.53230976439	2048.25
2429.72335935513	2034.25
2431.91378110795	2035
2434.10357531071	2030.5
2436.29274225125	2049
2438.48128221739	2019.75
2440.66919549683	2033.5
2442.8564823773	2037.25
2445.04314314641	2028
2447.22917809176	2019.5
2449.4145875009	2030
2451.59937166131	2028.5
2453.78353086044	2027.25
2455.96706538568	2012.25
2458.14997552436	2005
2460.33226156379	2012.5
2462.51392379119	2045
2464.69496249376	2015
2466.87537795862	2005.5
2469.05517047288	2006
2471.23434032357	2022.5
2473.41288779767	2020
2475.59081318211	2018.25
2477.76811676378	2004.75
2479.9447988295	2010
2482.12085966605	1981.25
2484.29629956016	2006
2486.4711187985	1980
2488.64531766769	2015.75
2490.8188964543	1985
2492.99185544484	2004.5
2495.16419492579	2008.25
2497.33591518353	2031
2499.50701650444	2018.25
2501.67749917482	1980
2503.84736348091	2007
2506.01660970891	1995.75
2508.18523814496	2005.5
2510.35324907514	1990.5
2512.52064278551	1991
2514.68741956201	2000.25
2516.85357969058	2005
2519.01912345709	2008.5
2521.18405114735	2000.25
2523.34836304711	1998
2525.51205944208	2001.5
2527.6751406179	1976.5
2529.83760686016	1989.75
2531.99945845439	1986.25
2534.16069568606	2027.25
2536.3213188406	2022
2538.48132820336	1983.75
2540.64072405965	2004
2542.79950669471	1989.5
2544.95767639373	1997.25
2547.11523344184	2017.25
2549.27217812411	2002.75
2551.42851072555	2000.5
2553.58423153111	2003.5
2555.73934082569	1990.25
2557.89383889412	1980.5
2560.04772602118	1988
2562.20100249158	1991
2564.35366858996	1978
2566.50572460093	1989
2568.65717080901	1969.75
2570.80800749867	1970.25
2572.95823495433	1965
2575.10785346031	1974.5
2577.25686330093	1956.25
2579.40526476038	1943.25
2581.55305812282	1962.5
2583.70024367237	1938.5
2585.84682169303	1972.25
2587.99279246879	1938.5
2590.13815628354	1932.75
2592.28291342112	1965.25
2594.42706416531	1948
2596.5706087998	1932.25
2598.71354760826	1941.75
2600.85588087425	1965.5
2602.99760888127	1936.5
2605.13873191278	1952
2607.27925025214	1935.25
2609.41916418269	1953.75
2611.55847398764	1933
2613.69717995017	1931.25
2615.83528235339	1969.25
2617.97278148034	1952.25
2620.10967761398	1954.5
2622.2459710372	1942
2624.38166203284	1943.5
2626.51675088365	1947
2628.65123787231	1957
2630.78512328145	1955.25
2632.9184073936	1954.5
2635.05109049124	1950
2637.18317285676	1954
2639.31465477248	1942
2641.44553652067	1983.25
2643.5758183835	1953.5
2645.70550064309	1963
2647.83458358144	1976.5
2649.96306748053	1962
2652.09095262223	1981.75
2654.21823928836	1983.25
2656.34492776063	1946
2658.47101832071	1948
2660.59651125015	1964.25
2662.72140683047	1943.75
2664.84570534309	1964.25
2666.96940706934	1956.5
2669.0925122905	1940
2671.21502128773	1932.75
2673.33693434215	1957
2675.45825173479	1955.5
2677.57897374658	1955
2679.69910065839	1957
2681.818632751	1932.75
2683.93757030511	1965
2686.05591360133	1972.25
2688.17366292021	1968
2690.29081854218	1951.25
2692.40738074762	1951.25
2694.52334981681	1955.25
2696.63872602995	1966.25
2698.75350966713	1973.5
2700.86770100841	1964.75
2702.98130033371	1971
2705.09430792289	1964.25
2707.20672405571	1981.5
2709.31854901185	1984.25
2711.42978307091	1987
2713.54042651238	1984.25
2715.65047961567	2010.75
2717.7599426601	1998
2719.86881592491	2006.25
2721.97709968924	1989
2724.08479423213	1987.75
2726.19189983255	2023.5
2728.29841676934	1995
2730.4043453213	1985
2732.5096857671	1978.5
2734.61443838532	1995.5
2736.71860345444	1972.75
2738.82218125286	1971.5
2740.92517205889	2007
2743.02757615072	1987.75
2745.12939380646	1976
2747.23062530411	1984.75
2749.33127092159	1993.75
2751.4313309367	1970
2753.53080562716	1982.75
2755.62969527058	1992.75
2757.72800014448	1982
2759.82572052625	1987.75
2761.92285669323	1941.25
2764.0194089226	1971.25
2766.11537749147	1957
2768.21076267686	1963.5
2770.30556475566	1967.25
2772.39978400465	1997.75
2774.49342070054	1988.75
2776.58647511991	1990
2778.67894753923	1981.75
2780.77083823487	1987.25
2782.8621474831	1981.25
2784.95287556007	1996.75
2787.04302274184	1967.25
2789.13258930433	2004.25
2791.22157552338	1956.5
2793.30998167471	1971
2795.39780803392	2017.25
2797.4850548765	1979.25
2799.57172247786	1991
2801.65781111324	1960.5
2803.74332105781	1997.5
2805.82825258661	1975.5
2807.91260597457	1990.75
2809.9963814965	1999.25
2812.07957942711	1989.25
2814.16220004096	1978
2816.24424361252	1979
2818.32571041614	1984.5
2820.40660072604	1978
2822.48691481631	2035.75
2824.56665296098	2017.25
2826.64581543388	2024.25
2828.72440250876	2061.75
2830.80241445925	2112
2832.87985155885	2157.5
2834.95671408093	2194.25
2837.03300229875	2295.5
2839.10871648544	2333.25
2841.18385691399	2358.25
2843.25842385729	2288.75
2845.33241758808	2264.75
2847.40583837898	2238.5
2849.4786865025	2210.75
2851.550962231	2213.75
2853.6226658367	2189.75
2855.69379759173	2226.25
2857.76435776806	2220.75
2859.83434663753	2257.75
2861.90376447184	2324.5
2863.97261154259	2438.5
2866.0408881212	2489
2868.10859447901	2525.25
2870.17573088717	2533
2872.24229761673	2532.75
2874.30829493859	2548
2876.37372312352	2604.5
2878.43858244215	2635
2880.50287316496	2687.25
2882.56659556231	2687.75
2884.62974990439	2703
2886.69233646129	2646.75
2888.75435550293	2589.25
2890.81580729909	2561
2892.87669211941	2503.75
2894.93701023339	2484.5
2896.99676191039	2481.25
2899.05594741961	2511
2901.1145670301	2510
2903.1726210108	2524.75
2905.23010963045	2565
2907.28703315768	2565.25
2909.34339186096	2559.25
2911.39918600861	2513
2913.45441586879	2444
2915.50908170952	2456.25
2917.56318379867	2463.75
2919.61672240395	2460.5
2921.66969779291	2446
2923.72211023295	2452.25
2925.77395999134	2414
2927.82524733515	2427.5
2929.87597253132	2372.25
2931.92613584663	2348.5
2933.97573754769	2322.5
2936.02477790097	2279
2938.07325717276	2258.75
2940.1211756292	2250.75
2942.16853353626	2252.5
2944.21533115976	2266
2946.26156876536	2297.75
2948.30724661853	2388.5
2950.3523649846	2439.25
2952.39692412872	2483.25
2954.44092431587	2536.75
2956.48436581089	2622.5
2958.52724887843	2742
2960.56957378296	2806
2962.6113407888	2799.75
2964.65255016011	2709.25
2966.69320216083	2645.5
2968.73329705479	2509.75
2970.77283510559	2437.25
2972.81181657671	2361.25
2974.8502417314	2282.75
2976.88811083279	2230
2978.92542414378	2215.25
2980.96218192713	2190.5
2982.99838444541	2159.25
2985.034031961	2150.25
2987.06912473612	2149
2989.1036630328	2128.25
2991.13764711288	2139.75
2993.17107723804	2112.5
2995.20395366974	2127.75
2997.23627666931	2120
2999.26804649782	2104
3001.29926341624	2137.25
3003.32992768528	2123.5
3005.3600395655	2120.75
3007.38959931726	2135.5
3009.41860720076	2106.25
3011.44706347595	2146.25
3013.47496840263	2125.5
3015.50232224041	2150
3017.5291252487	2144.25
3019.5553776867	2114
3021.58107981344	2149.5
3023.60623188773	2148.5
3025.63083416822	2161.25
3027.65488691331	2151.5
3029.67839038125	2160.25
3031.70134483007	2148.5
3033.72375051759	2141.75
3035.74560770144	2155.75
3037.76691663907	2172.5
3039.78767758768	2172.75
3041.80789080431	2142.75
3043.82755654577	2172.5
3045.84667506867	2177
3047.8652466294	2180.25
3049.88327148418	2173.75
3051.90074988899	2178.5
3053.91768209961	2160
3055.9340683716	2163
3057.94990896033	2162
3059.96520412095	2160.75
3061.97995410838	2203.5
3063.99415917734	2174.25
3066.00781958234	2175
3068.02093557766	2173.25
3070.03350741738	2164.25
3072.04553535535	2187.5
3074.05701964521	2154.75
3076.06796054036	2165
3078.078358294	2173.5
3080.08821315912	2148.75
3082.09752538846	2198
3084.10629523454	2139.5
3086.11452294967	2163.75
3088.12220878592	2186.75
3090.12935299515	2184.75
3092.13595582898	2192.5
3094.1420175388	2177.25
3096.14753837579	2180
3098.15251859088	2166.75
3100.15695843477	2182
3102.16085815793	2164
3104.16421801061	2175.75
3106.16703824282	2170.5
3108.16931910432	2188.75
3110.17106084464	2206.75
3112.17226371308	2185
3114.17292795872	2177.75
3116.17305383034	2180.75
3118.17264157657	2186.5
3120.17169144571	2202.25
3122.17020368587	2186.25
3124.16817854492	2194
3126.16561627044	2194.75
3128.16251710982	2201.25
3130.15888131017	2226.75
3132.15470911837	2232.75
3134.15000078104	2224.25
3136.14475654455	2205
3138.13897665502	2244.25
3140.13266135835	2219.25
3142.12581090014	2219.75
3144.11842552577	2253.5
3146.11050548036	2236.5
3148.10205100875	2223
3150.09306235557	2270.5
3152.08353976515	2213.25
3154.07348348158	2215.5
3156.06289374869	2238.25
3158.05177081006	2207.5
3160.04011490899	2230.5
3162.02792628852	2235.75
3164.01520519145	2236.25
3166.00195186029	2220
3167.98816653728	2243
3169.97384946442	2240.25
3171.95900088344	2227
3173.94362103577	2213
3175.92771016259	2224.5
3177.91126850484	2243.5
3179.89429630312	2249.5
3181.87679379782	2236
3183.85876122903	2226.25
3185.84019883657	2236.25
3187.82110685997	2267.5
3189.80148553851	2235.5
3191.78133511116	2273.75
3193.76065581664	2267
3195.73944789337	2274.5
3197.7177115795	2277.25
3199.6954471129	2248
3201.67265473114	2252.5
3203.64933467153	2234
3205.62548717107	2248.75
3207.60111246648	2293
3209.57621079421	2287
3211.55078239041	2279
3213.52482749093	2273
3215.49834633133	2290.5
3217.4713391469	2280
3219.44380617262	2287.75
3221.41574764317	2287.25
3223.38716379296	2269.5
3225.35805485607	2310.25
3227.32842106631	2312.25
3229.29826265718	2327.25
3231.26757986187	2301.5
3233.2363729133	2325
3235.20464204405	2318
3237.17238748643	2301
3239.13960947243	2322.25
3241.10630823374	2350.5
3243.07248400174	2321.25
3245.03813700748	2335.25
3247.00326748177	2309
3248.96787565503	2306
3250.93196175742	2339.25
3252.89552601877	2346.75
3254.8585686686	2309.75
3256.82108993612	2341
3258.78309005022	2336.75
3260.74456923948	2301.5
3262.70552773215	2362.75
3264.66596575617	2357.75
3266.62588353916	2343
3268.58528130843	2336.25
3270.54415929094	2309.5
3272.50251771336	2334.75
3274.46035680201	2354.75
3276.4176767829	2350.75
3278.37447788171	2351.5
3280.33076032379	2357
3282.28652433416	2347.25
3284.24177013751	2359.25
3286.1964979582	2360.75
3288.15070802027	2357.75
3290.10440054741	2362.5
3292.05757576298	2341
3294.01023389001	2351.5
3295.96237515119	2368.5
3297.91399976887	2351.25
3299.86510796506	2368
3301.81569996142	2352.25
3303.76577597932	2364
3305.7153362397	2340.25
3307.66438096324	2349.5
3309.61291037024	2316.5
3311.56092468064	2337.75
3313.50842411404	2322
3315.45540888971	2376
3317.40187922656	2334
3319.34783534315	2365.5
3321.29327745768	2345
3323.23820578801	2335
3325.18262055164	2361.25
3327.1265219657	2354.25
3329.06991024699	2366
3331.01278561194	2370.75
3332.95514827662	2337.5
3334.89699845674	2359.75
3336.83833636766	2362.5
3338.77916222434	2326.25
3340.71947624143	2365.25
3342.65927863317	2350.75
3344.59856961346	2331.25
3346.53734939584	2345.75
3348.47561819344	2344
3350.41337621906	2346.75
3352.35062368513	2402.5
3354.28736080368	2316.5
3356.22358778637	2362
3358.15930484452	2338
3360.09451218904	2364.5
3362.02921003047	2377.25
3363.96339857898	2368.75
3365.89707804436	2332.75
3367.83024863602	2334
3369.76291056299	2349.25
3371.69506403389	2350.5
3373.62670925699	2363.75
3375.55784644016	2353.5
3377.4884757909	2333.75
3379.41859751629	2384.75
3381.34821182305	2379
3383.27731891749	2391.5
3385.20591900555	2384
3387.13401229276	2360.5
3389.06159898426	2384
3390.9886792848	2385
3392.91525339872	2369.75
3394.84132152998	2393.75
3396.76688388213	2396.5
3398.69194065833	2361.5
3400.61649206133	2378.5
3402.54053829348	2377.75
3404.46407955672	2363.75
3406.3871160526	2348.5
3408.30964798225	2371
3410.23167554639	2394.5
3412.15319894535	2398
3414.07421837904	2370.75
3415.99473404695	2394.5
3417.91474614817	2411
3419.83425488136	2413.75
3421.75326044479	2412.25
3423.67176303631	2370.5
3425.58976285332	2412.25
3427.50726009282	2408
3429.42425495143	2378
3431.34074762528	2395.5
3433.25673831012	2366
3435.17222720127	2409
3437.08721449362	2391
3439.00170038164	2376
3440.91568505936	2372
3442.82916872039	2401.25
3444.74215155791	2389.25
3446.65463376468	2393.25
3448.566615533	2371.75
3450.47809705476	2373
3452.3890785214	2368.5
3454.29956012393	2406.25
3456.20954205293	2385
3458.11902449853	2393.75
3460.02800765041	2365.25
3461.93649169784	2373
3463.84447682962	2372.5
3465.75196323412	2364.5
3467.65895109925	2352.75
3469.56544061249	2360.75
3471.47143196086	2373.25
3473.37692533093	2350.25
3475.28192090884	2363.5
3477.18641888026	2400.25
3479.09041943039	2351.75
3480.99392274402	2364.75
3482.89692900545	2374.75
3484.79943839853	2359.5
3486.70145110666	2363.25
3488.60296731277	2374.5
3490.50398719933	2348
3492.40451094836	2344.25
3494.30453874141	2342
3496.20407075956	2361.75
3498.10310718342	2375.5
3500.00164819315	2345.75