201.866871357051	798
204.754250281454	798.25
207.640596790938	793.25
210.525911876299	795.25
213.410196525689	796.75
216.293451724508	796
219.175678455485	808.25
222.056877698662	806.75
224.937050431388	811.5
227.816197628363	813.25
230.694320261602	820.75
233.571419300504	821.5
236.447495711764	822.5
239.322550459507	804.75
242.196584505182	816.75
245.069598807626	810.25
247.941594323078	820
250.812572005154	814.5
253.682532804884	818.5
256.551477670699	822.5
259.419407548456	821
262.286323381439	826.5
265.152226110364	817.5
268.017116673389	802.5
270.880996006115	804.75
273.743865041622	810.25
276.605724710436	812.75
279.466575940562	811
282.326419657496	815.5
285.1852567842	816.75
288.043088241157	812
290.899914946349	808
293.75573781526	815.25
296.610557760898	819.75
299.464375693817	814.75
302.317192522078	813.25
305.169009151297	810
308.019826484655	821.5
310.86964542287	812.75
313.718466864233	813
316.566291704614	821.25
319.413120837457	820
322.258955153804	809.25
325.103795542291	829.75
327.947642889128	813.5
330.79049807819	825
333.632361990927	812.75
336.473235506444	813.75
339.31311950145	819
342.152014850322	821.25
344.989922425062	816.75
347.826843095354	833.75
350.662777728528	820
353.497727189577	829.25
356.331692341195	829
359.164674043732	826
361.996673155267	831
364.827690531536	834
367.65772702602	836.25
370.486783489887	829.5
373.314860772047	847.5
376.14195971912	836.25
378.968081175466	825.75
381.793225983212	829.25
384.617394982201	827
387.44058901005	845.5
390.262808902131	835.5
393.08405549161	840.5
395.904329609395	831.5
398.723632084213	844.25
401.541963742569	834.25
404.359325408779	845.5
407.175717904938	852
409.991142050982	853
412.805598664665	852.5
415.619088561551	844.5
418.43161255505	842.25
421.243171456415	866
424.053766074758	852.75
426.863397217017	866.5
429.672065688024	862.5
432.479772290455	875.5
435.286517824879	873
438.092303089736	869.25
440.897128881359	876.25
443.70099599399	874.25
446.503905219761	877.5
449.305857348711	871.25
452.106853168796	888
454.906893465919	887.75
457.705979023885	876
460.504110624439	874.5
463.3012890473	854.5
466.097515070087	860.5
468.892789468424	855.25
471.687113015869	852.75
474.48048648395	853.25
477.272910642198	839.75
480.064386258109	857
482.854914097159	855.5
485.644494922839	860.25
488.433129496636	854
491.220818578047	857
494.007562924584	858
496.793363291785	862.75
499.578220433217	858.25
502.362135100473	857.5
505.145108043209	857.75
507.927140009098	860.5
510.708231743909	861.75
513.488383991433	856
516.267597493556	863
519.04587299022	854.5
521.82321121946	860.75
524.599612917398	871
527.375078818233	870.75
530.149609654287	860.75
532.923206155967	856.25
535.695869051804	861.5
538.467599068448	858
541.238396930665	854.75
544.008263361364	856
546.777199081578	848.25
549.545204810493	866.75
552.312281265436	860.75
555.078429161898	873
557.843649213533	855.5
560.607942132156	857
563.371308627753	864
566.133749408495	866.5
568.895265180756	876.75
571.655856649064	872.25
574.415524516189	879.75
577.174269483075	887.75
579.932092248884	885.75
582.688993510994	893.25
585.444973965023	912.5
588.200034304795	924.5
590.95417522237	936.75
593.70739740807	952.5
596.459701550433	927.75
599.21108833628	927.5
601.961558450668	918.25
604.711112576933	906
607.459751396673	908.5
610.207475589748	913.25
612.954285834338	914.25
615.700182806879	906
618.445167182101	890
621.189239633055	903
623.932400831087	889.25
626.674651445839	885
629.415992145303	883.5
632.156423595745	871.5
634.895946461813	877.75
637.634561406449	883.75
640.37226909096	862.75
643.109070174978	866.75
645.844965316508	867
648.579955171888	866.25
651.314040395846	879.25
654.047221641456	864.25
656.779499560176	861.25
659.510874801828	873.75
662.241348014642	881.25
664.97091984524	864.75
667.699590938606	874
670.427361938164	873
673.15423348573	889.5
675.880206221526	914.25
678.605280784206	961.5
681.329457810829	990.5
684.05273793692	957.5
686.775121796389	919.25
689.49661002163	900.75
692.217203243454	889
694.936902091144	891
697.655707192425	896
700.373619173493	881.75
703.09063865901	871
705.806766272093	888
708.522002634378	886.75
711.236348365946	869
713.94980408538	873.25
716.662370409762	867.5
719.374047954676	875.5
722.08483733419	873.75
724.794739160909	873.5
727.503754045949	870.75
730.21188259892	870.25
732.919125427998	879.25
735.625483139855	869.5
738.330956339723	874.5
741.035545631374	884.25
743.739251617106	890.75
746.44207489779	910.5
749.144016072852	902
751.845075740272	898.75
754.545254496603	893
757.244552936976	882.25
759.94297165508	879.25
762.640511243222	872.75
765.337172292249	878.25
768.032955391649	882.25
770.727861129482	878.5
773.421890092413	875.25
776.11504286572	882.75
778.807320033298	894.75
781.49872217765	877.25
784.18924987991	877.25
786.87890371984	883.75
789.567684275826	873.75
792.255592124908	875.25
794.94262784276	874.75
797.628792003703	871.5
800.314085180715	871.75
802.998507945427	878.75
805.682060868145	877.25
808.364744517821	868
811.046559462105	871.75
813.727506267311	874.5
816.407585498422	885.25
819.08679771913	873.5
821.765143491822	877.25
824.442623377563	891
827.119237936127	896.75
829.794987726003	909.75
832.469873304377	923.25
835.143895227167	905.75
837.817054048985	896.5
840.489350323205	898.5
843.160784601892	903
845.831357435894	901
848.501069374739	916.5
851.169920966753	913.75
853.837912758987	891.25
856.505045297232	904
859.171319126071	889.25
861.836734788823	888.5
864.501292827579	902
867.164993783208	887.25
869.827838195361	897
872.489826602454	895.5
875.150959541701	886.25
877.811237549104	897
880.470661159456	902.75
883.129230906357	884
885.786947322205	880.25
888.443810938206	896.5
891.099822284385	884.5
893.754981889586	876.25
896.409290281452	881.25
899.062747986485	894.5
901.715355529999	891.25
904.367113436154	896.5
907.01802222793	888.25
909.668082427172	881
912.317294554574	884.25
914.965659129659	895.75
917.613176670835	885.25
920.259847695364	887.75
922.90567271936	886
925.550652257825	883
928.194786824621	890.25
930.838076932512	887.5
933.480523093109	890
936.122125816953	891.75
938.762885613447	894.75
941.402802990899	899.75
944.041878456523	899.25
946.680112516428	902.25
949.31750567563	909.25
951.954058438081	919.5
954.589771306633	922.75
957.224644783048	911
959.858679368044	911
962.491875561238	894.25
965.12423386121	886.25
967.75575476545	891.5
970.386438770423	896.5
973.016286371501	895.75
975.645298063046	899.5
978.273474338355	891.75
980.900815689674	886
983.527322608243	882
986.152995584245	899
988.777835106834	891.5
991.401841664148	900.75
994.025015743307	901.5
996.647357830407	902.75
999.268868410534	887.75
1001.88954796777	905
1004.50939698518	909.5
1007.12841594484	899
1009.74660532783	917.75
1012.36396561423	914.25
1014.98049728314	911
1017.59620081267	898.25
1020.21107667995	911.25
1022.82512536112	902
1025.43834733138	901.75
1028.05074306493	914.75
1030.66231303501	917
1033.27305771392	915.5
1035.88297757299	931.75
1038.49207308257	925.5
1041.10034471211	918.75
1043.70779293008	930.5
1046.31441820402	920.25
1048.92022100052	912.25
1051.52520178525	934.25
1054.12936102295	940
1056.73269917742	954
1059.33521671154	966
1061.93691408729	984.25
1064.53779176571	986.75
1067.13785020694	953.25
1069.73708987022	940.25
1072.33551121386	926
1074.93311469528	934.5
1077.52990077103	932.5
1080.12586989674	915.75
1082.72102252714	930
1085.31535911611	932
1087.90888011663	925
1090.50158598078	936
1093.09347715979	929.5
1095.68455410403	932.75
1098.27481726296	923.75
1100.86426708523	923
1103.45290401857	936.75
1106.04072850991	926.5
1108.6277410053	932.5
1111.21394194993	936.75
1113.79933178816	947
1116.3839109635	935
1118.96767991862	948
1121.55063909539	949.25
1124.13278893477	981.5
1126.71412987696	1015.5
1129.29466236132	1013
1131.87438682637	1006.25
1134.45330370982	981.75
1137.03141344858	975.25
1139.60871647872	984.75
1142.18521323554	1010.25
1144.7609041535	993.75
1147.33578966629	976.25
1149.90987020676	942.75
1152.48314620702	942
1155.05561809835	938.5
1157.62728631125	946
1160.19815127545	941.5
1162.76821341988	946.75
1165.33747317271	938.5
1167.90593096133	954
1170.47358721235	947
1173.04044235163	940.25
1175.60649680425	935.5
1178.17175099454	938.75
1180.73620534607	952
1183.29986028165	963.5
1185.86271622336	955
1188.42477359249	950.25
1190.98603280964	954.25
1193.54649429462	936
1196.10615846653	943
1198.66502574372	946.75
1201.22309654385	952
1203.78037128378	953
1206.33685037971	955.5
1208.89253424709	946.75
1211.44742330063	957
1214.00151795438	944.75
1216.55481862163	964.25
1219.10732571497	955.75
1221.65903964631	948.75
1224.20996082683	947.75
1226.760089667	945
1229.30942657664	942
1231.85797196483	939.75
1234.40572623998	943.25
1236.95268980981	940.5
1239.49886308136	959.25
1242.04424646098	949
1244.58884035435	951.25
1247.13264516647	949.75
1249.67566130166	950.5
1252.21788916358	958.75
1254.75932915524	956.5
1257.29998167896	963.75
1259.83984713639	967.5
1262.37892592857	967.25
1264.91721845586	955.5
1267.45472511795	964.5
1269.9914463139	977
1272.52738244213	986.5
1275.0625339004	970
1277.59690108587	971
1280.130484395	978
1282.66328422367	1000.25
1285.19530096712	994
1287.72653501993	1033.25
1290.25698677608	1051.5
1292.78665662894	1105.25
1295.31554497125	1111.25
1297.8436521951	1087
1300.37097869203	1071.75
1302.89752485292	1049.5
1305.42329106805	1062.75
1307.94827772713	1051.75
1310.47248521921	1032
1312.99591393279	1035.75
1315.51856425575	1022.25
1318.04043657536	1023.75
1320.56153127836	1018.75
1323.08184875083	1023.5
1325.6013893783	1036.25
1328.12015354572	1043.75
1330.63814163744	1055.75
1333.15535403727	1069
1335.67179112839	1140.5
1338.18745329347	1208.75
1340.70234091454	1250.75
1343.21645437314	1223.75
1345.72979405019	1171.5
1348.24236032607	1088.25
1350.75415358059	1058.25
1353.26517419303	1052.25
1355.7754225421	1040.75
1358.28489900594	1044
1360.79360396218	1058.25
1363.30153778787	1051.75
1365.80870085955	1062.25
1368.31509355319	1062
1370.82071624424	1065
1373.32556930762	1057.25
1375.8296531177	1053.5
1378.33296804832	1046.75
1380.83551447282	1045.75
1383.33729276399	1059.75
1385.83830329408	1043
1388.33854643489	1062
1390.83802255762	1064
1393.33673203301	1048.5
1395.83467523128	1074.25
1398.33185252211	1062.75
1400.82826427471	1074.25
1403.32391085777	1079.5
1405.81879263947	1075.25
1408.31290998752	1084
1410.80626326908	1105.5
1413.29885285087	1106.5
1415.79067909909	1134.75
1418.28174237944	1140.5
1420.77204305717	1139.75
1423.26158149702	1140.25
1425.75035806323	1141.5
1428.2383731196	1152.5
1430.72562702942	1175.5
1433.21212015554	1196
1435.69785286028	1216
1438.18282550555	1248.5
1440.66703845275	1253.75
1443.15049206284	1270.75
1445.6331866963	1289.25
1448.11512271316	1357.75
1450.59630047298	1415.75
1453.07672033486	1405.25
1455.55638265748	1328.5
1458.03528779902	1277.5
1460.51343611725	1260.25
1462.99082796946	1259.5
1465.46746371252	1253.75
1467.94334370285	1255
1470.41846829642	1246.5
1472.89283784878	1250.5
1475.36645271503	1245.25
1477.83931324983	1242.75
1480.31141980743	1231.75
1482.78277274164	1263
1485.25337240583	1239
1487.72321915297	1238.75
1490.19231333557	1230
1492.66065530578	1210.25
1495.12824541525	1216.75
1497.5950840153	1234
1500.06117145678	1255.5
1502.52650809014	1251.75
1504.99109426543	1256.25
1507.45493033227	1268.25
1509.91801663992	1266.25
1512.38035353717	1276.5
1514.84194137248	1290.5
1517.30278049386	1313.25
1519.76287124894	1363.5
1522.22221398497	1452.75
1524.68080904876	1595
1527.13865678681	1790.25
1529.59575754514	1821.75
1532.05211166945	1714.75
1534.50771950503	1535
1536.96258139678	1432.25
1539.41669768924	1410.25
1541.87006872656	1357.5
1544.32269485252	1371.5
1546.77457641051	1374.25
1549.22571374357	1382.25
1551.67610719434	1392.75
1554.12575710513	1370.5
1556.57466381785	1389
1559.02282767408	1394.5
1561.47024901499	1403
1563.91692818144	1418.5
1566.3628655139	1430.25
1568.80806135249	1412.5
1571.252516037	1427.75
1573.6962299068	1449.75
1576.13920330099	1456.75
1578.58143655828	1455.75
1581.02293001704	1474.5
1583.46368401528	1477.75
1585.90369889071	1479.25
1588.34297498065	1499
1590.7815126221	1496.25
1593.21931215173	1496.25
1595.65637390588	1513
1598.09269822053	1508.25
1600.52828543135	1527
1602.96313587367	1509
1605.3972498825	1531.75
1607.83062779252	1514.25
1610.26326993808	1534.5
1612.69517665322	1519.75
1615.12634827165	1531.75
1617.55678512676	1529.5
1619.98648755163	1531.75
1622.41545587902	1527.75
1624.84369044138	1546.5
1627.27119157085	1543
1629.69795959924	1554.25
1632.12399485808	1564
1634.54929767859	1566.5
1636.97386839165	1577
1639.39770732789	1564
1641.8208148176	1565
1644.24319119078	1580
1646.66483677715	1611.75
1649.0857519061	1615
1651.50593690677	1606.25
1653.92539210795	1623
1656.3441178382	1605
1658.76211442575	1613.75
1661.17938219855	1634.5
1663.59592148428	1659.75
1666.01173261032	1659
1668.42681590377	1641.5
1670.84117169145	1661.75
1673.25480029991	1667
1675.66770205541	1678
1678.07987728393	1695
1680.49132631119	1698.25
1682.90204946263	1694.5
1685.31204706342	1698.25
1687.72131943846	1717.75
1690.1298669124	1734.25
1692.53768980957	1725.5
1694.94478845411	1745.75
1697.35116316982	1729.25
1699.75681428031	1732.75
1702.16174210887	1751
1704.56594697858	1754.75
1706.96942921222	1774.25
1709.37218913235	1755.75
1711.77422706125	1751.75
1714.17554332098	1777.75
1716.5761382333	1781.75
1718.97601211977	1786.75
1721.37516530169	1788.75
1723.77359810006	1797.5
1726.17131083572	1779.25
1728.56830382922	1828.75
1730.96457740087	1832.25
1733.36013187075	1799.25
1735.75496755868	1811.25
1738.14908478428	1850.25
1740.54248386689	1827.25
1742.93516512565	1814.75
1745.32712887946	1843
1747.71837544697	1852.75
1750.10890514662	1882.5
1752.49871829661	1849
1754.88781521492	1868.75
1757.27619621929	1883.25
1759.66386162726	1868
1762.05081175612	1874
1764.43704692297	1897.25
1766.82256744465	1897.5
1769.20737363782	1924
1771.59146581887	1910.5
1773.97484430405	1929
1776.35750940932	1936.25
1778.73946145048	1928.25
1781.12070074309	1947.5
1783.50122760249	1948.75
1785.88104234385	1985.5
1788.26014528209	1950.5
1790.63853673196	1978.75
1793.01621700796	2008
1795.39318642443	2008.5
1797.76944529549	2026.75
1800.14499393503	2016.25
1802.51983265681	2032.75
1804.8939617743	2048.5
1807.26738160085	2058.75
1809.64009244957	2040
1812.01209463339	2076.5
1814.38338846504	2094.25
1816.75397425706	2095.25
1819.12385232181	2057.75
1821.49302297142	2108.5
1823.86148651789	2093.5
1826.22924327299	2116.5
1828.59629354831	2135
1830.96263765526	2121.25
1833.32827590507	2100
1835.69320860877	2123
1838.05743607724	2139.75
1840.42095862113	2127
1842.78377655097	2155.5
1845.14589017707	2152.5
1847.50729980956	2165
1849.86800575843	2178.25
1852.22800833346	2175.75
1854.58730784427	2179
1856.94590460032	2183
1859.30379891087	2223.5
1861.66099108503	2216.75
1864.01748143175	2226
1866.37327025978	2263
1868.72835787773	2227.25
1871.08274459403	2240.5
1873.43643071697	2242.25
1875.78941655464	2257
1878.14170241498	2281.5
1880.4932886058	2289.75
1882.84417543469	2282
1885.19436320915	2301.5
1887.54385223646	2291.75
1889.89264282378	2327.75
1892.24073527809	2320.25
1894.58812990625	2342.25
1896.93482701493	2359
1899.28082691067	2345.75
1901.62612989984	2352.5
1903.97073628868	2370.25
1906.31464638326	2383.5
1908.6578604895	2401
1911.00037891321	2414.75
1913.34220196	2426
1915.68332993537	2415.75
1918.02376314468	2435
1920.36350189311	2434.25
1922.70254648573	2442
1925.04089722744	2424.25
1927.37855442303	2407.75
1929.71551837715	2444
1932.05178939426	2443.5
1934.38736777876	2477.25
1936.72225383484	2454.25
1939.0564478666	2485.5
1941.38995017799	2482.25
1943.72276107283	2505.5
1946.05488085479	2447.5
1948.38630982744	2445.5
1950.71704829419	2509.5
1953.04709655832	2468.75
1955.376454923	2450.25
1957.70512369126	2493.25
1960.03310316599	2470.75
1962.36039364999	2448.25
1964.68699544589	2474.75
1967.01290885622	2487.25
1969.33813418338	2491.5
1971.66267172965	2496.5
1973.98652179718	2504
1976.309684688	2517.5
1978.63216070402	2513.5
1980.95395014705	2508
1983.27505331873	2535
1985.59547052063	2512.25
1987.9152020542	2524
1990.23424822074	2540
1992.55260932146	2512
1994.87028565746	2506.75
1997.18727752968	2591.5
1999.503585239	2569
2001.81920908618	2565.25
2004.13414937184	2585.25
2006.44840639651	2609.5
2008.7619804606	2585.5
2011.07487186442	2642.25
2013.38708090815	2626.5
2015.6986078919	2602.75
2018.00945311564	2643
2020.31961687923	2612.75
2022.62909948246	2661
2024.93790122498	2672.25
2027.24602240636	2678.5
2029.55346332604	2668.25
2031.86022428337	2668
2034.16630557761	2707.5
2036.47170750791	2698.75
2038.77643037331	2680.25
2041.08047447275	2696.5
2043.38384010509	2694.75
2045.68652756907	2695.75
2047.98853716335	2701
2050.28986918648	2689.75
2052.59052393692	2757.5
2054.89050171302	2738
2057.18980281306	2751.25
2059.4884275352	2779.5
2061.78637617753	2745.25
2064.08364903802	2759
2066.38024641457	2758.25
2068.67616860497	2766.5
2070.97141590694	2741.75
2073.26598861809	2737.25
2075.55988703595	2739.5
2077.85311145796	2764.25
2080.14566218145	2773.75
2082.43753950371	2765.75
2084.72874372188	2769
2087.01927513307	2789.25
2089.30913403428	2793.5
2091.59832072241	2766.75
2093.88683549429	2799.5
2096.17467864666	2832
2098.46185047619	2831.5
2100.74835127944	2826.75
2103.03418135292	2869
2105.31934099303	2822
2107.6038304961	2832.75
2109.88765015838	2856.25
2112.17080027602	2843.25
2114.45328114513	2884.75
2116.7350930617	2871
2119.01623632165	2861
2121.29671122085	2863.25
2123.57651805505	2884.75
2125.85565711996	2904.25
2128.13412871117	2879.5
2130.41193312424	2917
2132.68907065462	2934.5
2134.96554159771	2916.75
2137.24134624881	2896.25
2139.51648490317	2917.5
2141.79095785593	2948.5
2144.0647654022	2953.25
2146.33790783698	2935.25
2148.61038545524	2916.25
2150.88219855182	2963.25
2153.15334742154	2928.5
2155.42383235911	2974.5
2157.6936536592	2974.5
2159.9628116164	2930.5
2162.23130652522	2960.75
2164.49913868011	2968.5
2166.76630837544	2960.75
2169.03281590552	2978.25
2171.2986615646	2949.5
2173.56384564685	2935
2175.82836844637	2960.75
2178.0922302572	2964.5
2180.35543137332	2956
2182.61797208862	2933
2184.87985269695	2942.25
2187.14107349208	2904.25
2189.40163476773	2939
2191.66153681753	2965.5
2193.92077993507	2893.25
2196.17936441386	2927.25
2198.43729054735	2954.5
2200.69455862894	2935.25
2202.95116895194	2906.25
2205.20712180962	2939.5
2207.46241749519	2911.5
2209.71705630179	2905.75
2211.97103852248	2901
2214.2243644503	2866.75
2216.47703437819	2888.75
2218.72904859905	2888.25
2220.98040740571	2905
2223.23111109095	2856.25
2225.4811599475	2851.25
2227.73055426799	2867.25
2229.97929434504	2868.75
2232.22738047118	2830.25
2234.47481293889	2827.75
2236.72159204058	2837.5
2238.96771806864	2817.5
2241.21319131536	2804.5
2243.458012073	2814.5
2245.70218063374	2805
2247.94569728973	2819.75
2250.18856233304	2765
2252.4307760557	2783.25
2254.67233874967	2761.5
2256.91325070687	2783.5
2259.15351221915	2761.75
2261.39312357831	2751
2263.63208507611	2724.25
2265.87039700422	2730.5
2268.1080596543	2724.5
2270.34507331792	2685.25
2272.5814382866	2716.25
2274.81715485183	2729
2277.05222330502	2712.5
2279.28664393755	2681.75
2281.52041704072	2664.5
2283.75354290581	2690.5
2285.98602182401	2671.5
2288.21785408648	2649
2290.44903998434	2626.75
2292.67957980862	2632
2294.90947385033	2614.25
2297.1387224004	2649.75
2299.36732574975	2629
2301.59528418921	2602.25
2303.82259800958	2602.25
2306.04926750158	2578
2308.27529295593	2543
2310.50067466325	2568.5
2312.72541291412	2562.5
2314.9495079991	2562.75
2317.17296020866	2518.75
2319.39576983323	2546.25
2321.61793716322	2534.25
2323.83946248894	2523.25
2326.06034610069	2520.75
2328.28058828871	2507
2330.50018934317	2528.25
2332.7191495542	2529.5
2334.93746921192	2491.5
2337.15514860633	2467
2339.37218802743	2465
2341.58858776516	2476.5
2343.80434810941	2461.75
2346.01946935001	2475
2348.23395177675	2404.25
2350.44779567939	2447.5
2352.66100134759	2400.5
2354.87356907101	2404
2357.08549913925	2419.5
2359.29679184185	2403.25
2361.50744746829	2432
2363.71746630804	2406
2365.92684865048	2372.75
2368.13559478499	2351.5
2370.34370500083	2365
2372.55117958727	2382.5
2374.75801883352	2375
2376.96422302874	2344
2379.16979246202	2332
2381.37472742243	2335.75
2383.57902819898	2334
2385.78269508063	2318.75
2387.98572835629	2297.25
2390.18812831482	2303.25
2392.38989524505	2310.25
2394.59102943573	2296
2396.79153117559	2278.5
2398.9914007533	2269.75
2401.19063845748	2286
2403.38924457672	2264.25
2405.58721939951	2258.5
2407.78456321435	2254
2409.98127630966	2261.5
2412.17735897382	2245
2414.37281149517	2250.75
2416.56763416198	2231.25
2418.76182726249	2225.5
2420.95539108487	2219.25
2423.14832591726	2203.75
2425.34063204776	2213.5
2427.53230976439	2206.25
2429.72335935513	2216.25
2431.91378110795	2200.5
2434.10357531071	2197.75
2436.29274225125	2198
2438.48128221739	2170.5
2440.66919549683	2144
2442.8564823773	2172
2445.04314314641	2151
2447.22917809176	2159
2449.4145875009	2144
2451.59937166131	2163.5
2453.78353086044	2133.5
2455.96706538568	2134.75
2458.14997552436	2122.25
2460.33226156379	2111.25
2462.51392379119	2102.5
2464.69496249376	2083.5
2466.87537795862	2074.5
2469.05517047288	2086.75
2471.23434032357	2068.5
2473.41288779767	2085.5
2475.59081318211	2070.75
2477.76811676378	2083
2479.9447988295	2065.25
2482.12085966605	2049.5
2484.29629956016	2044.75
2486.4711187985	2075.75
2488.64531766769	2040.25
2490.8188964543	2045.5
2492.99185544484	2030
2495.16419492579	2011.25
2497.33591518353	2008.5
2499.50701650444	2000.25
2501.67749917482	2019.75
2503.84736348091	2023.25
2506.01660970891	2019.25
2508.18523814496	2006.75
2510.35324907514	2006
2512.52064278551	1988
2514.68741956201	1997.75
2516.85357969058	2026
2519.01912345709	2018.75
2521.18405114735	1991.25
2523.34836304711	1987.75
2525.51205944208	1999
2527.6751406179	1963.5
2529.83760686016	1975.75
2531.99945845439	1985.25
2534.16069568606	2007
2536.3213188406	1975.75
2538.48132820336	1972.5
2540.64072405965	1958.25
2542.79950669471	1972.25
2544.95767639373	1982.25
2547.11523344184	1944.25
2549.27217812411	1952.75
2551.42851072555	1973.25
2553.58423153111	1943.75
2555.73934082569	1943.75
2557.89383889412	1925.25
2560.04772602118	1921.25
2562.20100249158	1930.25
2564.35366858996	1919.5
2566.50572460093	1920.75
2568.65717080901	1919
2570.80800749867	1927
2572.95823495433	1901.25
2575.10785346031	1902.25
2577.25686330093	1890.5
2579.40526476038	1882.25
2581.55305812282	1923.25
2583.70024367237	1875.75
2585.84682169303	1863.25
2587.99279246879	1857.25
2590.13815628354	1859.25
2592.28291342112	1854
2594.42706416531	1874.5
2596.5706087998	1870.25
2598.71354760826	1872.25
2600.85588087425	1858
2602.99760888127	1866.5
2605.13873191278	1847.25
2607.27925025214	1844.5
2609.41916418269	1863.75
2611.55847398764	1853.5
2613.69717995017	1842.5
2615.83528235339	1854.5
2617.97278148034	1842.25
2620.10967761398	1829.75
2622.2459710372	1839.75
2624.38166203284	1845.5
2626.51675088365	1837.25
2628.65123787231	1844
2630.78512328145	1818.5
2632.9184073936	1822.25
2635.05109049124	1832
2637.18317285676	1824.5
2639.31465477248	1828.25
2641.44553652067	1825.25
2643.5758183835	1812
2645.70550064309	1827.25
2647.83458358144	1845.75
2649.96306748053	1842.5
2652.09095262223	1816.5
2654.21823928836	1820.75
2656.34492776063	1798.25
2658.47101832071	1817.25
2660.59651125015	1833.75
2662.72140683047	1816.5
2664.84570534309	1811
2666.96940706934	1798.75
2669.0925122905	1808
2671.21502128773	1817.25
2673.33693434215	1846.5
2675.45825173479	1802.25
2677.57897374658	1800.5
2679.69910065839	1827.75
2681.818632751	1802
2683.93757030511	1792.75
2686.05591360133	1799.25
2688.17366292021	1791.75
2690.29081854218	1797
2692.40738074762	1795
2694.52334981681	1793.5
2696.63872602995	1785.25
2698.75350966713	1778
2700.86770100841	1822
2702.98130033371	1808
2705.09430792289	1821.5
2707.20672405571	1810.5
2709.31854901185	1824
2711.42978307091	1809.75
2713.54042651238	1831.25
2715.65047961567	1832.5
2717.7599426601	1853.5
2719.86881592491	1825.5
2721.97709968924	1811.5
2724.08479423213	1823.5
2726.19189983255	1820
2728.29841676934	1809.5
2730.4043453213	1828.5
2732.5096857671	1809.25
2734.61443838532	1798.5
2736.71860345444	1760.75
2738.82218125286	1800
2740.92517205889	1806
2743.02757615072	1789.5
2745.12939380646	1778
2747.23062530411	1764.75
2749.33127092159	1781
2751.4313309367	1778.75
2753.53080562716	1768
2755.62969527058	1797.75
2757.72800014448	1763
2759.82572052625	1785.75
2761.92285669323	1778.25
2764.0194089226	1771.5
2766.11537749147	1763.75
2768.21076267686	1771.75
2770.30556475566	1785.5
2772.39978400465	1774.25
2774.49342070054	1781.5
2776.58647511991	1785.75
2778.67894753923	1793
2780.77083823487	1771.75
2782.8621474831	1770
2784.95287556007	1775.5
2787.04302274184	1780
2789.13258930433	1792.75
2791.22157552338	1781.5
2793.30998167471	1781
2795.39780803392	1777
2797.4850548765	1787.5
2799.57172247786	1781.5
2801.65781111324	1771.5
2803.74332105781	1796
2805.82825258661	1774.25
2807.91260597457	1802.5
2809.9963814965	1808.5
2812.07957942711	1770
2814.16220004096	1779.75
2816.24424361252	1830
2818.32571041614	1806.75
2820.40660072604	1815.5
2822.48691481631	1819.5
2824.56665296098	1824.25
2826.64581543388	1836
2828.72440250876	1875.5
2830.80241445925	1922.5
2832.87985155885	1980.25
2834.95671408093	2057.5
2837.03300229875	2129
2839.10871648544	2261.75
2841.18385691399	2440.25
2843.25842385729	2590
2845.33241758808	2705.5
2847.40583837898	2741.5
2849.4786865025	2743.75
2851.550962231	2683.5
2853.6226658367	2608
2855.69379759173	2531.75
2857.76435776806	2463.5
2859.83434663753	2407.75
2861.90376447184	2374.75
2863.97261154259	2369.25
2866.0408881212	2374.25
2868.10859447901	2372.5
2870.17573088717	2409.75
2872.24229761673	2430.5
2874.30829493859	2498.5
2876.37372312352	2616.25
2878.43858244215	2826.75
2880.50287316496	2970
2882.56659556231	2982.75
2884.62974990439	2807.25
2886.69233646129	2634
2888.75435550293	2545
2890.81580729909	2514.75
2892.87669211941	2469.25
2894.93701023339	2470.75
2896.99676191039	2439.5
2899.05594741961	2450
2901.1145670301	2410.75
2903.1726210108	2382.25
2905.23010963045	2362.75
2907.28703315768	2303.25
2909.34339186096	2312.5
2911.39918600861	2298.75
2913.45441586879	2248.5
2915.50908170952	2250.75
2917.56318379867	2255.75
2919.61672240395	2249
2921.66969779291	2228.5
2923.72211023295	2260.25
2925.77395999134	2249
2927.82524733515	2267.5
2929.87597253132	2248
2931.92613584663	2229
2933.97573754769	2187.75
2936.02477790097	2181
2938.07325717276	2129.5
2940.1211756292	2120.5
2942.16853353626	2086.5
2944.21533115976	2054.25
2946.26156876536	1985
2948.30724661853	1993.5
2950.3523649846	1997
2952.39692412872	1968
2954.44092431587	1960.5
2956.48436581089	1970.5
2958.52724887843	1956.25
2960.56957378296	1952
2962.6113407888	1965.5
2964.65255016011	1947.5
2966.69320216083	1944
2968.73329705479	1923.75
2970.77283510559	1926.25
2972.81181657671	1953.25
2974.8502417314	1973.5
2976.88811083279	1947
2978.92542414378	1972.75
2980.96218192713	1969
2982.99838444541	1972
2985.034031961	1963.25
2987.06912473612	1982.75
2989.1036630328	1947
2991.13764711288	1950.75
2993.17107723804	1951
2995.20395366974	1983
2997.23627666931	1959.5
2999.26804649782	1978.75
3001.29926341624	1990.25
3003.32992768528	1998
3005.3600395655	2002.25
3007.38959931726	2002.75
3009.41860720076	2007.25
3011.44706347595	2028.25
3013.47496840263	2007
3015.50232224041	1996.5
3017.5291252487	2009.25
3019.5553776867	2009.25
3021.58107981344	2007.75
3023.60623188773	2025.75
3025.63083416822	2010.75
3027.65488691331	2030
3029.67839038125	2016.75
3031.70134483007	2018.75
3033.72375051759	2044
3035.74560770144	2044
3037.76691663907	2047.5
3039.78767758768	2043.75
3041.80789080431	2060.75
3043.82755654577	2062.25
3045.84667506867	2080.5
3047.8652466294	2099.75
3049.88327148418	2087.5
3051.90074988899	2092.75
3053.91768209961	2128.5
3055.9340683716	2132.25
3057.94990896033	2120
3059.96520412095	2138
3061.97995410838	2145
3063.99415917734	2111.25
3066.00781958234	2099.75
3068.02093557766	2125.25
3070.03350741738	2090
3072.04553535535	2085.75
3074.05701964521	2106.75
3076.06796054036	2090.5
3078.078358294	2095.75
3080.08821315912	2085.75
3082.09752538846	2124.5
3084.10629523454	2113.25
3086.11452294967	2097.25
3088.12220878592	2113.5
3090.12935299515	2129.75
3092.13595582898	2112.5
3094.1420175388	2149.25
3096.14753837579	2103.25
3098.15251859088	2125.5
3100.15695843477	2138
3102.16085815793	2110.25
3104.16421801061	2115.5
3106.16703824282	2147.75
3108.16931910432	2154.5
3110.17106084464	2122.5
3112.17226371308	2130.75
3114.17292795872	2134.75
3116.17305383034	2157.25
3118.17264157657	2138.25
3120.17169144571	2162.25
3122.17020368587	2137
3124.16817854492	2137.25
3126.16561627044	2178.5
3128.16251710982	2175.75
3130.15888131017	2172.75
3132.15470911837	2185.25
3134.15000078104	2161.5
3136.14475654455	2191.75
3138.13897665502	2188.25
3140.13266135835	2186
3142.12581090014	2193
3144.11842552577	2184.75
3146.11050548036	2208.25
3148.10205100875	2200.5
3150.09306235557	2245.25
3152.08353976515	2200
3154.07348348158	2225.25
3156.06289374869	2209.75
3158.05177081006	2217
3160.04011490899	2222.5
3162.02792628852	2238.25
3164.01520519145	2207.5
3166.00195186029	2246.75
3167.98816653728	2245.25
3169.97384946442	2230.75
3171.95900088344	2255.25
3173.94362103577	2258.75
3175.92771016259	2244.75
3177.91126850484	2243.5
3179.89429630312	2259.25
3181.87679379782	2242.75
3183.85876122903	2279
3185.84019883657	2266.75
3187.82110685997	2262.25
3189.80148553851	2247.5
3191.78133511116	2297
3193.76065581664	2299
3195.73944789337	2256.75
3197.7177115795	2279.75
3199.6954471129	2320.5
3201.67265473114	2303
3203.64933467153	2291
3205.62548717107	2322.25
3207.60111246648	2327.5
3209.57621079421	2335.75
3211.55078239041	2337
3213.52482749093	2312.5
3215.49834633133	2348
3217.4713391469	2353.5
3219.44380617262	2329.75
3221.41574764317	2331.5
3223.38716379296	2361.75
3225.35805485607	2354.75
3227.32842106631	2391.5
3229.29826265718	2385.75
3231.26757986187	2369.5
3233.2363729133	2388
3235.20464204405	2391
3237.17238748643	2384
3239.13960947243	2406.5
3241.10630823374	2418.25
3243.07248400174	2403
3245.03813700748	2437
3247.00326748177	2432
3248.96787565503	2410
3250.93196175742	2448
3252.89552601877	2439.25
3254.8585686686	2399.75
3256.82108993612	2444.25
3258.78309005022	2457.5
3260.74456923948	2430.5
3262.70552773215	2471
3264.66596575617	2450.75
3266.62588353916	2456.75
3268.58528130843	2454
3270.54415929094	2440.5
3272.50251771336	2472.75
3274.46035680201	2483
3276.4176767829	2474
3278.37447788171	2459
3280.33076032379	2501.75
3282.28652433416	2455
3284.24177013751	2472.75
3286.1964979582	2518.25
3288.15070802027	2507.25
3290.10440054741	2491.5
3292.05757576298	2485.5
3294.01023389001	2483.25
3295.96237515119	2506
3297.91399976887	2503
3299.86510796506	2496.75
3301.81569996142	2500
3303.76577597932	2501.25
3305.7153362397	2495.5
3307.66438096324	2488.5
3309.61291037024	2497
3311.56092468064	2522
3313.50842411404	2482
3315.45540888971	2498.5
3317.40187922656	2514.5
3319.34783534315	2489.75
3321.29327745768	2513
3323.23820578801	2485.75
3325.18262055164	2518.75
3327.1265219657	2504.25
3329.06991024699	2499
3331.01278561194	2503.5
3332.95514827662	2492.25
3334.89699845674	2505
3336.83833636766	2486.75
3338.77916222434	2475.25
3340.71947624143	2525.75
3342.65927863317	2473.75
3344.59856961346	2479.5
3346.53734939584	2515.25
3348.47561819344	2491.5
3350.41337621906	2480
3352.35062368513	2522.25
3354.28736080368	2500.25
3356.22358778637	2491.5
3358.15930484452	2505.75
3360.09451218904	2538
3362.02921003047	2494.75
3363.96339857898	2511.75
3365.89707804436	2479.75
3367.83024863602	2494.75
3369.76291056299	2532.5
3371.69506403389	2492.5
3373.62670925699	2515.75
3375.55784644016	2535
3377.4884757909	2485.5
3379.41859751629	2536
3381.34821182305	2543.75
3383.27731891749	2523
3385.20591900555	2493.75
3387.13401229276	2537.5
3389.06159898426	2511.25
3390.9886792848	2553.5
3392.91525339872	2503.5
3394.84132152998	2567
3396.76688388213	2539
3398.69194065833	2529.75
3400.61649206133	2551
3402.54053829348	2535.5
3404.46407955672	2527.25
3406.3871160526	2539.5
3408.30964798225	2546
3410.23167554639	2548.25
3412.15319894535	2555.75
3414.07421837904	2560
3415.99473404695	2560.5
3417.91474614817	2539.5
3419.83425488136	2568.5
3421.75326044479	2575.75
3423.67176303631	2559.25
3425.58976285332	2582.5
3427.50726009282	2549.25
3429.42425495143	2558.5
3431.34074762528	2581.5
3433.25673831012	2534
3435.17222720127	2565.25
3437.08721449362	2556.25
3439.00170038164	2525.5
3440.91568505936	2533.25
3442.82916872039	2523.5
3444.74215155791	2536.5
3446.65463376468	2554.25
3448.566615533	2569.25
3450.47809705476	2540.5
3452.3890785214	2549.5
3454.29956012393	2544.5
3456.20954205293	2570.5
3458.11902449853	2520
3460.02800765041	2557.25
3461.93649169784	2530.25
3463.84447682962	2524.25
3465.75196323412	2553.5
3467.65895109925	2529.75
3469.56544061249	2549
3471.47143196086	2507
3473.37692533093	2548.75
3475.28192090884	2548.25
3477.18641888026	2524.5
3479.09041943039	2546.25
3480.99392274402	2552.5
3482.89692900545	2525.25
3484.79943839853	2506.75
3486.70145110666	2517.25
3488.60296731277	2553.75
3490.50398719933	2523
3492.40451094836	2495.75
3494.30453874141	2525.75
3496.20407075956	2547.75
3498.10310718342	2554.5
3500.00164819315	2521.5