200.090469251518	8177.5
202.974751419362	8167.5
205.858021632263	8152.75
208.740280737522	8171.25
211.621529580443	8064.25
214.501769004371	8091.5
217.380999850626	8053.5
220.25922295859	8032
223.136439165646	8030.5
226.012649307235	7992.25
228.88785421682	8066.75
231.762054725918	8092.5
234.635251664113	8007
237.507445859021	8072.75
240.378638136346	8068.25
243.248829319855	8038.25
246.11802023137	8102.5
248.986211690826	8106.75
251.853404516227	8033.5
254.719599523654	8105.5
257.584797527335	8047.75
260.44899933954	8082
263.312205770682	8063
266.174417629303	8005.5
269.035635722015	8075
271.895860853609	8050.5
274.755093826978	7999.25
277.613335443144	8122.75
280.470586501309	8054.75
283.326847798766	8025.25
286.182120131019	8055.25
289.036404291684	8071.25
291.889701072574	8024.75
294.742011263643	8036.25
297.593335653048	8017.5
300.443675027094	7983
303.293030170295	7985.5
306.141401865367	7975.5
308.988790893174	7930
311.835198032837	7912
314.680624061635	7934.25
317.525069755113	7878.5
320.36853588697	7881.75
323.211023229178	7817
326.052532551923	7863.25
328.893064623604	7787.75
331.732620210885	7848.5
334.57120007867	7879
337.408804990093	7853
340.245435706565	7829.25
343.081092987733	7882
345.915777591523	7802.25
348.749490274145	7902
351.582231790049	7904.75
354.414002891997	7900.25
357.244804331021	7865.75
360.074636856443	7969.75
362.903501215886	7920.5
365.731398155265	7944.25
368.558328418814	7832.5
371.384292749062	7891.5
374.209291886869	7864
377.033326571407	7868.75
379.85639754017	7870.75
382.678505529009	7846.5
385.499651272065	7820.75
388.319835501872	7792.5
391.139058949258	7787.5
393.957322343453	7774.5
396.774626412011	7730
399.590971880847	7745.5
402.406359474258	7788
405.220789914893	7732.75
408.034263923801	7665.75
410.8467822204	7677.5
413.658345522483	7673.25
416.468954546242	7735.75
419.278610006277	7722.5
422.087312615557	7769.25
424.895063085503	7740.5
427.701862125901	7726
430.507710444981	7761.5
433.312608749366	7682.25
436.116557744146	7725
438.919558132791	7723.75
441.721610617238	7715.5
444.522715897856	7705.25
447.322874673457	7666
450.122087641299	7609.75
452.920355497092	7574
455.717678935009	7564
458.514058647681	7530.75
461.309495326219	7527.5
464.103989660191	7500.75
466.89754233765	7472.75
469.690154045114	7458.5
472.481825467625	7456.75
475.272557288674	7437.25
478.062350190281	7419
480.851204852952	7436.5
483.639121955683	7377.25
486.426102176007	7408.25
489.212146189955	7412
491.997254672093	7471.5
494.781428295471	7513.5
497.564667731716	7533
500.346973650958	7530.75
503.128346721878	7494.75
505.90878761169	7540
508.688296986151	7505.75
511.46687550957	7527.25
514.244523844831	7523.5
517.021242653354	7535.25
519.797032595132	7471
522.571894328732	7377
525.345828511279	7459
528.11883579849	7385.5
530.890916844655	7407.75
533.662072302668	7423.75
536.432302823985	7365
539.201609058684	7370
541.96999165542	7300.25
544.737451261473	7339
547.503988522723	7267
550.26960408366	7250.5
553.034298587394	7192
555.798072675669	7216.5
558.560926988819	7201
561.322862165849	7213.5
564.083878844369	7215.75
566.843977660654	7247.5
569.603159249604	7207.5
572.361424244769	7194
575.118773278369	7259.5
577.87520698124	7235
580.630725982905	7234.75
583.385330911566	7232.25
586.139022394076	7298.5
588.891801055954	7248.25
591.643667521406	7291
594.394622413318	7276
597.144666353273	7247.25
599.893799961512	7275.5
602.64202385701	7278
605.389338657413	7295
608.135744979089	7272.25
610.881243437092	7233.25
613.625834645191	7230.25
616.369519215881	7217.5
619.112297760374	7209.75
621.854170888604	7251.25
624.595139209225	7202.25
627.335203329614	7231.25
630.074363855914	7158.5
632.81262139299	7158
635.549976544436	7120.5
638.286429912612	7093.5
641.021982098635	7120
643.756633702364	7139.25
646.49038532241	7101
649.223237556176	7044.25
651.955190999808	7052.25
654.686246248224	7189
657.416403895135	7104.5
660.145664533011	7129.5
662.874028753133	7134
665.601497145537	7021.5
668.328070299071	7043.25
671.05374880138	7000
673.778533238885	7082.25
676.502424196839	7100
679.225422259297	7026.25
681.947528009099	7001.25
684.668742027927	6994.5
687.389064896281	7028.25
690.108497193465	7021.75
692.827039497621	6988.25
695.544692385724	6997
698.261456433585	6929.25
700.977332215847	6921
703.692320305981	6981.25
706.406421276337	6898
709.11963569808	6908.25
711.831964141256	6918
714.54340717474	6889.75
717.253965366304	6911.75
719.963639282552	6846.5
722.672429488961	6739.5
725.380336549904	6719.25
728.087361028596	6809
730.793503487166	6737.25
733.498764486594	6806.75
736.203144586758	6830
738.906644346447	6734.75
741.60926432331	6848
744.311005073912	6841
747.011867153727	6783.25
749.711851117121	6814.25
752.410957517375	6838.75
755.109186906677	6815.5
757.806539836132	6802.25
760.503016855779	6833
763.198618514551	6728.75
765.893345360346	6762.75
768.587197939964	6743
771.28017679914	6718.5
773.972282482566	6741
776.663515533859	6645
779.353876495581	6666.75
782.043365909241	6627.25
784.731984315327	6681.5
787.419732253235	6607.75
790.106610261366	6609.75
792.792618877058	6672.5
795.477758636618	6644
798.162030075313	6699
800.845433727423	6577.75
803.52797012615	6570.75
806.209639803714	6605.75
808.890443291304	6604.75
811.570381119098	6596.5
814.249453816265	6659
816.927661910959	6535.5
819.60500593036	6563
822.281486400603	6582
824.957103846864	6614.75
827.631858793316	6616.5
830.305751763135	6553.75
832.978783278519	6568
835.650953860677	6701.25
838.322264029848	6612.5
840.992714305292	6677.5
843.662305205289	6637
846.331037247157	6591
848.998910947241	6614
851.665926820933	6600
854.332085382674	6650.25
856.997387145915	6599.75
859.661832623191	6629.5
862.325422326066	6600
864.988156765172	6635.75
867.650036450181	6617
870.311061889846	6589.75
872.971233591961	6563.75
875.630552063409	6539
878.28901781013	6571.75
880.946631337138	6537.5
883.603393148533	6553.25
886.259303747484	6494
888.914363636246	6541.25
891.568573316155	6496.75
894.22193328767	6462
896.874444050281	6503
899.526106102625	6454.25
902.176919942416	6521
904.826886066483	6476
907.476004970747	6547.5
910.124277150255	6562.5
912.77170309913	6658.75
915.418283310642	6627.75
918.064018277175	6665.5
920.708908490222	6651.5
923.352954440405	6560.75
925.996156617486	6639.5
928.638515510334	6571
931.280031606966	6503
933.920705394521	6575.25
936.560537359303	6531.75
939.199527986737	6578.25
941.837677761392	6565.25
944.474987167006	6607.75
947.111456686438	6585.25
949.747086801734	6626
952.38187799407	6620.75
955.015830743792	6654.75
957.648945530418	6652
960.281222832633	6605.5
962.91266312826	6574
965.543266894336	6580
968.173034607058	6489.5
970.801966741779	6578.25
973.43006377307	6584
976.057326174661	6555
978.683754419471	6511.75
981.309348979623	6551.75
983.93411032642	6561.25
986.558038930361	6502.75
989.181135261144	6539.25
991.803399787692	6584.75
994.424832978086	6601.5
997.045435299653	6551.5
999.665207218906	6574
1002.2841492016	6555.5
1004.90226171266	6544
1007.51954521628	6552.75
1010.13600017584	6604.5
1012.75162705397	6631.25
1015.3664263125	6620
1017.9803984125	6687.5
1020.5935438143	6624.5
1023.20586297741	6655
1025.81735636063	6646.25
1028.42802442196	6665
1031.03786761869	6656.75
1033.64688640732	6665.75
1036.2550812436	6665.5
1038.86245258255	6722
1041.46900087844	6729.25
1044.07472658479	6734
1046.67963015438	6700.25
1049.28371203927	6756.75
1051.88697269075	6712.75
1054.48941255943	6773.5
1057.09103209513	6728.75
1059.691831747	6773.75
1062.29181196343	6714
1064.89097319211	6754
1067.48931587999	6730.75
1070.08684047333	6697.25
1072.68354741766	6719.25
1075.27943715779	6712.75
1077.87451013787	6738.75
1080.46876680127	6721.5
1083.06220759071	6750.75
1085.65483294822	6649.5
1088.24664331509	6766.75
1090.83763913194	6753.75
1093.42782083869	6734.5
1096.01718887459	6744
1098.60574367818	6762
1101.19348568732	6738.5
1103.78041533919	6776.75
1106.3665330703	6762
1108.95183931646	6752.5
1111.53633451284	6774.75
1114.12001909391	6794
1116.70289349349	6841.25
1119.2849581447	6863.25
1121.86621348005	6928.75
1124.44665993134	6859
1127.02629792973	6867
1129.60512790574	6868
1132.18315028919	6902.75
1134.76036550929	6910.5
1137.3367739946	6907
1139.912376173	6946
1142.48717247176	6940
1145.06116331748	6961.5
1147.63434913616	7054.25
1150.20673035312	6980.5
1152.77830739307	7030
1155.34908068007	6970.75
1157.91905063757	7010.75
1160.48821768838	7028.25
1163.05658225471	7006.5
1165.6241447581	6962.75
1168.19090561951	7020.75
1170.75686525927	7084.75
1173.32202409708	7117.75
1175.88638255206	7034.25
1178.44994104269	7091
1181.01269998684	7022
1183.57465980182	7131.5
1186.13582090427	7022.5
1188.69618371026	6995.25
1191.25574863529	6997.25
1193.8145160942	6990.5
1196.37248650129	6985.5
1198.92966027025	6969.5
1201.48603781416	6911.5
1204.04161954556	6958.5
1206.59640587635	6971.25
1209.15039721788	6942.5
1211.70359398092	6986.5
1214.25599657564	7006.5
1216.80760541166	6978.5
1219.35842089801	7072.25
1221.90844344314	7111
1224.45767345496	7119.25
1227.00611134077	7103.5
1229.55375750736	7149.25
1232.10061236092	7192.5
1234.64667630707	7254
1237.1919497509	7323.5
1239.73643309692	7396.5
1242.28012674912	7434.75
1244.82303111089	7387.5
1247.36514658511	7508.5
1249.9064735741	7583
1252.44701247964	7631.5
1254.98676370294	7695
1257.52572764469	7748.5
1260.06390470506	7654.75
1262.60129528365	7538.75
1265.13789977954	7453.25
1267.67371859128	7497.75
1270.20875211688	7454.5
1272.74300075384	7399.5
1275.2764648991	7449.75
1277.80914494911	7456.25
1280.34104129978	7556.75
1282.87215434652	7577.25
1285.40248448419	7557.5
1287.93203210715	7609.25
1290.46079760927	7562.25
1292.98878138385	7549.25
1295.51598382375	7552.5
1298.04240532127	7554
1300.56804626822	7586
1303.09290705593	7555.75
1305.6169880752	7589.5
1308.14028971632	7555.75
1310.66281236913	7586.75
1313.18455642292	7595
1315.70552226653	7587.75
1318.22571028829	7640.25
1320.74512087603	7733.25
1323.26375441711	7682.5
1325.7816112984	7758.5
1328.29869190629	7676.5
1330.81499662666	7796.75
1333.33052584497	7773
1335.84527994613	7811.25
1338.35925931464	7883
1340.87246433446	7873
1343.38489538916	7942.75
1345.89655286177	7920.25
1348.40743713487	7966.25
1350.91754859059	7994.25
1353.42688761059	8023.25
1355.93545457606	8136.5
1358.44324986772	8078.5
1360.95027386588	8176.5
1363.45652695032	8090
1365.96200950042	8121
1368.4667218951	8082.25
1370.97066451281	8195.5
1373.47383773156	8116
1375.97624192891	8215.5
1378.47787748199	8200.75
1380.97874476746	8294.25
1383.47884416157	8318
1385.97817604009	8228.5
1388.4767407784	8239.5
1390.9745387514	8297.5
1393.47157033358	8363.75
1395.96783589898	8441
1398.46333582124	8379.25
1400.95807047354	8326.5
1403.45204022864	8305.5
1405.94524545889	8246.25
1408.4376865362	8181.5
1410.92936383205	8171.25
1413.42027771752	8171.75
1415.91042856328	8120.25
1418.39981673955	8182.5
1420.88844261615	8207.5
1423.37630656249	8204.25
1425.86340894757	8235.25
1428.34975013999	8249.75
1430.83533050792	8292.75
1433.32015041912	8326.75
1435.80421024098	8348.5
1438.28751034045	8504.75
1440.77005108411	8450
1443.25183283812	8501.5
1445.73285596824	8563.5
1448.21312083984	8496.75
1450.69262781791	8587.25
1453.17137726702	8662.5
1455.64936955137	8625.5
1458.12660503477	8632
1460.60308408063	8693
1463.07880705197	8592.5
1465.55377431145	8686.5
1468.02798622133	8683
1470.50144314348	8715.75
1472.97414543941	8671.75
1475.44609347024	8731.75
1477.91728759673	8772.25
1480.38772817924	8795
1482.85741557777	8757.25
1485.32635015194	8747.25
1487.79453226103	8754.75
1490.26196226391	8739.5
1492.72864051911	8820.25
1495.1945673848	8830.5
1497.65974321874	8821.5
1500.1241683784	8774.5
1502.58784322083	8827.5
1505.05076810274	8844
1507.51294338049	8854.25
1509.97436941009	8826.5
1512.43504654717	8877
1514.89497514704	8903.25
1517.35415556462	8979.75
1519.81258815451	9013.5
1522.27027327095	8925.5
1524.72721126784	8954.5
1527.18340249874	8943
1529.63884731684	9025.25
1532.09354607502	8966.25
1534.5474991258	9011
1537.00070682136	9062.75
1539.45316951355	8989
1541.90488755388	9025.75
1544.35586129353	9053
1546.80609108336	9161.75
1549.25557727385	9215.75
1551.70432021519	9171.75
1554.15232025725	9257.75
1556.59957774953	9247.25
1559.04609304125	9401
1561.49186648127	9245
1563.93689841815	9241.5
1566.38118920011	9364.5
1568.82473917506	9333.75
1571.2675486906	9404
1573.70961809399	9460.75
1576.15094773219	9519
1578.59153795184	9556
1581.03138909928	9585.75
1583.47050152051	9782.25
1585.90887556123	9912
1588.34651156686	10275.5
1590.78340988246	10735.75
1593.21957085283	11108.25
1595.65499482245	11132
1598.08968213547	10817.5
1600.52363313578	10222.5
1602.95684816694	9939.5
1605.38932757224	9710.75
1607.82107169462	9611.25
1610.25208087677	9552.25
1612.68235546107	9474
1615.1118957896	9411
1617.54070220415	9362
1619.96877504621	9362.5
1622.39611465701	9402.25
1624.82272137746	9393.5
1627.24859554818	9376.75
1629.67373750953	9244.25
1632.09814760155	9315.75
1634.52182616404	9219.5
1636.94477353647	9312.75
1639.36699005806	9279.25
1641.78847606776	9271.5
1644.20923190418	9318
1646.62925790573	9329.25
1649.04855441048	9265
1651.46712175628	9419.75
1653.88496028066	9346.25
1656.3020703209	9472
1658.71845221401	9468.5
1661.13410629671	9545.25
1663.54903290547	9641
1665.96323237649	9573.75
1668.37670504571	9650.25
1670.78945124877	9660.25
1673.20147132109	9657
1675.61276559779	9747
1678.02333441377	9678.5
1680.43317810362	9682
1682.84229700171	9846.5
1685.25069144213	9741.25
1687.65836175872	9804.25
1690.06530828507	9826
1692.47153135451	9742
1694.87703130009	9716
1697.28180845467	9899
1699.6858631508	9919.5
1702.08919572081	9875.5
1704.49180649676	9820.75
1706.89369581049	9838.75
1709.29486399355	9894.25
1711.69531137731	9852.5
1714.09503829282	9897
1716.49404507095	9832
1718.89233204229	9869
1721.28989953721	9851.5
1723.68674788581	9870.5
1726.08287741798	9834.75
1728.47828846338	9940.5
1730.87298135139	9806
1733.26695641119	9903.75
1735.66021397173	9924.75
1738.05275436169	9866
1740.44457790954	9832.5
1742.83568494354	9883.5
1745.22607579168	9953
1747.61575078175	9827.5
1750.00471024128	9902.5
1752.39295449761	9954.75
1754.78048387783	9885.25
1757.16729870881	9877.25
1759.5533993172	9887.5
1761.93878602942	9839.5
1764.32345917168	9932.5
1766.70741906995	10003.25
1769.09066604999	9967.25
1771.47320043735	9996.25
1773.85502255735	10041.75
1776.2361327351	9993
1778.61653129548	10048
1780.99621856318	10068.75
1783.37519486264	10058.25
1785.75346051813	10151.75
1788.13101585368	10182.75
1790.5078611931	10152.25
1792.88399686002	10130.5
1795.25942317785	10116.75
1797.63414046977	10109.5
1800.00814905878	10222.75
1802.38144926766	10134
1804.75404141898	10188
1807.12592583514	10183.25
1809.49710283829	10292.25
1811.86757275039	10230.75
1814.23733589322	10307.75
1816.60639258834	10217
1818.97474315712	10243.75
1821.34238792073	10267.5
1823.70932720012	10163.25
1826.07556131608	10250.5
1828.44109058918	10218.5
1830.8059153398	10252
1833.17003588812	10174
1835.53345255413	10230.75
1837.89616565765	10191
1840.25817551827	10193.75
1842.61948245541	10213.25
1844.9800867883	10144.5
1847.33998883598	10226.5
1849.69918891729	10211.75
1852.05768735091	10343.25
1854.4154844553	10202
1856.77258054875	10271.25
1859.12897594938	10240.25
1861.4846709751	10235.25
1863.83966594366	10212.5
1866.19396117261	10205.25
1868.54755697932	10203.5
1870.90045368099	10324.5
1873.25265159463	10217.75
1875.60415103708	10284.75
1877.95495232501	10427.75
1880.30505577486	10447.75
1882.65446170299	10471.25
1885.00317042548	10493
1887.35118225832	10416.5
1889.69849751726	10498.25
1892.04511651792	10504.75
1894.39103957574	10491.25
1896.73626700596	10587
1899.08079912368	10669.25
1901.42463624384	10627
1903.76777868116	10566.5
1906.11022675025	10665
1908.4519807655	10693.5
1910.79304104117	10642.25
1913.13340789134	10832.75
1915.47308162992	10609
1917.81206257067	10728.75
1920.15035102718	10726
1922.48794731286	10797.25
1924.82485174096	10778.25
1927.16106462461	10798
1929.49658627672	10838.25
1931.83141701008	10742.25
1934.1655571373	10745.5
1936.49900697085	10716.5
1938.83176682301	10693.25
1941.16383700594	10781.75
1943.49521783161	10754.25
1945.82590961186	10739.25
1948.15591265835	10633
1950.48522728262	10680.75
1952.81385379602	10740.25
1955.14179250976	10688.25
1957.46904373489	10722.75
1959.79560778233	10599.25
1962.12148496284	10714.75
1964.44667558701	10734
1966.77117996529	10636.25
1969.09499840799	10638.75
1971.41813122527	10716.25
1973.74057872714	10792
1976.06234122345	10848.25
1978.38341902391	10753.25
1980.7038124381	10792.25
1983.02352177543	10796.75
1985.34254734518	10861.75
1987.66088945649	10926.5
1989.97854841833	10862.75
1992.29552453956	10876
1994.61181812887	10909.25
1996.92742949483	10972
1999.24235894586	10958
2001.55660679023	11026.25
2003.87017333608	10972
2006.18305889143	11009.75
2008.49526376413	10986
2010.80678826189	11008.25
2013.1176326923	11118.75
2015.42779736282	11125.5
2017.73728258075	11117.25
2020.04608865326	11116.75
2022.3542158874	11033.25
2024.66166459008	11270.25
2026.96843506807	11217
2029.274527628	11339.75
2031.57994257637	11332.5
2033.88468021957	11280
2036.18874086383	11308.25
2038.49212481526	11289.75
2040.79483237983	11335.75
2043.0968638634	11377.5
2045.39821957169	11468
2047.69889981028	11443.75
2049.99890488462	11319.75
2052.29823510006	11425.75
2054.59689076181	11296.75
2056.89487217492	11369.25
2059.19217964437	11295
2061.48881347497	11382.25
2063.7847739714	11448.25
2066.08006143826	11334.75
2068.37467618	11335.5
2070.66861850093	11418.5
2072.96188870527	11414.5
2075.25448709707	11429.5
2077.54641398031	11404
2079.83766965881	11506.25
2082.12825443629	11369.75
2084.41816861634	11436.25
2086.70741250242	11382.5
2088.99598639789	11379.25
2091.28389060597	11438.25
2093.57112542978	11337.5
2095.85769117232	11437.5
2098.14358813644	11383.75
2100.42881662491	11442
2102.71337694037	11464.5
2104.99726938532	11399.75
2107.28049426219	11385.5
2109.56305187325	11437
2111.84494252069	11509.75
2114.12616650655	11528
2116.40672413278	11450.25
2118.68661570121	11549
2120.96584151355	11633
2123.24440187138	11693.25
2125.52229707622	11657
2127.79952742943	11558.25
2130.07609323227	11611.25
2132.35199478588	11721
2134.62723239132	11759
2136.90180634949	11731.25
2139.17571696123	11759.25
2141.44896452723	11860
2143.72154934809	11911.75
2145.99347172429	11851.75
2148.26473195623	11905
2150.53533034415	11983.5
2152.80526718821	12009
2155.07454278848	12038.25
2157.3431574449	11973
2159.61111145728	12077.25
2161.87840512538	12033.5
2164.1450387488	12027.5
2166.41101262707	12106.5
2168.67632705959	12074.75
2170.94098234567	12143.75
2173.20497878451	12034.5
2175.46831667519	12165.5
2177.73099631672	12120
2179.99301800797	12157.5
2182.25438204772	12225.25
2184.51508873466	12103
2186.77513836735	12185
2189.03453124427	12211.5
2191.29326766378	12148
2193.55134792416	12143.25
2195.80877232355	12209.5
2198.06554116004	12189.75
2200.32165473157	12154.25
2202.577113336	12247.75
2204.83191727111	12210
2207.08606683453	12197
2209.33956232384	12268
2211.59240403648	12287.5
2213.84459226982	12216.5
2216.09612732112	12270.25
2218.34700948753	12246.5
2220.59723906612	12255.75
2222.84681635385	12319.75
2225.09574164758	12274
2227.34401524408	12288.5
2229.59163744002	12247.5
2231.83860853197	12330.5
2234.08492881639	12281.5
2236.33059858968	12254.75
2238.5756181481	12441.25
2240.81998778784	12429.75
2243.06370780499	12347.75
2245.30677849555	12332.75
2247.54920015539	12388
2249.79097308033	12387.75
2252.03209756607	12371
2254.27257390822	12393.75
2256.51240240228	12407
2258.75158334369	12398.75
2260.99011702777	12366.75
2263.22800374976	12393.5
2265.46524380477	12507.5
2267.70183748786	12448.25
2269.93778509399	12541
2272.17308691801	12476.25
2274.40774325467	12573.25
2276.64175439866	12532
2278.87512064454	12579.75
2281.10784228682	12554.75
2283.33991961987	12653
2285.571352938	12610
2287.80214253541	12537.25
2290.03228870623	12730.25
2292.26179174449	12604.75
2294.4906519441	12665.25
2296.71886959892	12691.25
2298.9464450027	12585.5
2301.1733784491	12699.5
2303.39967023169	12708.75
2305.62532064395	12673.5
2307.85032997926	12740.5
2310.07469853093	12673.25
2312.29842659216	12656.5
2314.52151445608	12748
2316.7439624157	12734.25
2318.96577076397	12746.25
2321.18693979374	12751.5
2323.40746979777	12755.75
2325.62736106873	12758.5
2327.8466138992	12791.5
2330.06522858166	12757.75
2332.28320540853	12820.25
2334.50054467212	12796
2336.71724666465	12813.25
2338.93331167827	12764.25
2341.14874000501	12847
2343.36353193685	12759.75
2345.57768776564	12754.25
2347.79120778319	12747.75
2350.00409228117	12714.25
2352.21634155121	12822
2354.42795588482	12773.25
2356.63893557342	12763.5
2358.84928090838	12727
2361.05899218094	12757.25
2363.26806968228	12796.75
2365.47651370347	12825.75
2367.68432453552	12794
2369.89150246933	12693.25
2372.09804779571	12723.75
2374.30396080541	12754.5
2376.50924178907	12717
2378.71389103725	12722
2380.91790884042	12812
2383.12129548897	12637.5
2385.3240512732	12663.75
2387.52617648332	12614.5
2389.72767140946	12664.5
2391.92853634165	12642.25
2394.12877156985	12600.75
2396.32837738392	12751.5
2398.52735407365	12639.25
2400.72570192873	12566.75
2402.92342123875	12623.25
2405.12051229325	12603.75
2407.31697538167	12597.25
2409.51281079333	12581.5
2411.70801881751	12617.75
2413.90259974339	12617.5
2416.09655386004	12650.5
2418.28988145648	12494.75
2420.48258282162	12541.5
2422.6746582443	12591.5
2424.86610801325	12632.75
2427.05693241713	12596.75
2429.24713174452	12475.25
2431.43670628389	12501.5
2433.62565632365	12519
2435.81398215212	12547.25
2438.00168405752	12545
2440.18876232799	12509.5
2442.37521725158	12513.75
2444.56104911628	12439.5
2446.74625820994	12493
2448.93084482038	12443.5
2451.1148092353	12484.5
2453.29815174233	12362.25
2455.480872629	12403.25
2457.66297218275	12313.5
2459.84445069097	12254
2462.02530844092	12300.75
2464.2055457198	12192.25
2466.38516281471	12228.5
2468.56416001267	12236.25
2470.74253760061	12157.5
2472.92029586537	12209
2475.09743509372	12139
2477.27395557232	12175.5
2479.44985758777	12308
2481.62514142655	12224.25
2483.79980737508	12216.25
2485.97385571969	12114
2488.14728674661	12113.5
2490.32010074198	12227.5
2492.49229799188	12166.25
2494.66387878228	12149.25
2496.83484339905	12245.25
2499.00519212802	12260.5
2501.17492525488	12244.25
2503.34404306528	12223.5
2505.51254584473	12267.25
2507.6804338787	12190.75
2509.84770745254	12158.75
2512.01436685153	12149
2514.18041236085	12101.5
2516.34584426561	12244.75
2518.51066285081	12168.5
2520.67486840138	12255.5
2522.83846120214	12192.5
2525.00144153784	12185.5
2527.16380969314	12191.75
2529.32556595261	12307.75
2531.48671060072	12327.5
2533.64724392186	12292.25
2535.80716620033	12312
2537.96647772034	12232
2540.12517876602	12186.5
2542.2832696214	12259
2544.44075057041	12189
2546.59762189691	12088
2548.75388388466	12125.5
2550.90953681735	12091.25
2553.06458097853	12093.5
2555.21901665172	12126
2557.37284412031	12143.5
2559.5260636676	12129.75
2561.67867557684	12157.25
2563.83068013113	11947.25
2565.98207761351	12040.5
2568.13286830695	12024.25
2570.28305249429	12056.75
2572.43263045829	12030.75
2574.58160248163	11902.5
2576.72996884689	11841.5
2578.87772983655	11847
2581.02488573303	11917.5
2583.1714368186	11947
2585.31738337549	11862.75
2587.46272568582	11830
2589.60746403161	11863
2591.75159869479	11856.5
2593.89512995722	11805.25
2596.03805810061	11834.5
2598.18038340665	11840
2600.32210615686	11857.25
2602.46322663274	11865.25
2604.60374511563	11841
2606.74366188683	11815.5
2608.88297722751	11773.5
2611.02169141875	11787.75
2613.15980474156	11814
2615.29731747681	11832.5
2617.43422990532	11814.75
2619.57054230779	11797
2621.70625496483	11798
2623.84136815694	11780.25
2625.97588216456	11854
2628.10979726799	11822.75
2630.24311374746	11820.5
2632.3758318831	11832.75
2634.50795195493	11833
2636.6394742429	11826.25
2638.77039902682	11939.25
2640.90072658645	11839
2643.0304572014	11891.75
2645.15959115123	11883.25
2647.28812871538	11940.75
2649.41607017319	11878.75
2651.5434158039	11895.5
2653.67016588665	11899.5
2655.79632070049	11900.25
2657.92188052436	11896.25
2660.04684563711	11944.25
2662.17121631749	11896
2664.29499284413	11944.5
2666.41817549558	11800.75
2668.54076455027	11871.25
2670.66276028656	11877.25
2672.78416298267	11933
2674.90497291675	11856.75
2677.02519036682	11858
2679.14481561082	11906.75
2681.26384892658	11924.5
2683.38229059182	11838.75
2685.50014088417	11903
2687.61740008114	11968.75
2689.73406846017	11944
2691.85014629854	11896.5
2693.96563387347	11901
2696.08053146206	11932.75
2698.1948393413	11795.5
2700.3085577881	11863.5
2702.42168707924	11863
2704.53422749139	11906.5
2706.64617930112	11875.75
2708.75754278492	11936
2710.86831821913	11825.25
2712.97850588002	11894.25
2715.08810604372	11871
2717.19711898628	11909.5
2719.30554498363	11911.5
2721.41338431158	11808
2723.52063724586	11858.75
2725.62730406206	11885.75
2727.73338503569	11864.5
2729.83888044213	11866.5
2731.94379055664	11918.75
2734.04811565441	12053.5
2736.15185601048	11940.75
2738.25501189979	11959.75
2740.35758359718	11947.5
2742.45957137738	11940.75
2744.56097551499	11947.75
2746.6617962845	12042.75
2748.7620339603	11979
2750.86168881666	11989.5
2752.96076112774	11971
2755.05925116758	11952.75
2757.15715921012	11905
2759.25448552917	12048.5
2761.35123039843	11926.75
2763.44739409148	11933
2765.5429768818	11907.75
2767.63797904275	11877
2769.73240084756	11983.5
2771.82624256934	11977
2773.91950448113	11937.5
2776.01218685579	11996.75
2778.10428996609	11996
2780.19581408469	11960.25
2782.28675948414	12006
2784.37712643683	12018.25
2786.46691521507	12021.75
2788.55612609104	11945.5
2790.64475933678	11958
2792.73281522425	11908
2794.82029402525	11916.75
2796.90719601149	11935.5
2798.99352145453	11836.75
2801.07927062583	11863.25
2803.16444379672	11865
2805.24904123841	11972.5
2807.33306322197	11903
2809.41651001838	11921.5
2811.49938189847	11918.75
2813.58167913296	11962.5
2815.66340199243	11953.75
2817.74455074734	11922.5
2819.82512566805	11870.75
2821.90512702475	11915.5
2823.98455508754	11904.75
2826.06341012637	11969
2828.14169241109	11916.25
2830.2194022114	11986.25
2832.29653979686	11987
2834.37310543694	11955.5
2836.44909940096	12006.75
2838.5245219581	11946.25
2840.59937337744	12034.25
2842.67365392791	11999.5
2844.74736387829	11992
2846.82050349727	11961.75
2848.8930730534	12083
2850.96507281506	12038
2853.03650305056	12146.25
2855.10736402802	12065.75
2857.17765601545	12129.25
2859.24737928074	12101.25
2861.31653409164	12077.75
2863.38512071574	12070.75
2865.45313942054	12131
2867.52059047335	12114
2869.58747414139	12137.5
2871.65379069173	12109.25
2873.7195403913	12097.75
2875.78472350688	12086.5
2877.84934030515	12033
2879.91339105262	12121
2881.97687601567	12138.25
2884.03979546053	12178.5
2886.10214965332	12093.25
2888.16393886	12179.25
2890.22516334639	12242.75
2892.28582337816	12140.25
2894.34591922087	12336.75
2896.40545113992	12294.25
2898.46441940054	12356
2900.52282426787	12388.5
2902.58066600687	12512
2904.63794488237	12605.75
2906.69466115906	12633
2908.75081510147	12701.5
2910.806406974	12769
2912.8614370409	12757.5
2914.91590556626	12881
2916.96981281404	12787.25
2919.02315904807	12593
2921.07594453199	12653.75
2923.12816952932	12553.75
2925.17983430343	12573.25
2927.23093911753	12555.75
2929.28148423469	12391
2931.33146991782	12483
2933.3808964297	12386.5
2935.42976403294	12369
2937.47807299	12412.25
2939.5258235632	12288
2941.57301601469	12303
2943.61965060648	12224
2945.66572760042	12312
2947.71124725823	12329.25
2949.75620984143	12260.25
2951.80061561143	12240
2953.84446482945	12194.5
2955.88775775656	12165
2957.9304946537	12045
2959.97267578162	12077.5
2962.01430140095	12127.75
2964.05537177211	12085.75
2966.09588715541	12055.5
2968.13584781097	12209.25
2970.17525399875	12252.25
2972.21410597859	12012.75
2974.25240401011	12156.75
2976.29014835283	12138
2978.32733926604	12210.5
2980.36397700892	12199.75
2982.40006184049	12106.75
2984.43559401955	12117
2986.4705738048	12104.25
2988.50500145473	12102.5
2990.53887722771	12152.75
2992.57220138189	12076.25
2994.6049741753	12175.25
2996.63719586576	12151.75
2998.66886671097	12118.75
3000.69998696843	12208.5
3002.73055689549	12231.25
3004.7605767493	12275
3006.79004678688	12134.75
3008.81896726505	12152.25
3010.84733844048	12152.5
3012.87516056966	12178.5
3014.9024339089	12165.75
3016.92915871433	12266.75
3018.95533524196	12290.25
3020.98096374756	12309
3023.00604448675	12294.5
3025.030577715	12293
3027.05456368757	12345.75
3029.07800265956	12365
3031.10089488589	12220.5
3033.12324062131	12381.5
3035.14504012038	12358.75
3037.16629363749	12327.75
3039.18700142685	12445.75
3041.20716374249	12261.75
3043.22678083826	12194
3045.24585296782	12382
3047.26438038468	12335
3049.28236334212	12289.5
3051.29980209329	12371
3053.31669689111	12193.25
3055.33304798835	12309
3057.34885563757	12371.5
3059.36412009117	12349
3061.37884160134	12248.75
3063.39302042011	12339.5
3065.40665679931	12296.25
3067.41975099058	12312
3069.43230324538	12339.25
3071.44431381495	12231.75
3073.45578295041	12273.75
3075.46671090261	12279.5
3077.47709792227	12248.25
3079.48694425989	12150.5
3081.49625016578	12277.25
3083.50501589008	12255.25
3085.5132416827	12247.25
3087.5209277934	12271.25
3089.52807447169	12142.75
3091.53468196695	12136.75
3093.54075052832	12204.25
3095.54628040476	12186
3097.55127184503	12178.5
3099.55572509769	12157.5
3101.55964041111	12162.25
3103.56301803346	12166.75
3105.5658582127	12172.5
3107.56816119661	12322
3109.56992723275	12143.5
3111.57115656849	12175.25
3113.571849451	12077.25
3115.57200612724	12178.25
3117.57162684397	12181.75
3119.57071184775	12264
3121.56926138493	12262.75
3123.56727570166	12248.75
3125.56475504389	12266
3127.56169965735	12207.5
3129.55810978757	12222.25
3131.55398567987	12337.25
3133.54932757937	12278.5
3135.54413573099	12419.5
3137.53841037939	12316.5
3139.53215176909	12254.25
3141.52536014435	12353.75
3143.51803574924	12338.25
3145.51017882762	12353.75
3147.50178962311	12359.5
3149.49286837916	12388.25
3151.48341533897	12261.75
3153.47343074553	12337.75
3155.46291484164	12358
3157.45186786985	12325
3159.44029007252	12346.25
3161.42818169179	12259
3163.41554296955	12356.75
3165.40237414753	12298.75
3167.38867546718	12420.5
3169.37444716975	12215.25
3171.35968949631	12382
3173.34440268764	12359.5
3175.32858698436	12366.25
3177.31224262682	12351.75
3179.29536985517	12393.5
3181.27796890934	12296.75
3183.26004002902	12267.25
3185.24158345368	12391.25
3187.22259942256	12371
3189.2030881747	12358.25
3191.18304994886	12377
3193.16248498363	12416.25
3195.14139351733	12378.75
3197.11977578807	12346.75
3199.09763203371	12370.25
3201.07496249191	12349.75
3203.05176740007	12327.75
3205.02804699537	12297.75
3207.00380151475	12376.5
3208.97903119493	12402.75
3210.95373627238	12411.5
3212.92791698335	12480.75
3214.90157356383	12288.25
3216.8747062496	12379.75
3218.84731527619	12376.25
3220.81940087889	12431.75
3222.79096329275	12500.5
3224.76200275259	12398.25
3226.73251949298	12496.75
3228.70251374825	12576.25
3230.67198575251	12399
3232.64093573959	12426.25
3234.6093639431	12587.75
3236.57727059641	12581.25
3238.54465593261	12661.75
3240.51152018461	12542
3242.47786358502	12549
3244.44368636621	12652.25
3246.40898876031	12537
3248.37377099923	12607.75
3250.33803331458	12558.25
3252.30177593775	12655.75
3254.26499909987	12656.5
3256.22770303184	12733.75
3258.18988796427	12632.25
3260.15155412755	12660
3262.1127017518	12564.75
3264.0733310669	12590.25
3266.03344230246	12632.25
3267.99303568784	12676.75
3269.95211145215	12566.5
3271.91066982422	12733.75
3273.86871103267	12569
3275.82623530581	12642
3277.7832428717	12610.25
3279.73973395818	12618.5
3281.69570879278	12678.75
3283.6511676028	12676.5
3285.60611061527	12644.5
3287.56053805694	12678.75
3289.51445015432	12659.25
3291.46784713364	12747.75
3293.42072922088	12715.5
3295.37309664173	12518
3297.32494962163	12565.75
3299.27628838575	12490.75
3301.227113159	12578.5
3303.17742416601	12591.5
3305.12722163114	12663.75
3307.07650577848	12606
3309.02527683185	12629
3310.9735350148	12658.75
3312.9212805506	12669
3314.86851366225	12656.5
3316.81523457249	12653
3318.76144350377	12630.5
3320.70714067825	12631
3322.65232631783	12585.25
3324.59700064415	12565
3326.54116387854	12517
3328.48481624207	12543.25
3330.42795795551	12612.25
3332.37058923938	12488.5
3334.31271031389	12554
3336.25432139898	12461.25
3338.19542271432	12497.25
3340.13601447927	12501
3342.07609691292	12492.75
3344.01567023407	12466.25
3345.95473466124	12468.5
3347.89329041266	12544.5
3349.83133770627	12476.25
3351.76887675973	12425
3353.70590779039	12381.5
3355.64243101534	12432.5
3357.57844665135	12457.5
3359.51395491492	12504.75
3361.44895602224	12503.25
3363.38345018922	12540
3365.31743763148	12467.25
3367.25091856432	12496.75
3369.18389320278	12445
3371.11636176156	12555.5
3373.0483244551	12527.5
3374.97978149754	12533.75
3376.91073310269	12555.5
3378.84117948409	12514.25
3380.77112085498	12515.75
3382.70055742826	12566.75
3384.62948941659	12474
3386.55791703227	12471.25
3388.48584048733	12503.5
3390.41325999348	12611.75
3392.34017576214	12582.5
3394.2665880044	12569.5
3396.19249693107	12575.75
3398.11790275263	12551.5
3400.04280567926	12591.25
3401.96720592084	12643
3403.89110368692	12608
3405.81449918675	12661.25
3407.73739262928	12629.25
3409.65978422311	12622
3411.58167417658	12608.25
3413.50306269768	12667.25
3415.42394999408	12642.25
3417.34433627316	12689.75
3419.26422174195	12577
3421.18360660721	12643.5
3423.10249107532	12523.75
3425.02087535239	12540
3426.93875964421	12561
3428.8561441562	12575.5
3430.77302909353	12422.25
3432.68941466097	12498.5
3434.60530106301	12449.75
3436.52068850383	12428.25
3438.43557718726	12520.25
3440.34996731681	12420.25
3442.26385909565	12403.5
3444.17725272664	12411.75
3446.09014841231	12366.5
3448.00254635486	12353.5
3449.91444675614	12462.25
3451.82584981771	12385.25
3453.73675574076	12280.25
3455.64716472616	12336.75
3457.55707697445	12285.5
3459.46649268584	12349.5
3461.37541206018	12302
3463.28383529703	12317
3465.19176259555	12233
3467.09919415464	12221.75
3469.00613017278	12217
3470.91257084817	12273
3472.81851637863	12153.5
3474.72396696168	12145.25
3476.62892279446	12171.75
3478.53338407379	12247.5
3480.43735099614	12061.25
3482.34082375764	12160
3484.24380255404	12170.25
3486.1462875808	12123
3488.048279033	12180
3489.94977710537	12111.5
3491.85078199231	12133
3493.75129388783	12091.5
3495.65131298566	12049.5
3497.5508394791	12017.25
3499.44987356115	12076.25