
200.475549058548	1447
203.359249075907	1438
206.241936533635	1419
209.123612299129	1434
212.004277237673	1382
214.883932212466	1414
217.762578084596	1441
220.640215713076	1452
223.516845954837	1405
226.392469664723	1450
229.26708769552	1429
232.14070089794	1424
235.013310120656	1434
237.884916210263	1412
240.755520011335	1431
243.625122366404	1430
246.493724115942	1449
249.361326098424	1415
252.227929150296	1425
255.093534105978	1414
257.958141797884	1429
260.821753056447	1442
263.684368710063	1448
266.545989585164	1437
269.406616506196	1455
272.266250295612	1414
275.124891773896	1430
277.982541759568	1440
280.839201069171	1480
283.69487051732	1464
286.549550916647	1439
289.403243077853	1455
292.255947809714	1454
295.10766591904	1462
297.958398210747	1410
300.808145487801	1439
303.656908551278	1438
306.504688200319	1470
309.351485232171	1442
312.197300442189	1447
315.042134623818	1464
317.885988568629	1404
320.72886306631	1438
323.570758904654	1436
326.411676869615	1446
329.251617745253	1419
332.09058231378	1430
334.928571355551	1436
337.765585649082	1409
340.601625971023	1436
343.436693096224	1432
346.270787797657	1463
349.103910846512	1444
351.936063012115	1450
354.767245062016	1432
357.597457761927	1473
360.426701875771	1461
363.25497816566	1440
366.082287391928	1500
368.908630313104	1454
371.734007685947	1440
374.558420265435	1479
377.381868804758	1468
380.204354055371	1462
383.02587676694	1513
385.846437687393	1497
388.666037562889	1471
391.484677137862	1476
394.302357154986	1443
397.119078355226	1467
399.934841477789	1450
402.749647260174	1428
405.563496438161	1478
408.376389745808	1512
411.188327915483	1501
413.999311677824	1456
416.809341761793	1489
419.61841889465	1479
422.426543801968	1494
425.233717207637	1539
428.039939833878	1453
430.845212401226	1501
433.64953562856	1479
436.452910233093	1487
439.255336930382	1428
442.056816434335	1502
444.857349457205	1503
447.65693670962	1505
450.455578900554	1478
453.253276737363	1485
456.050030925759	1491
458.84584216986	1453
461.640711172138	1454
464.434638633487	1490
467.227625253163	1524
470.019671728842	1492
472.810778756586	1476
475.600947030889	1513
478.390177244633	1521
481.178470089144	1499
483.965826254145	1503
486.752246427819	1468
489.537731296754	1511
492.322281545992	1489
495.105897859008	1512
497.888580917748	1513
500.670331402573	1498
503.451149992328	1499
506.231037364323	1533
509.009994194319	1510
511.788021156572	1499
514.565118923787	1506
517.341288167165	1499
520.116529556395	1515
522.890843759669	1526
525.664231443643	1457
528.436693273514	1512
531.208229912947	1511
533.978842024138	1522
536.7485302678	1509
539.517295303154	1534
542.285137787949	1500
545.052058378482	1470
547.818057729542	1494
550.583136494504	1479
553.347295325253	1491
556.110534872227	1478
558.872855784437	1508
561.63425870943	1484
564.39474429332	1510
567.154313180785	1540
569.912966015068	1515
572.67070343802	1507
575.427526090021	1496
578.183434610073	1471
580.938429635768	1513
583.692511803256	1556
586.445681747326	1534
589.197940101341	1550
591.949287497293	1508
594.699724565755	1531
597.449251935952	1526
600.197870235697	1526
602.945580091462	1571
605.692382128313	1487
608.43827696997	1480
611.183265238786	1492
613.92734755576	1511
616.670524540528	1503
619.412796811394	1456
622.154164985306	1476
624.894629677859	1479
627.634191503348	1461
630.372851074691	1502
633.110609003535	1482
635.847465900133	1494
638.5834223735	1461
641.31847903127	1474
644.052636479799	1496
646.78589532413	1487
649.518256168005	1507
652.249719613883	1490
654.9802862629	1462
657.709956714938	1455
660.438731568556	1524
663.166611421075	1499
665.893596868511	1527
668.619688505609	1509
671.344886925857	1508
674.06919272149	1538
676.792606483454	1557
679.515128801468	1609
682.236760263971	1580
684.95750145819	1547
687.677352970088	1548
690.396315384383	1506
693.114389284579	1471
695.831575252931	1517
698.547873870488	1523
701.26328571705	1469
703.977811371216	1467
706.691451410374	1525
709.404206410691	1508
712.116076947135	1477
714.827063593468	1516
717.537166922259	1532
720.246387504871	1505
722.954725911495	1510
725.662182711119	1502
728.368758471555	1497
731.074453759451	1539
733.779269140254	1495
736.483205178258	1537
739.186262436579	1511
741.888441477189	1514
744.589742860895	1486
747.290167147334	1525
749.989714895015	1542
752.688386661259	1512
755.386183002312	1524
758.083104473222	1505
760.779151627929	1529
763.474325019226	1517
766.168625198792	1573
768.86205271717	1527
771.554608123806	1535
774.246291966996	1524
776.937104793953	1525
779.627047150767	1500
782.316119582421	1513
785.004322632802	1533
787.691656844701	1547
790.378122759819	1549
793.063720918755	1514
795.74845186104	1497
798.432316125098	1540
801.115314248287	1502
803.797446766894	1537
806.478714216137	1524
809.159117130155	1511
811.838656042029	1512
814.517331483774	1506
817.19514398637	1483
819.872094079703	1519
822.548182292652	1521
825.223409153026	1546
827.897775187597	1509
830.571280922097	1562
833.243926881234	1544
835.915713588667	1570
838.586641567043	1513
841.256711337974	1539
843.925923422052	1510
846.594278338864	1599
849.261776606963	1637
851.928418743908	1571
854.594205266247	1568
857.259136689525	1566
859.923213528287	1560
862.586436296082	1545
865.24880550546	1573
867.910321667994	1559
870.570985294264	1542
873.230796893869	1524
875.88975697543	1537
878.5478660466	1506
881.205124614036	1565
883.861533183448	1536
886.517092259586	1522
889.171802346213	1516
891.825663946165	1542
894.478677561296	1523
897.130843692517	1513
899.782162839801	1512
902.432635502166	1485
905.082262177682	1519
907.73104336351	1516
910.378979555833	1518
913.026071249948	1511
915.672318940189	1532
918.317723119977	1517
920.96228428181	1518
923.606002917288	1483
926.248879517054	1498
928.890914570882	1505
931.532108567604	1530
934.172461995178	1504
936.811975340628	1541
939.450649090111	1506
942.088483728854	1468
944.725479741231	1496
947.361637610698	1535
949.996957819825	1517
952.63144085032	1532
955.26508718299	1554
957.897897297789	1505
960.529871673774	1526
963.161010789143	1516
965.791315121223	1510
968.420785146496	1510
971.049421340547	1487
973.677224178144	1490
976.304194133165	1495
978.930331678668	1493
981.555637286841	1488
984.180111429039	1503
986.803754575769	1512
989.426567196693	1489
992.048549760653	1501
994.669702735642	1494
997.290026588849	1496
999.909521786598	1496
1002.52818879443	1486
1005.14602807703	1490
1007.76304009828	1516
1010.37922532126	1497
1012.99458420824	1501
1015.60911722064	1505
1018.22282481911	1513
1020.8357074635	1478
1023.44776561284	1503
1026.05899972539	1526
1028.66941025859	1488
1031.27899766911	1505
1033.8877624128	1562
1036.49570494477	1544
1039.1028257193	1495
1041.70912518995	1567
1044.31460380945	1553
1046.91926202978	1558
1049.52310030213	1553
1052.12611907697	1548
1054.72831880395	1559
1057.329699932	1563
1059.93026290926	1654
1062.53000818313	1664
1065.12893620026	1654
1067.72704740654	1655
1070.32434224711	1587
1072.92082116639	1584
1075.51648460802	1620
1078.11133301493	1601
1080.70536682931	1622
1083.29858649259	1607
1085.89099244551	1621
1088.48258512806	1640
1091.07336497949	1604
1093.66333243836	1616
1096.2524879425	1553
1098.84083192899	1528
1101.42836483425	1499
1104.01508709395	1521
1106.60099914306	1522
1109.18610141586	1542
1111.77039434588	1528
1114.35387836603	1530
1116.93655390844	1497
1119.51842140458	1528
1122.09948128525	1542
1124.67973398051	1633
1127.25917991977	1637
1129.83781953174	1606
1132.41565324445	1603
1134.99268148526	1557
1137.56890468084	1522
1140.14432325718	1554
1142.71893763963	1550
1145.29274825285	1543
1147.86575552081	1514
1150.43795986686	1529
1153.00936171367	1554
1155.57996148323	1518
1158.14975959691	1487
1160.7187564754	1486
1163.28695253876	1513
1165.85434820638	1533
1168.42094389704	1477
1170.98674002881	1495
1173.55173701918	1509
1176.11593528499	1496
1178.67933524243	1526
1181.24193730705	1490
1183.8037418938	1478
1186.36474941697	1521
1188.92496029025	1505
1191.48437492668	1485
1194.0429937387	1521
1196.60081713811	1532
1199.15784553612	1459
1201.71407934332	1460
1204.26951896966	1466
1206.82416482453	1460
1209.37801731668	1490
1211.93107685425	1482
1214.4833438448	1494
1217.03481869529	1492
1219.58550181206	1508
1222.13539360089	1455
1224.68449446692	1484
1227.23280481476	1496
1229.78032504839	1515
1232.32705557121	1479
1234.87299678605	1491
1237.41814909516	1470
1239.96251290019	1497
1242.50608860226	1468
1245.04887660185	1525
1247.59087729894	1504
1250.13209109286	1497
1252.67251838247	1497
1255.21215956601	1479
1257.75101504113	1548
1260.28908520499	1511
1262.82637045415	1516
1265.36287118461	1476
1267.89858779184	1553
1270.43352067075	1549
1272.96767021569	1539
1275.5010368205	1562
1278.03362087842	1549
1280.56542278221	1578
1283.09644292403	1611
1285.62668169556	1584
1288.1561394879	1639
1290.68481669165	1687
1293.21271369685	1756
1295.73983089304	1829
1298.2661686692	1823
1300.79172741383	1776
1303.31650751487	1783
1305.84050935976	1712
1308.36373333541	1713
1310.88617982822	1721
1313.4078492241	1661
1315.92874190839	1649
1318.44885826599	1636
1320.96819868124	1653
1323.48676353801	1621
1326.00455321965	1642
1328.521568109	1629
1331.03780858842	1637
1333.55327503978	1626
1336.06796784442	1708
1338.58188738323	1690
1341.09503403658	1728
1343.60740818437	1661
1346.11901020598	1639
1348.62984048037	1644
1351.13989938596	1586
1353.6491873007	1641
1356.15770460209	1612
1358.66545166712	1606
1361.17242887233	1655
1363.67863659378	1660
1366.18407520705	1643
1368.68874508726	1648
1371.19264660907	1648
1373.69578014668	1607
1376.19814607381	1634
1378.69974476373	1631
1381.20057658924	1617
1383.7006419227	1615
1386.19994113603	1613
1388.69847460065	1581
1391.19624268756	1558
1393.69324576732	1601
1396.18948421004	1597
1398.68495838535	1612
1401.17966866248	1612
1403.6736154102	1633
1406.16679899686	1624
1408.65921979033	1654
1411.1508781581	1658
1413.64177446718	1671
1416.13190908416	1669
1418.62128237524	1706
1421.10989470614	1735
1423.59774644217	1734
1426.08483794823	1779
1428.57116958879	1789
1431.05674172789	1857
1433.54155472916	1932
1436.02560895582	1975
1438.50890477068	1998
1440.99144253608	2052
1443.47322261404	2036
1445.9542453661	2060
1448.43451115342	2062
1450.91402033676	2064
1453.39277327646	2051
1455.87077033246	2053
1458.34801186431	1923
1460.82449823115	1934
1463.30022979173	1930
1465.77520690441	1833
1468.24942992714	1845
1470.72289921748	1807
1473.19561513262	1843
1475.66757802934	1786
1478.13878826404	1770
1480.60924619276	1760
1483.0789521711	1762
1485.54790655434	1746
1488.01610969734	1770
1490.48356195459	1783
1492.95026368022	1783
1495.41621522796	1724
1497.88141695119	1749
1500.3458692029	1747
1502.80957233573	1752
1505.27252670192	1770
1507.7347326534	1774
1510.19619054165	1732
1512.65690071788	1759
1515.11686353289	1777
1517.5760793371	1808
1520.0345484806	1810
1522.49227131314	1932
1524.94924818408	1929
1527.40547944245	1969
1529.86096543691	1999
1532.31570651578	1850
1534.76970302704	1812
1537.2229553183	1837
1539.67546373685	1803
1542.1272286296	1828
1544.57825034318	1840
1547.0285292238	1790
1549.4780656174	1854
1551.92685986953	1855
1554.37491232545	1825
1556.82222333005	1857
1559.26879322789	1834
1561.71462236323	1866
1564.15971107996	1853
1566.60405972167	1867
1569.0476686316	1903
1571.49053815268	1861
1573.93266862751	1890
1576.37406039838	1923
1578.81471380725	1927
1581.25462919573	1900
1583.69380690517	1920
1586.13224727656	1943
1588.56995065059	1928
1591.00691736765	1942
1593.44314776777	1934
1595.87864219074	1922
1598.31340097597	1966
1600.74742446261	1942
1603.18071298948	1941
1605.61326689511	1938
1608.04508651771	1969
1610.47617219521	1974
1612.90652426521	1939
1615.33614306503	1954
1617.7650289317	1932
1620.19318220193	1916
1622.62060321214	1947
1625.04729229848	1978
1627.47324979677	2029
1629.89847604256	1982
1632.32297137112	2004
1634.74673611742	1986
1637.16977061614	1986
1639.59207520166	2027
1642.01365020812	2000
1644.43449596933	2011
1646.85461281884	2041
1649.27400108993	2056
1651.69266111558	1988
1654.11059322849	2052
1656.52779776111	2007
1658.9442750456	2074
1661.36002541383	2051
1663.77504919742	2137
1666.18934672772	2069
1668.60291833579	2083
1671.01576435243	2073
1673.42788510819	2110
1675.83928093333	2083
1678.24995215785	2153
1680.65989911149	2121
1683.06912212375	2187
1685.47762152383	2184
1687.88539764068	2189
1690.29245080301	2170
1692.69878133927	2196
1695.10438957763	2224
1697.50927584602	2177
1699.91344047213	2262
1702.31688378338	2213
1704.71960610694	2249
1707.12160776972	2283
1709.52288909843	2309
1711.92345041946	2255
1714.32329205902	2326
1716.72241434301	2289
1719.12081759716	2269
1721.51850214689	2249
1723.91546831742	2294
1726.31171643371	2327
1728.70724682049	2304
1731.10205980225	2320
1733.49615570323	2342
1735.88953484746	2405
1738.28219755871	2310
1740.67414416053	2387
1743.06537497623	2374
1745.4558903289	2436
1747.84569054139	2391
1750.23477593633	2359
1752.6231468361	2469
1755.01080356288	2402
1757.3977464386	2442
1759.783975785	2423
1762.16949192355	2476
1764.55429517554	2421
1766.93838586201	2522
1769.32176430379	2492
1771.70443082149	2505
1774.08638573552	2535
1776.46762936603	2508
1778.84816203299	2539
1781.22798405614	2514
1783.60709575502	2560
1785.98549744894	2621
1788.363189457	2631
1790.74017209811	2580
1793.11644569094	2625
1795.49201055396	2658
1797.86686700545	2685
1800.24101536348	2681
1802.61445594588	2638
1804.98718907032	2657
1807.35921505424	2685
1809.73053421488	2680
1812.10114686928	2830
1814.47105333431	2787
1816.84025392657	2769
1819.20874896252	2767
1821.57653875842	2738
1823.9436236303	2777
1826.31000389401	2783
1828.67567986522	2813
1831.0406518594	2847
1833.40492019179	2878
1835.7684851775	2848
1838.1313471314	2881
1840.49350636819	2964
1842.85496320238	2961
1845.21571794829	2958
1847.57577092004	2971
1849.9351224316	2978
1852.29377279671	2956
1854.65172232894	2973
1857.00897134171	3038
1859.36552014821	2982
1861.72136906146	3112
1864.07651839433	3010
1866.43096845946	3005
1868.78471956935	3123
1871.13777203631	3069
1873.49012617247	3169
1875.84178228977	3094
1878.19274070001	3114
1880.54300171478	3173
1882.89256564551	3166
1885.24143280346	3230
1887.58960349972	3257
1889.93707804519	3301
1892.28385675061	3296
1894.62993992657	3328
1896.97532788346	3379
1899.32002093153	3409
1901.66401938082	3422
1904.00732354126	3408
1906.34993372257	3421
1908.69185023433	3463
1911.03307338592	3512
1913.37360348663	3486
1915.7134408455	3522
1918.05258577147	3570
1920.3910385733	3579
1922.72879955958	3541
1925.06586903876	3555
1927.4022473191	3649
1929.73793470875	3666
1932.07293151565	3688
1934.40723804763	3672
1936.74085461234	3705
1939.07378151727	3799
1941.40601906977	3794
1943.73756757704	3793
1946.06842734612	3799
1948.39859868389	3784
1950.7280818971	3864
1953.05687729233	3857
1955.38498517601	3846
1957.71240585444	3847
1960.03913963377	3932
1962.36518681997	3889
1964.69054771891	4005
1967.01522263627	3941
1969.33921187762	4003
1971.66251574837	4073
1973.98513455379	4091
1976.30706859901	4051
1978.62831818899	4148
1980.94888362858	4074
1983.2687652225	4154
1985.58796327528	4114
1987.90647809136	4203
1990.224309975	4216
1992.54145923038	4267
1994.85792616145	4344
1997.17371107212	4318
1999.4888142661	4377
2001.80323604699	4411
2004.11697671825	4434
2006.4300365832	4404
2008.74241594504	4503
2011.05411510683	4477
2013.36513437149	4609
2015.6754740418	4540
2017.98513442044	4595
2020.29411580994	4578
2022.60241851269	4663
2024.91004283098	4653
2027.21698906692	4747
2029.52325752256	4724
2031.82884849977	4772
2034.1337623003	4694
2036.4379992258	4887
2038.74155957777	4818
2041.04444365759	4879
2043.34665176652	4801
2045.64818420569	4850
2047.9490412761	4892
2050.24922327865	4911
2052.54873051409	4917
2054.84756328307	4890
2057.14572188611	4924
2059.44320662359	4952
2061.74001779581	5002
2064.03615570292	5010
2066.33162064497	4982
2068.62641292185	5052
2070.9205328334	5039
2073.21398067927	5012
2075.50675675905	5140
2077.79886137218	5015
2080.090294818	5131
2082.38105739572	5084
2084.67114940445	5172
2086.96057114319	5121
2089.24932291079	5033
2091.53740500603	5213
2093.82481772755	5142
2096.11156137388	5147
2098.39763624345	5128
2100.68304263458	5183
2102.96778084545	5219
2105.25185117417	5278
2107.5352539187	5227
2109.81798937692	5139
2112.1000578466	5257
2114.38145962537	5317
2116.66219501079	5193
2118.94226430028	5309
2121.22166779118	5194
2123.50040578071	5216
2125.77847856598	5309
2128.05588644399	5290
2130.33262971165	5260
2132.60870866575	5355
2134.88412360298	5418
2137.15887481995	5366
2139.43296261311	5339
2141.70638727887	5360
2143.97914911348	5476
2146.25124841312	5304
2148.52268547387	5447
2150.79346059169	5423
2153.06357406245	5480
2155.33302618192	5423
2157.60181724576	5419
2159.86994754953	5356
2162.1374173887	5377
2164.40422705864	5422
2166.6703768546	5360
2168.93586707177	5354
2171.20069800519	5406
2173.46486994985	5337
2175.72838320061	5365
2177.99123805226	5381
2180.25343479946	5341
2182.5149737368	5365
2184.77585515876	5371
2187.03607935974	5431
2189.295646634	5328
2191.55455727578	5364
2193.81281157915	5278
2196.07040983813	5351
2198.32735234663	5296
2200.58363939848	5222
2202.83927128737	5255
2205.09424830697	5186
2207.34857075081	5209
2209.60223891231	5217
2211.85525308485	5219
2214.10761356169	5170
2216.35932063598	5279
2218.61037460082	5157
2220.86077574918	5158
2223.11052437395	5133
2225.35962076795	5090
2227.60806522389	5202
2229.85585803439	5023
2232.10299949198	5098
2234.34948988911	5097
2236.59532951813	5040
2238.84051867131	5098
2241.08505764082	5117
2243.32894671876	4938
2245.57218619713	5026
2247.81477636783	5061
2250.05671752269	4938
2252.29800995345	5008
2254.53865395175	5035
2256.77864980916	4920
2259.01799781714	4971
2261.2566982671	4868
2263.49475145035	4924
2265.73215765808	4960
2267.96891718143	4800
2270.20503031145	4889
2272.44049733909	4860
2274.67531855524	4839
2276.90949425067	4891
2279.1430247161	4775
2281.37591024214	4897
2283.60815111933	4850
2285.83974763813	4758
2288.07070008888	4826
2290.30100876189	4804
2292.53067394735	4750
2294.75969593537	4718
2296.98807501599	4714
2299.21581147916	4733
2301.44290561476	4695
2303.66935771254	4739
2305.89516806224	4685
2308.12033695344	4695
2310.34486467572	4744
2312.5687515185	4622
2314.79199777118	4651
2317.01460372303	4647
2319.23656966327	4514
2321.45789588102	4574
2323.67858266534	4549
2325.89863030519	4592
2328.11803908946	4504
2330.33680930694	4576
2332.55494124637	4480
2334.77243519638	4472
2336.98929144553	4426
2339.20551028232	4507
2341.42109199514	4403
2343.63603687231	4443
2345.85034520207	4427
2348.0640172726	4415
2350.27705337195	4324
2352.48945378815	4368
2354.70121880911	4475
2356.91234872269	4376
2359.12284381662	4379
2361.33270437861	4384
2363.54193069626	4311
2365.7505230571	4305
2367.95848174858	4286
2370.16580705805	4319
2372.37249927281	4275
2374.57855868008	4264
2376.78398556699	4293
2378.98878022058	4231
2381.19294292784	4237
2383.39647397565	4221
2385.59937365084	4216
2387.80164224015	4196
2390.00328003024	4206
2392.20428730769	4169
2394.40466435902	4172
2396.60441147062	4182
2398.80352892888	4138
2401.00201702004	4194
2403.19987603033	4088
2405.39710624582	4152
2407.59370795257	4113
2409.78968143654	4062
2411.9850269836	4016
2414.17974487957	3995
2416.37383541016	4103
2418.56729886102	4018
2420.76013551771	4044
2422.95234566575	4027
2425.14392959054	3957
2427.33488757741	4041
2429.52521991161	3995
2431.71492687834	4000
2433.90400876269	4007
2436.0924658497	3973
2438.2802984243	3973
2440.46750677137	3895
2442.6540911757	3953
2444.840051922	3920
2447.0253892949	3845
2449.21010357898	3854
2451.3941950587	3898
2453.57766401846	3859
2455.7605107426	3875
2457.94273551536	3834
2460.12433862091	3843
2462.30532034333	3784
2464.48568096665	3760
2466.66542077478	3792
2468.8445400516	3743
2471.02303908088	3730
2473.20091814631	3760
2475.37817753152	3680
2477.55481752005	3694
2479.73083839537	3711
2481.90624044087	3725
2484.08102393984	3684
2486.25518917552	3739
2488.42873643105	3648
2490.60166598952	3660
2492.77397813391	3576
2494.94567314713	3662
2497.11675131202	3671
2499.28721291133	3741
2501.45705822775	3656
2503.62628754386	3658
2505.7949011422	3617
2507.96289930518	3584
2510.13028231518	3650
2512.29705045447	3652
2514.46320400525	3605
2516.62874324964	3634
2518.79366846969	3621
2520.95797994734	3657
2523.12167796448	3586
2525.28476280291	3597
2527.44723474435	3572
2529.60909407043	3611
2531.77034106272	3563
2533.93097600269	3509
2536.09099917173	3554
2538.25041085116	3508
2540.40921132222	3553
2542.56740086606	3630
2544.72497976374	3588
2546.88194829626	3516
2549.03830674452	3533
2551.19405538936	3511
2553.34919451152	3558
2555.50372439165	3554
2557.65764531034	3526
2559.81095754807	3480
2561.96366138529	3463
2564.1157571023	3489
2566.26724497936	3387
2568.41812529664	3449
2570.56839833422	3336
2572.71806437208	3416
2574.86712369017	3404
2577.01557656829	3401
2579.16342328621	3446
2581.31066412358	3365
2583.45729936	3365
2585.60332927493	3400
2587.74875414781	3356
2589.89357425796	3290
2592.0377898846	3405
2594.18140130691	3430
2596.32440880395	3326
2598.4668126547	3396
2600.60861313806	3303
2602.74981053284	3375
2604.89040511778	3290
2607.0303971715	3332
2609.16978697256	3270
2611.30857479943	3326
2613.44676093048	3273
2615.584345644	3253
2617.72132921821	3377
2619.8577119312	3256
2621.99349406102	3297
2624.1286758856	3305
2626.2632576828	3256
2628.39723973037	3268
2630.53062230598	3320
2632.66340568723	3341
2634.7955901516	3333
2636.92717597651	3264
2639.05816343927	3291
2641.18855281709	3232
2643.31834438712	3280
2645.44753842641	3287
2647.5761352119	3269
2649.70413502044	3225
2651.83153812884	3278
2653.95834481374	3277
2656.08455535174	3270
2658.21017001934	3284
2660.33518909294	3269
2662.45961284885	3248
2664.58344156328	3279
2666.70667551235	3333
2668.82931497211	3256
2670.95136021848	3239
2673.0728115273	3203
2675.19366917432	3218
2677.31393343519	3260
2679.43360458548	3209
2681.55268290064	3279
2683.67116865603	3241
2685.78906212694	3198
2687.90636358854	3251
2690.02307331589	3199
2692.13919158398	3204
2694.2547186677	3163
2696.36965484184	3225
2698.48400038108	3294
2700.59775556002	3255
2702.71092065314	3279
2704.82349593485	3262
2706.93548167942	3239
2709.04687816108	3269
2711.1576856539	3278
2713.26790443188	3233
2715.37753476892	3252
2717.48657693883	3306
2719.59503121528	3252
2721.70289787187	3298
2723.8101771821	3240
2725.91686941936	3217
2728.02297485693	3209
2730.128493768	3205
2732.23342642565	3181
2734.33777310285	3116
2736.4415340725	3171
2738.54470960735	3133
2740.64729998007	3126
2742.74930546322	3154
2744.85072632927	3140
2746.95156285056	3119
2749.05181529934	3042
2751.15148394775	3154
2753.25056906782	3067
2755.34907093148	3044
2757.44698981056	3050
2759.54432597675	3060
2761.64107970166	3047
2763.7372512568	2994
2765.83284091354	3098
2767.92784894316	2999
2770.02227561683	3067
2772.11612120562	2970
2774.20938598047	3119
2776.3020702122	3031
2778.39417417156	3095
2780.48569812916	3067
2782.57664235549	3071
2784.66700712095	3046
2786.75679269582	3076
2788.84599935027	3103
2790.93462735434	2989
2793.02267697797	3008
2795.11014849098	3036
2797.19704216309	3046
2799.28335826389	3047
2801.36909706286	3112
2803.45425882935	3090
2805.53884383263	2975
2807.6228523418	3129
2809.7062846259	3058
2811.78914095381	3020
2813.87142159431	3084
2815.95312681606	3043
2818.0342568876	3099
2820.11481207734	3096
2822.19479265359	3150
2824.27419888454	3141
2826.35303103823	3223
2828.43128938261	3279
2830.5089741855	3327
2832.58608571459	3504
2834.66262423745	3537
2836.73859002154	3813
2838.81398333418	4162
2840.88880444257	4518
2842.96305361381	5037
2845.03673111483	5705
2847.10983721247	6172
2849.18237217344	6505
2851.2543362643	6662
2853.32572975152	6546
2855.39655290143	6351
2857.46680598021	5922
2859.53648925393	5776
2861.60560298855	5485
2863.67414744986	5339
2865.74212290356	5136
2867.80952961519	5038
2869.87636785019	5056
2871.94263787384	5054
2874.00833995131	5128
2876.07347434762	5218
2878.13804132768	5477
2880.20204115624	5881
2882.26547409795	6108
2884.32834041729	6128
2886.39064037865	5797
2888.45237424623	5687
2890.51354228415	5555
2892.57414475635	5639
2894.63418192667	5447
2896.69365405878	5474
2898.75256141625	5509
2900.81090426247	5560
2902.86868286072	5375
2904.92589747415	5288
2906.98254836574	5228
2909.03863579836	5102
2911.09416003471	4982
2913.14912133738	4931
2915.20351996879	4857
2917.25735619126	4868
2919.31063026691	5039
2921.36334245776	4934
2923.41549302568	4927
2925.46708223239	4991
2927.51811033945	5003
2929.56857760831	4924
2931.61848430026	4792
2933.66783067643	4635
2935.71661699781	4403
2937.76484352525	4263
2939.81251051946	4167
2941.85961824097	3877
2943.90616695021	3735
2945.95215690742	3572
2947.9975883727	3487
2950.04246160601	3450
2952.08677686716	3387
2954.13053441577	3283
2956.17373451138	3266
2958.21637741331	3227
2960.25846338077	3155
2962.29999267279	3126
2964.34096554826	3154
2966.3813822659	3039
2968.42124308432	3067
2970.46054826191	3131
2972.49929805694	3047
2974.53749272752	3023
2976.5751325316	2991
2978.61221772697	3020
2980.64874857127	3036
2982.68472532196	2974
2984.72014823637	2997
2986.75501757164	2927
2988.78933358476	2996
2990.82309653258	2970
2992.85630667175	2991
2994.88896425879	2981
2996.92106955003	3019
2998.95262280165	3001
3000.98362426967	2914
3003.01407420993	3022
3005.04397287812	3035
3007.07332052976	2996
3009.1021174202	2972
3011.13036380461	3005
3013.15805993802	2992
3015.18520607526	3010
3017.21180247102	2935
3019.23784937979	3044
3021.26334705593	3070
3023.28829575358	3009
3025.31269572676	3013
3027.33654722926	2979
3029.35985051475	3008
3031.38260583668	3030
3033.40481344838	3034
3035.42647360296	2948
3037.44758655337	3104
3039.46815255237	2978
3041.48817185258	3033
3043.50764470642	2997
3045.5265713661	2978
3047.54495208372	3052
3049.56278711114	2999
3051.58007670007	3084
3053.59682110204	3051
3055.61302056838	3030
3057.62867535025	3026
3059.64378569864	3081
3061.65835186434	2948
3063.67237409796	3060
3065.68585264993	3023
3067.69878777049	3004
3069.71117970969	2991
3071.72302871742	3010
3073.73433504334	2932
3075.74509893695	2972
3077.75532064757	2994
3079.76500042431	2969
3081.7741385161	2978
3083.78273517168	3066
3085.7907906396	3028
3087.79830516821	2988
3089.80527900568	3012
3091.81171239998	3013
3093.81760559889	3064
3095.82295884999	3020
3097.82777240067	3053
3099.83204649813	3007
3101.83578138937	3025
3103.83897732117	3050
3105.84163454016	2947
3107.84375329272	3021
3109.84533382508	2984
3111.84637638322	3044
3113.84688121298	3044
3115.84684855994	3004
3117.84627866951	3047
3119.84517178689	3024
3121.84352815709	3081
3123.84134802489	3117
3125.83863163489	3070
3127.83537923148	3110
3129.83159105884	3108
3131.82726736092	3080
3133.82240838151	3115
3135.81701436417	3131
3137.81108555224	3173
3139.80462218887	3125
3141.79762451699	3106
3143.79009277931	3124
3145.78202721835	3120
3147.77342807641	3123
3149.76429559556	3141
3151.75463001769	3172
3153.74443158445	3165
3155.73370053727	3191
3157.7224371174	3222
3159.71064156584	3152
3161.69831412337	3165
3163.68545503058	3238
3165.67206452784	3149
3167.65814285526	3220
3169.64369025279	3176
3171.6287069601	3183
3173.61319321668	3234
3175.59714926179	3243
3177.58057533446	3229
3179.56347167348	3223
3181.54583851746	3242
3183.52767610475	3201
3185.50898467348	3226
3187.48976446156	3237
3189.47001570668	3237
3191.44973864628	3244
3193.42893351758	3207
3195.40760055759	3219
3197.38574000308	3289
3199.36335209055	3300
3201.34043705634	3289
3203.3169951365	3254
3205.29302656687	3271
3207.26853158306	3308
3209.24351042042	3374
3211.21796331411	3341
3213.19189049901	3305
3215.16529220979	3364
3217.13816868087	3338
3219.11052014642	3307
3221.08234684042	3410
3223.05364899654	3421
3225.02442684826	3338
3226.99468062882	3354
3228.96441057117	3421
3230.93361690808	3414
3232.90229987202	3365
3234.87045969526	3401
3236.8380966098	3493
3238.8052108474	3525
3240.77180263957	3475
3242.73787221758	3501
3244.70341981245	3480
3246.66844565494	3503
3248.63294997559	3558
3250.59693300464	3545
3252.56039497213	3525
3254.52333610782	3556
3256.48575664121	3520
3258.44765680157	3593
3260.40903681791	3546
3262.36989691896	3553
3264.33023733323	3597
3266.29005828896	3598
3268.24936001411	3606
3270.20814273642	3602
3272.16640668333	3620
3274.12415208206	3612
3276.08137915954	3650
3278.03808814245	3641
3279.99427925722	3598
3281.94995272998	3675
3283.90510878664	3651
3285.85974765282	3652
3287.81386955387	3726
3289.7674747149	3670
3291.72056336072	3696
3293.6731357159	3648
3295.62519200472	3680
3297.57673245121	3753
3299.52775727911	3763
3301.4782667119	3677
3303.4282609728	3701
3305.37774028472	3760
3307.32670487034	3825
3309.27515495204	3793
3311.22309075193	3706
3313.17051249184	3804
3315.11742039334	3795
3317.06381467769	3813
3319.00969556592	3740
3320.95506327872	3746
3322.89991803656	3775
3324.84426005959	3818
3326.78808956769	3850
3328.73140678046	3858
3330.67421191721	3805
3332.61650519696	3851
3334.55828683848	3791
3336.4995570602	3874
3338.44031608032	3871
3340.3805641167	3824
3342.32030138695	3884
3344.25952810837	3815
3346.19824449799	3842
3348.13645077251	3906
3350.07414714839	3919
3352.01133384175	3888
3353.94801106845	3933
3355.88417904405	3902
3357.8198379838	3907
3359.75498810266	3974
3361.6896296153	3977
3363.62376273609	3964
3365.5573876791	3997
3367.4905046581	3983
3369.42311388656	3999
3371.35521557765	4002
3373.28680994422	4020
3375.21789719888	4047
3377.14847755385	4043
3379.07855122109	4027
3381.00811841228	4062
3382.93717933874	4048
3384.86573421152	4011
3386.79378324134	4115
3388.72132663863	4072
3390.64836461351	4140
3392.57489737576	4125
3394.50092513489	4166
3396.42644810007	4103
3398.35146648018	4165
3400.27598048375	4137
3402.19999031902	4169
3404.12349619393	4232
3406.04649831607	4196
3407.96899689273	4218
3409.89099213087	4279
3411.81248423716	4157
3413.73347341792	4212
3415.65395987914	4196
3417.57394382654	4189
3419.49342546547	4326
3421.41240500097	4278
3423.33088263775	4303
3425.24885858022	4239
3427.16633303244	4313
3429.08330619813	4318
3430.99977828072	4219
3432.91574948329	4213
3434.83122000859	4281
3436.74619005903	4306
3438.66065983671	4237
3440.57462954339	4347
3442.4880993805	4263
3444.40106954912	4353
3446.31354025	4300
3448.22551168358	4322
3450.13698404992	4312
3452.04795754877	4315
3453.95843237955	4283
3455.86840874132	4268
3457.7778868328	4269
3459.68686685238	4304
3461.5953489981	4245
3463.50333346766	4271
3465.41082045843	4347
3467.3178101674	4246
3469.22430279125	4263
3471.13029852629	4310
3473.0357975685	4406
3474.94080011349	4271
3476.84530635654	4340
3478.74931649257	4266
3480.65283071616	4397
3482.55584922151	4335
3484.45837220251	4327
3486.36039985266	4358
3488.26193236512	4389
3490.16296993268	4345
3492.0635127478	4265
3493.96356100256	4334
3495.86311488869	4262
3497.76217459756	4309
3499.66074032018	4286
