201.866871357051	795.599975585938
204.754250281454	784.400024414062
207.640596790938	787.400024414062
210.525911876299	791.400024414062
213.410196525689	790.799987792969
216.293451724508	790.400024414062
219.175678455485	792.400024414062
222.056877698662	795
224.937050431388	797.599975585938
227.816197628363	791.799987792969
230.694320261602	790.799987792969
233.571419300504	802.400024414062
236.447495711764	792.200012207031
239.322550459507	801.599975585938
242.196584505182	796
245.069598807626	802.599975585938
247.941594323078	804.200012207031
250.812572005154	806.200012207031
253.682532804884	804.200012207031
256.551477670699	807.599975585938
259.419407548456	810.799987792969
262.286323381439	801
265.152226110364	811.200012207031
268.017116673389	812.599975585938
270.880996006115	811.799987792969
273.743865041622	808.599975585938
276.605724710436	806.200012207031
279.466575940562	811.799987792969
282.326419657496	810.799987792969
285.1852567842	811
288.043088241157	812.400024414062
290.899914946349	815
293.75573781526	824.799987792969
296.610557760898	817.400024414062
299.464375693817	826.799987792969
302.317192522078	831.400024414062
305.169009151297	836.200012207031
308.019826484655	820.599975585938
310.86964542287	829.799987792969
313.718466864233	827.799987792969
316.566291704614	823.200012207031
319.413120837457	824
322.258955153804	829
325.103795542291	822.200012207031
327.947642889128	825.799987792969
330.79049807819	827
333.632361990927	820
336.473235506444	822
339.31311950145	835
342.152014850322	837.599975585938
344.989922425062	827.599975585938
347.826843095354	840
350.662777728528	847
353.497727189577	840.200012207031
356.331692341195	844.799987792969
359.164674043732	848
361.996673155267	857.599975585938
364.827690531536	850
367.65772702602	852.799987792969
370.486783489887	863.799987792969
373.314860772047	862.599975585938
376.14195971912	859.599975585938
378.968081175466	860.599975585938
381.793225983212	869.400024414062
384.617394982201	869.599975585938
387.44058901005	880.200012207031
390.262808902131	895
393.08405549161	894.799987792969
395.904329609395	889.200012207031
398.723632084213	883.400024414062
401.541963742569	889
404.359325408779	880
407.175717904938	873.400024414062
409.991142050982	875.200012207031
412.805598664665	869.400024414062
415.619088561551	865.799987792969
418.43161255505	868.599975585938
421.243171456415	871.599975585938
424.053766074758	884.799987792969
426.863397217017	883.599975585938
429.672065688024	880.200012207031
432.479772290455	882.200012207031
435.286517824879	879.200012207031
438.092303089736	869.799987792969
440.897128881359	875.400024414062
443.70099599399	885.200012207031
446.503905219761	885.799987792969
449.305857348711	881.799987792969
452.106853168796	878.200012207031
454.906893465919	876.799987792969
457.705979023885	893.599975585938
460.504110624439	882.200012207031
463.3012890473	881.200012207031
466.097515070087	888.200012207031
468.892789468424	886.200012207031
471.687113015869	893
474.48048648395	878.599975585938
477.272910642198	879.799987792969
480.064386258109	881.200012207031
482.854914097159	886.400024414062
485.644494922839	878.599975585938
488.433129496636	899.799987792969
491.220818578047	893.599975585938
494.007562924584	893.599975585938
496.793363291785	895
499.578220433217	912
502.362135100473	908.599975585938
505.145108043209	915
507.927140009098	916.200012207031
510.708231743909	920.599975585938
513.488383991433	931.400024414062
516.267597493556	928
519.04587299022	922.799987792969
521.82321121946	925
524.599612917398	925.799987792969
527.375078818233	924.599975585938
530.149609654287	903.599975585938
532.923206155967	913.599975585938
535.695869051804	916
538.467599068448	911.400024414062
541.238396930665	910.200012207031
544.008263361364	904.599975585938
546.777199081578	905
549.545204810493	908.599975585938
552.312281265436	901.400024414062
555.078429161898	909.200012207031
557.843649213533	909.400024414062
560.607942132156	901.599975585938
563.371308627753	902
566.133749408495	908.200012207031
568.895265180756	910
571.655856649064	908.599975585938
574.415524516189	917
577.174269483075	910
579.932092248884	931.599975585938
582.688993510994	914.799987792969
585.444973965023	927.200012207031
588.200034304795	937.200012207031
590.95417522237	919.200012207031
593.70739740807	919.599975585938
596.459701550433	920.599975585938
599.21108833628	917.200012207031
601.961558450668	927.799987792969
604.711112576933	924.400024414062
607.459751396673	925.200012207031
610.207475589748	923.799987792969
612.954285834338	925.200012207031
615.700182806879	942
618.445167182101	941.599975585938
621.189239633055	930
623.932400831087	939.200012207031
626.674651445839	939.200012207031
629.415992145303	947
632.156423595745	973.400024414062
634.895946461813	977.200012207031
637.634561406449	970.799987792969
640.37226909096	972.200012207031
643.109070174978	974.200012207031
645.844965316508	966.200012207031
648.579955171888	955.200012207031
651.314040395846	963.200012207031
654.047221641456	932.799987792969
656.779499560176	952.599975585938
659.510874801828	942
662.241348014642	942
664.97091984524	933.599975585938
667.699590938606	934.200012207031
670.427361938164	938.799987792969
673.15423348573	932.599975585938
675.880206221526	939.599975585938
678.605280784206	937.200012207031
681.329457810829	943.200012207031
684.05273793692	922.799987792969
686.775121796389	945
689.49661002163	932
692.217203243454	933.599975585938
694.936902091144	932
697.655707192425	923.200012207031
700.373619173493	932.599975585938
703.09063865901	933.799987792969
705.806766272093	936.400024414062
708.522002634378	931.599975585938
711.236348365946	928.599975585938
713.94980408538	937.400024414062
716.662370409762	935.200012207031
719.374047954676	924.599975585938
722.08483733419	925.200012207031
724.794739160909	921.400024414062
727.503754045949	932.799987792969
730.21188259892	923.599975585938
732.919125427998	942.599975585938
735.625483139855	937.599975585938
738.330956339723	928.200012207031
741.035545631374	928
743.739251617106	938.799987792969
746.44207489779	931.400024414062
749.144016072852	940.799987792969
751.845075740272	941.200012207031
754.545254496603	944.200012207031
757.244552936976	955
759.94297165508	932
762.640511243222	944
765.337172292249	942.599975585938
768.032955391649	947.400024414062
770.727861129482	947.599975585938
773.421890092413	958.799987792969
776.11504286572	938.599975585938
778.807320033298	958.200012207031
781.49872217765	953.799987792969
784.18924987991	950.599975585938
786.87890371984	938.599975585938
789.567684275826	943.400024414062
792.255592124908	938.599975585938
794.94262784276	937.799987792969
797.628792003703	937.400024414062
800.314085180715	948
802.998507945427	945.200012207031
805.682060868145	938
808.364744517821	946.599975585938
811.046559462105	936.799987792969
813.727506267311	937
816.407585498422	932.799987792969
819.08679771913	942.400024414062
821.765143491822	951
824.442623377563	948.599975585938
827.119237936127	952
829.794987726003	950.599975585938
832.469873304377	948.799987792969
835.143895227167	939.599975585938
837.817054048985	963.400024414062
840.489350323205	951.200012207031
843.160784601892	965.200012207031
845.831357435894	954.599975585938
848.501069374739	957.200012207031
851.169920966753	959.599975585938
853.837912758987	959.799987792969
856.505045297232	956
859.171319126071	962.200012207031
861.836734788823	964.400024414062
864.501292827579	958
867.164993783208	961
869.827838195361	942.599975585938
872.489826602454	960.599975585938
875.150959541701	963.799987792969
877.811237549104	945.599975585938
880.470661159456	956.200012207031
883.129230906357	956.599975585938
885.786947322205	956.400024414062
888.443810938206	964.200012207031
891.099822284385	956.599975585938
893.754981889586	946.799987792969
896.409290281452	957.599975585938
899.062747986485	964.599975585938
901.715355529999	955.599975585938
904.367113436154	964.200012207031
907.01802222793	970.400024414062
909.668082427172	951.799987792969
912.317294554574	961
914.965659129659	969.799987792969
917.613176670835	967
920.259847695364	967.599975585938
922.90567271936	955.599975585938
925.550652257825	954.599975585938
928.194786824621	972.799987792969
930.838076932512	969
933.480523093109	966.799987792969
936.122125816953	958.599975585938
938.762885613447	968.799987792969
941.402802990899	964.599975585938
944.041878456523	965.400024414062
946.680112516428	983.200012207031
949.31750567563	970.200012207031
951.954058438081	971.799987792969
954.589771306633	976.400024414062
957.224644783048	981.200012207031
959.858679368044	973.200012207031
962.491875561238	965.799987792969
965.12423386121	963.200012207031
967.75575476545	962.599975585938
970.386438770423	983
973.016286371501	972.400024414062
975.645298063046	964
978.273474338355	981.799987792969
980.900815689674	982
983.527322608243	978.599975585938
986.152995584245	986
988.777835106834	987.799987792969
991.401841664148	979.200012207031
994.025015743307	979.400024414062
996.647357830407	981
999.268868410534	987.599975585938
1001.88954796777	988
1004.50939698518	984.200012207031
1007.12841594484	991.599975585938
1009.74660532783	974.799987792969
1012.36396561423	979.799987792969
1014.98049728314	975.400024414062
1017.59620081267	979.200012207031
1020.21107667995	982.599975585938
1022.82512536112	993
1025.43834733138	984
1028.05074306493	1001.79998779297
1030.66231303501	984.799987792969
1033.27305771392	998.799987792969
1035.88297757299	974.599975585938
1038.49207308257	990.799987792969
1041.10034471211	986.599975585938
1043.70779293008	999.400024414062
1046.31441820402	991.599975585938
1048.92022100052	994
1051.52520178525	997.400024414062
1054.12936102295	1015.40002441406
1056.73269917742	1012.59997558594
1059.33521671154	1040
1061.93691408729	1027
1064.53779176571	1039.40002441406
1067.13785020694	1008.40002441406
1069.73708987022	1016.40002441406
1072.33551121386	1007.40002441406
1074.93311469528	1005.20001220703
1077.52990077103	1002.79998779297
1080.12586989674	1000.59997558594
1082.72102252714	1014.59997558594
1085.31535911611	995.400024414062
1087.90888011663	1004.59997558594
1090.50158598078	1008.20001220703
1093.09347715979	1002.40002441406
1095.68455410403	992
1098.27481726296	1011.20001220703
1100.86426708523	1005.79998779297
1103.45290401857	1012.40002441406
1106.04072850991	996
1108.6277410053	1009.20001220703
1111.21394194993	1013.59997558594
1113.79933178816	1011.79998779297
1116.3839109635	1021.59997558594
1118.96767991862	1023.59997558594
1121.55063909539	1015.79998779297
1124.13278893477	1032.19995117188
1126.71412987696	1052.59997558594
1129.29466236132	1055.59997558594
1131.87438682637	1055.59997558594
1134.45330370982	1041.80004882812
1137.03141344858	1022
1139.60871647872	1029.19995117188
1142.18521323554	1028.19995117188
1144.7609041535	1015.20001220703
1147.33578966629	1028.59997558594
1149.90987020676	1033.19995117188
1152.48314620702	1030.19995117188
1155.05561809835	1029.40002441406
1157.62728631125	1023
1160.19815127545	1025.59997558594
1162.76821341988	1026.19995117188
1165.33747317271	1024.80004882812
1167.90593096133	1034.59997558594
1170.47358721235	1039.40002441406
1173.04044235163	1034.80004882812
1175.60649680425	1025.40002441406
1178.17175099454	1027
1180.73620534607	1019
1183.29986028165	1027.19995117188
1185.86271622336	1021.40002441406
1188.42477359249	1034.19995117188
1190.98603280964	1037.19995117188
1193.54649429462	1019.40002441406
1196.10615846653	1032.59997558594
1198.66502574372	1028.40002441406
1201.22309654385	1041.80004882812
1203.78037128378	1021.40002441406
1206.33685037971	1042
1208.89253424709	1030.80004882812
1211.44742330063	1034.40002441406
1214.00151795438	1030.59997558594
1216.55481862163	1041
1219.10732571497	1048.40002441406
1221.65903964631	1039.59997558594
1224.20996082683	1038
1226.760089667	1038
1229.30942657664	1041.19995117188
1231.85797196483	1049.19995117188
1234.40572623998	1046
1236.95268980981	1052.19995117188
1239.49886308136	1044.59997558594
1242.04424646098	1055.40002441406
1244.58884035435	1058.40002441406
1247.13264516647	1056.19995117188
1249.67566130166	1069.59997558594
1252.21788916358	1056.59997558594
1254.75932915524	1065.80004882812
1257.29998167896	1058.19995117188
1259.83984713639	1082.19995117188
1262.37892592857	1056.80004882812
1264.91721845586	1070.40002441406
1267.45472511795	1079.19995117188
1269.9914463139	1067.59997558594
1272.52738244213	1093.19995117188
1275.0625339004	1079
1277.59690108587	1073.59997558594
1280.130484395	1074.40002441406
1282.66328422367	1088.40002441406
1285.19530096712	1086.80004882812
1287.72653501993	1100.80004882812
1290.25698677608	1126.80004882812
1292.78665662894	1163.19995117188
1295.31554497125	1162.59997558594
1297.8436521951	1148.59997558594
1300.37097869203	1115.19995117188
1302.89752485292	1121.19995117188
1305.42329106805	1116
1307.94827772713	1113.59997558594
1310.47248521921	1113.59997558594
1312.99591393279	1120.40002441406
1315.51856425575	1120
1318.04043657536	1126.80004882812
1320.56153127836	1111
1323.08184875083	1130.59997558594
1325.6013893783	1128.80004882812
1328.12015354572	1129.19995117188
1330.63814163744	1124
1333.15535403727	1131.40002441406
1335.67179112839	1146.19995117188
1338.18745329347	1152
1340.70234091454	1147.80004882812
1343.21645437314	1162
1345.72979405019	1152.59997558594
1348.24236032607	1159.59997558594
1350.75415358059	1162
1353.26517419303	1164.40002441406
1355.7754225421	1172.59997558594
1358.28489900594	1170.80004882812
1360.79360396218	1169
1363.30153778787	1176.19995117188
1365.80870085955	1176.59997558594
1368.31509355319	1188
1370.82071624424	1178.80004882812
1373.32556930762	1198.59997558594
1375.8296531177	1187.59997558594
1378.33296804832	1182.59997558594
1380.83551447282	1182.40002441406
1383.33729276399	1190.59997558594
1385.83830329408	1188.19995117188
1388.33854643489	1193.19995117188
1390.83802255762	1192.59997558594
1393.33673203301	1190.40002441406
1395.83467523128	1212.59997558594
1398.33185252211	1211.19995117188
1400.82826427471	1206.80004882812
1403.32391085777	1211.40002441406
1405.81879263947	1218
1408.31290998752	1216
1410.80626326908	1221.80004882812
1413.29885285087	1228.80004882812
1415.79067909909	1265.19995117188
1418.28174237944	1251.80004882812
1420.77204305717	1265
1423.26158149702	1241.80004882812
1425.75035806323	1263.59997558594
1428.2383731196	1260.40002441406
1430.72562702942	1273
1433.21212015554	1291.40002441406
1435.69785286028	1301.80004882812
1438.18282550555	1318.59997558594
1440.66703845275	1316.80004882812
1443.15049206284	1331.19995117188
1445.6331866963	1319.19995117188
1448.11512271316	1328.80004882812
1450.59630047298	1345.40002441406
1453.07672033486	1337.80004882812
1455.55638265748	1343.80004882812
1458.03528779902	1368.19995117188
1460.51343611725	1359.80004882812
1462.99082796946	1359.80004882812
1465.46746371252	1373.19995117188
1467.94334370285	1386
1470.41846829642	1371.59997558594
1472.89283784878	1382.80004882812
1475.36645271503	1368.19995117188
1477.83931324983	1386.40002441406
1480.31141980743	1388.19995117188
1482.78277274164	1394.40002441406
1485.25337240583	1402.19995117188
1487.72321915297	1399.40002441406
1490.19231333557	1413.80004882812
1492.66065530578	1418.40002441406
1495.12824541525	1412.40002441406
1497.5950840153	1423.19995117188
1500.06117145678	1429.80004882812
1502.52650809014	1440.80004882812
1504.99109426543	1438
1507.45493033227	1438.40002441406
1509.91801663992	1465.19995117187
1512.38035353717	1463
1514.84194137248	1474.40002441406
1517.30278049386	1490
1519.76287124894	1492.40002441406
1522.22221398497	1494.59997558594
1524.68080904876	1516
1527.13865678681	1506.80004882813
1529.59575754514	1527.59997558594
1532.05211166945	1537.80004882813
1534.50771950503	1546.40002441406
1536.96258139678	1550.40002441406
1539.41669768924	1557.59997558594
1541.87006872656	1569
1544.32269485252	1583.19995117187
1546.77457641051	1596.80004882813
1549.22571374357	1613.40002441406
1551.67610719434	1629
1554.12575710513	1636
1556.57466381785	1633.80004882813
1559.02282767408	1640.19995117187
1561.47024901499	1659
1563.91692818144	1667.19995117187
1566.3628655139	1677.19995117187
1568.80806135249	1686.80004882813
1571.252516037	1707.40002441406
1573.6962299068	1729.19995117187
1576.13920330099	1753.80004882813
1578.58143655828	1741.19995117187
1581.02293001704	1774.59997558594
1583.46368401528	1770
1585.90369889071	1777.59997558594
1588.34297498065	1796.40002441406
1590.7815126221	1802.40002441406
1593.21931215173	1821.80004882813
1595.65637390588	1820.59997558594
1598.09269822053	1816.40002441406
1600.52828543135	1849
1602.96313587367	1858.19995117187
1605.3972498825	1851.40002441406
1607.83062779252	1864.80004882813
1610.26326993808	1866.19995117187
1612.69517665322	1872.19995117187
1615.12634827165	1889.40002441406
1617.55678512676	1902.80004882813
1619.98648755163	1897.59997558594
1622.41545587902	1899.80004882813
1624.84369044138	1920.19995117187
1627.27119157085	1903.19995117187
1629.69795959924	1915
1632.12399485808	1942.59997558594
1634.54929767859	1935.40002441406
1636.97386839165	1950.19995117187
1639.39770732789	1982.40002441406
1641.8208148176	1972.40002441406
1644.24319119078	1996.59997558594
1646.66483677715	2009.40002441406
1649.0857519061	2024.40002441406
1651.50593690677	2014
1653.92539210795	2049.39990234375
1656.3441178382	2038.80004882813
1658.76211442575	2053.80004882813
1661.17938219855	2078.19995117187
1663.59592148428	2104.60009765625
1666.01173261032	2087.80004882813
1668.42681590377	2116.39990234375
1670.84117169145	2128
1673.25480029991	2133.80004882813
1675.66770205541	2126.60009765625
1678.07987728393	2163.39990234375
1680.49132631119	2207.39990234375
1682.90204946263	2213.60009765625
1685.31204706342	2225.19995117187
1687.72131943846	2224.80004882813
1690.1298669124	2235.80004882813
1692.53768980957	2262
1694.94478845411	2251.80004882813
1697.35116316982	2282.80004882813
1699.75681428031	2285.60009765625
1702.16174210887	2309.80004882813
1704.56594697858	2279.80004882813
1706.96942921222	2334.19995117187
1709.37218913235	2334.60009765625
1711.77422706125	2336.19995117187
1714.17554332098	2338.19995117187
1716.5761382333	2371.39990234375
1718.97601211977	2369
1721.37516530169	2365.39990234375
1723.77359810006	2360.60009765625
1726.17131083572	2407
1728.56830382922	2416
1730.96457740087	2423.80004882813
1733.36013187075	2425.80004882813
1735.75496755868	2414.80004882813
1738.14908478428	2443.39990234375
1740.54248386689	2430.80004882813
1742.93516512565	2495.19995117187
1745.32712887946	2465.60009765625
1747.71837544697	2477.60009765625
1750.10890514662	2518.80004882813
1752.49871829661	2533.80004882813
1754.88781521492	2524.60009765625
1757.27619621929	2566.39990234375
1759.66386162726	2561
1762.05081175612	2559
1764.43704692297	2609.39990234375
1766.82256744465	2619.19995117187
1769.20737363782	2619.60009765625
1771.59146581887	2642.19995117187
1773.97484430405	2658
1776.35750940932	2692
1778.73946145048	2712
1781.12070074309	2730.80004882813
1783.50122760249	2751
1785.88104234385	2764.60009765625
1788.26014528209	2783.39990234375
1790.63853673196	2798.19995117187
1793.01621700796	2807.60009765625
1795.39318642443	2825
1797.76944529549	2853.60009765625
1800.14499393503	2863.39990234375
1802.51983265681	2840.60009765625
1804.8939617743	2905
1807.26738160085	2900.39990234375
1809.64009244957	2931.39990234375
1812.01209463339	2929.60009765625
1814.38338846504	2972.19995117188
1816.75397425706	2971.39990234375
1819.12385232181	2999.60009765625
1821.49302297142	3022.60009765625
1823.86148651789	3020.80004882812
1826.22924327299	2994.19995117188
1828.59629354831	3065.39990234375
1830.96263765526	3062
1833.32827590507	3051
1835.69320860877	3106.19995117188
1838.05743607724	3100
1840.42095862113	3116.39990234375
1842.78377655097	3121.39990234375
1845.14589017707	3131.19995117188
1847.50729980956	3153.39990234375
1849.86800575843	3154.19995117188
1852.22800833346	3167.39990234375
1854.58730784427	3204.19995117188
1856.94590460032	3238.19995117188
1859.30379891087	3235.39990234375
1861.66099108503	3251.60009765625
1864.01748143175	3264.60009765625
1866.37327025978	3284.19995117188
1868.72835787773	3295.80004882812
1871.08274459403	3332.39990234375
1873.43643071697	3315.80004882812
1875.78941655464	3383.80004882812
1878.14170241498	3355.39990234375
1880.4932886058	3393.19995117188
1882.84417543469	3414.39990234375
1885.19436320915	3389
1887.54385223646	3410.60009765625
1889.89264282378	3451.19995117188
1892.24073527809	3490.60009765625
1894.58812990625	3475.60009765625
1896.93482701493	3513.39990234375
1899.28082691067	3536.80004882812
1901.62612989984	3551.80004882812
1903.97073628868	3548.19995117188
1906.31464638326	3550
1908.6578604895	3588.60009765625
1911.00037891321	3622.39990234375
1913.34220196	3665
1915.68332993537	3637
1918.02376314468	3698
1920.36350189311	3649
1922.70254648573	3692.19995117188
1925.04089722744	3654.19995117188
1927.37855442303	3693
1929.71551837715	3664.19995117188
1932.05178939426	3662.19995117188
1934.38736777876	3704.39990234375
1936.72225383484	3691.80004882812
1939.0564478666	3736.39990234375
1941.38995017799	3709.60009765625
1943.72276107283	3751.60009765625
1946.05488085479	3729.80004882812
1948.38630982744	3733.80004882812
1950.71704829419	3781.80004882812
1953.04709655832	3760.39990234375
1955.376454923	3766.19995117188
1957.70512369126	3771.19995117188
1960.03310316599	3759
1962.36039364999	3776.19995117188
1964.68699544589	3784.80004882812
1967.01290885622	3832.19995117188
1969.33813418338	3791.39990234375
1971.66267172965	3819
1973.98652179718	3839.80004882812
1976.309684688	3833.80004882812
1978.63216070402	3866
1980.95395014705	3917
1983.27505331873	3853.60009765625
1985.59547052063	3881.39990234375
1987.9152020542	3900.19995117188
1990.23424822074	3838.60009765625
1992.55260932146	3927.60009765625
1994.87028565746	3940.80004882812
1997.18727752968	3972.39990234375
1999.503585239	3965.80004882812
2001.81920908618	3931.39990234375
2004.13414937184	3982.80004882812
2006.44840639651	4024.60009765625
2008.7619804606	4018
2011.07487186442	4060
2013.38708090815	4120.2001953125
2015.6986078919	4077.39990234375
2018.00945311564	4146.7998046875
2020.31961687923	4113.2001953125
2022.62909948246	4121.2001953125
2024.93790122498	4148
2027.24602240636	4178.2001953125
2029.55346332604	4184.39990234375
2031.86022428337	4192.2001953125
2034.16630557761	4225.2001953125
2036.47170750791	4229.60009765625
2038.77643037331	4245.39990234375
2041.08047447275	4283.2001953125
2043.38384010509	4241
2045.68652756907	4280.39990234375
2047.98853716335	4268.2001953125
2050.28986918648	4316
2052.59052393692	4325.7998046875
2054.89050171302	4348.7998046875
2057.18980281306	4330
2059.4884275352	4381.7998046875
2061.78637617753	4317.2001953125
2064.08364903802	4352
2066.38024641457	4342.39990234375
2068.67616860497	4366.7998046875
2070.97141590694	4376.39990234375
2073.26598861809	4405.60009765625
2075.55988703595	4383.60009765625
2077.85311145796	4392.2001953125
2080.14566218145	4397.2001953125
2082.43753950371	4402.39990234375
2084.72874372188	4409
2087.01927513307	4435.60009765625
2089.30913403428	4442.2001953125
2091.59832072241	4479
2093.88683549429	4452
2096.17467864666	4493.60009765625
2098.46185047619	4520.39990234375
2100.74835127944	4546.39990234375
2103.03418135292	4550.7998046875
2105.31934099303	4506
2107.6038304961	4562
2109.88765015838	4552.7998046875
2112.17080027602	4523.2001953125
2114.45328114513	4594.2001953125
2116.7350930617	4575.2001953125
2119.01623632165	4605
2121.29671122085	4594.60009765625
2123.57651805505	4616
2125.85565711996	4641.39990234375
2128.13412871117	4682.2001953125
2130.41193312424	4719.7998046875
2132.68907065462	4713.7998046875
2134.96554159771	4682.7998046875
2137.24134624881	4707.39990234375
2139.51648490317	4711.60009765625
2141.79095785593	4720.60009765625
2144.0647654022	4738.60009765625
2146.33790783698	4759
2148.61038545524	4679.7998046875
2150.88219855182	4757.60009765625
2153.15334742154	4766.60009765625
2155.42383235911	4822.39990234375
2157.6936536592	4810.60009765625
2159.9628116164	4785.2001953125
2162.23130652522	4765.2001953125
2164.49913868011	4807
2166.76630837544	4803
2169.03281590552	4818.60009765625
2171.2986615646	4794.60009765625
2173.56384564685	4793.39990234375
2175.82836844637	4794
2178.0922302572	4825.39990234375
2180.35543137332	4838
2182.61797208862	4814.60009765625
2184.87985269695	4799.2001953125
2187.14107349208	4775.39990234375
2189.40163476773	4793
2191.66153681753	4775.39990234375
2193.92077993507	4763.39990234375
2196.17936441386	4762
2198.43729054735	4793.2001953125
2200.69455862894	4744
2202.95116895194	4767.39990234375
2205.20712180962	4758.7998046875
2207.46241749519	4807.60009765625
2209.71705630179	4742.60009765625
2211.97103852248	4783.60009765625
2214.2243644503	4776.7998046875
2216.47703437819	4721.60009765625
2218.72904859905	4727.60009765625
2220.98040740571	4724
2223.23111109095	4694.39990234375
2225.4811599475	4698.2001953125
2227.73055426799	4699.7998046875
2229.97929434504	4686.60009765625
2232.22738047118	4670.60009765625
2234.47481293889	4683.2001953125
2236.72159204058	4713.60009765625
2238.96771806864	4637.2001953125
2241.21319131536	4655.39990234375
2243.458012073	4645.39990234375
2245.70218063374	4658.60009765625
2247.94569728973	4641
2250.18856233304	4589.39990234375
2252.4307760557	4597
2254.67233874967	4617.39990234375
2256.91325070687	4571
2259.15351221915	4597.60009765625
2261.39312357831	4586.60009765625
2263.63208507611	4550.7998046875
2265.87039700422	4550
2268.1080596543	4545.7998046875
2270.34507331792	4569
2272.5814382866	4500.60009765625
2274.81715485183	4544
2277.05222330502	4527.2001953125
2279.28664393755	4503.7998046875
2281.52041704072	4482.60009765625
2283.75354290581	4504.39990234375
2285.98602182401	4456.2001953125
2288.21785408648	4469.2001953125
2290.44903998434	4430
2292.67957980862	4455.39990234375
2294.90947385033	4419.7998046875
2297.1387224004	4406.39990234375
2299.36732574975	4466.2001953125
2301.59528418921	4389.7998046875
2303.82259800958	4415.7998046875
2306.04926750158	4358.39990234375
2308.27529295593	4343.2001953125
2310.50067466325	4384.60009765625
2312.72541291412	4340
2314.9495079991	4330.39990234375
2317.17296020866	4312.7998046875
2319.39576983323	4357
2321.61793716322	4324.2001953125
2323.83946248894	4292.39990234375
2326.06034610069	4281
2328.28058828871	4277.39990234375
2330.50018934317	4279
2332.7191495542	4260
2334.93746921192	4220.60009765625
2337.15514860633	4256
2339.37218802743	4224
2341.58858776516	4186.2001953125
2343.80434810941	4164.2001953125
2346.01946935001	4168
2348.23395177675	4169.39990234375
2350.44779567939	4152.39990234375
2352.66100134759	4096.39990234375
2354.87356907101	4142
2357.08549913925	4074.60009765625
2359.29679184185	4108
2361.50744746829	4104.60009765625
2363.71746630804	4107.7998046875
2365.92684865048	4036.80004882812
2368.13559478499	4072
2370.34370500083	4097.60009765625
2372.55117958727	4023.60009765625
2374.75801883352	4004
2376.96422302874	3993.80004882812
2379.16979246202	3966.60009765625
2381.37472742243	3937.60009765625
2383.57902819898	3991.39990234375
2385.78269508063	3965.60009765625
2387.98572835629	3933.80004882812
2390.18812831482	3918
2392.38989524505	3959.80004882812
2394.59102943573	3920.39990234375
2396.79153117559	3918
2398.9914007533	3925.39990234375
2401.19063845748	3915.60009765625
2403.38924457672	3894.19995117188
2405.58721939951	3882.19995117188
2407.78456321435	3825.19995117188
2409.98127630966	3813.80004882812
2412.17735897382	3839.39990234375
2414.37281149517	3815.80004882812
2416.56763416198	3817
2418.76182726249	3812.80004882812
2420.95539108487	3785
2423.14832591726	3792.80004882812
2425.34063204776	3768
2427.53230976439	3756.60009765625
2429.72335935513	3775.19995117188
2431.91378110795	3728
2434.10357531071	3711
2436.29274225125	3727.19995117188
2438.48128221739	3696.60009765625
2440.66919549683	3678.80004882812
2442.8564823773	3694.39990234375
2445.04314314641	3699.39990234375
2447.22917809176	3653.19995117188
2449.4145875009	3682
2451.59937166131	3639.80004882812
2453.78353086044	3630.60009765625
2455.96706538568	3639.19995117188
2458.14997552436	3636.60009765625
2460.33226156379	3629
2462.51392379119	3638.19995117188
2464.69496249376	3568.19995117188
2466.87537795862	3574.39990234375
2469.05517047288	3555.19995117188
2471.23434032357	3561.39990234375
2473.41288779767	3541
2475.59081318211	3532.19995117188
2477.76811676378	3501.80004882812
2479.9447988295	3504.19995117188
2482.12085966605	3507.60009765625
2484.29629956016	3497.60009765625
2486.4711187985	3498
2488.64531766769	3491.60009765625
2490.8188964543	3489.80004882812
2492.99185544484	3448.19995117188
2495.16419492579	3441
2497.33591518353	3439.39990234375
2499.50701650444	3434.19995117188
2501.67749917482	3432
2503.84736348091	3424
2506.01660970891	3405
2508.18523814496	3395.80004882812
2510.35324907514	3430.80004882812
2512.52064278551	3430.80004882812
2514.68741956201	3380
2516.85357969058	3404.19995117188
2519.01912345709	3418.80004882812
2521.18405114735	3369.80004882812
2523.34836304711	3384.19995117188
2525.51205944208	3384.60009765625
2527.6751406179	3380
2529.83760686016	3361.19995117188
2531.99945845439	3346.39990234375
2534.16069568606	3371.19995117188
2536.3213188406	3351.39990234375
2538.48132820336	3333.60009765625
2540.64072405965	3337.39990234375
2542.79950669471	3334
2544.95767639373	3326.80004882812
2547.11523344184	3329
2549.27217812411	3305.80004882812
2551.42851072555	3303.80004882812
2553.58423153111	3286.39990234375
2555.73934082569	3293.80004882812
2557.89383889412	3263.39990234375
2560.04772602118	3256
2562.20100249158	3234.60009765625
2564.35366858996	3239
2566.50572460093	3222.60009765625
2568.65717080901	3193.60009765625
2570.80800749867	3228.80004882812
2572.95823495433	3201.80004882812
2575.10785346031	3158.60009765625
2577.25686330093	3179
2579.40526476038	3135.60009765625
2581.55305812282	3160.19995117188
2583.70024367237	3126.39990234375
2585.84682169303	3126.60009765625
2587.99279246879	3112.60009765625
2590.13815628354	3092.60009765625
2592.28291342112	3101.39990234375
2594.42706416531	3060.19995117188
2596.5706087998	3085.19995117188
2598.71354760826	3079.19995117188
2600.85588087425	3070.60009765625
2602.99760888127	3071.80004882812
2605.13873191278	3034.19995117188
2607.27925025214	3038.60009765625
2609.41916418269	3046.80004882812
2611.55847398764	3025.80004882812
2613.69717995017	3020.19995117188
2615.83528235339	3007
2617.97278148034	3017.19995117188
2620.10967761398	3009.60009765625
2622.2459710372	3013.80004882812
2624.38166203284	3004
2626.51675088365	2982
2628.65123787231	2964
2630.78512328145	2977.80004882812
2632.9184073936	2961.19995117188
2635.05109049124	2979.19995117188
2637.18317285676	2943.80004882812
2639.31465477248	2968.19995117188
2641.44553652067	2953
2643.5758183835	2946.19995117188
2645.70550064309	2971.39990234375
2647.83458358144	2938.80004882812
2649.96306748053	2928.19995117188
2652.09095262223	2940.60009765625
2654.21823928836	2934.60009765625
2656.34492776063	2919.19995117188
2658.47101832071	2908.60009765625
2660.59651125015	2914.39990234375
2662.72140683047	2914.19995117188
2664.84570534309	2897
2666.96940706934	2881
2669.0925122905	2860.19995117187
2671.21502128773	2877.60009765625
2673.33693434215	2898.80004882812
2675.45825173479	2891
2677.57897374658	2897.39990234375
2679.69910065839	2888.80004882812
2681.818632751	2875.60009765625
2683.93757030511	2847
2686.05591360133	2873
2688.17366292021	2849.60009765625
2690.29081854218	2847
2692.40738074762	2827.80004882813
2694.52334981681	2826.19995117187
2696.63872602995	2820.60009765625
2698.75350966713	2814.19995117187
2700.86770100841	2811.19995117187
2702.98130033371	2818.60009765625
2705.09430792289	2808.19995117187
2707.20672405571	2849.80004882813
2709.31854901185	2821.80004882813
2711.42978307091	2808
2713.54042651238	2805.60009765625
2715.65047961567	2833.39990234375
2717.7599426601	2792.19995117187
2719.86881592491	2828.60009765625
2721.97709968924	2822
2724.08479423213	2785
2726.19189983255	2791.60009765625
2728.29841676934	2796.80004882813
2730.4043453213	2781.39990234375
2732.5096857671	2774.80004882813
2734.61443838532	2782.39990234375
2736.71860345444	2759
2738.82218125286	2781.80004882813
2740.92517205889	2772
2743.02757615072	2760
2745.12939380646	2712
2747.23062530411	2757.39990234375
2749.33127092159	2768.80004882813
2751.4313309367	2746
2753.53080562716	2754.39990234375
2755.62969527058	2766.60009765625
2757.72800014448	2728
2759.82572052625	2737.80004882813
2761.92285669323	2736
2764.0194089226	2762.19995117187
2766.11537749147	2756.39990234375
2768.21076267686	2768.39990234375
2770.30556475566	2733.80004882813
2772.39978400465	2741.60009765625
2774.49342070054	2710.60009765625
2776.58647511991	2753.19995117187
2778.67894753923	2716.39990234375
2780.77083823487	2720.39990234375
2782.8621474831	2702
2784.95287556007	2676.39990234375
2787.04302274184	2697.60009765625
2789.13258930433	2727
2791.22157552338	2686.39990234375
2793.30998167471	2717.60009765625
2795.39780803392	2692.19995117187
2797.4850548765	2690.80004882813
2799.57172247786	2697.19995117187
2801.65781111324	2685.80004882813
2803.74332105781	2700.60009765625
2805.82825258661	2690.60009765625
2807.91260597457	2692.80004882813
2809.9963814965	2692
2812.07957942711	2691.39990234375
2814.16220004096	2672.60009765625
2816.24424361252	2654.60009765625
2818.32571041614	2681.19995117187
2820.40660072604	2685.80004882813
2822.48691481631	2694.39990234375
2824.56665296098	2707.80004882813
2826.64581543388	2681.19995117187
2828.72440250876	2701.19995117187
2830.80241445925	2725.19995117187
2832.87985155885	2735.60009765625
2834.95671408093	2771.19995117187
2837.03300229875	2791.80004882813
2839.10871648544	2857.60009765625
2841.18385691399	2900.60009765625
2843.25842385729	2977.80004882812
2845.33241758808	2986.19995117188
2847.40583837898	3027.39990234375
2849.4786865025	3026.80004882812
2851.550962231	2996.39990234375
2853.6226658367	2960.39990234375
2855.69379759173	2925.39990234375
2857.76435776806	2919.80004882812
2859.83434663753	2913.39990234375
2861.90376447184	2909.19995117188
2863.97261154259	2874.60009765625
2866.0408881212	2849.19995117187
2868.10859447901	2874.39990234375
2870.17573088717	2886.39990234375
2872.24229761673	2888.19995117188
2874.30829493859	2919.39990234375
2876.37372312352	2943
2878.43858244215	3034.39990234375
2880.50287316496	3057.39990234375
2882.56659556231	3046.39990234375
2884.62974990439	2968.19995117188
2886.69233646129	2927
2888.75435550293	2900.60009765625
2890.81580729909	2895.39990234375
2892.87669211941	2898
2894.93701023339	2893.60009765625
2896.99676191039	2869.39990234375
2899.05594741961	2886.60009765625
2901.1145670301	2870.39990234375
2903.1726210108	2843.60009765625
2905.23010963045	2870
2907.28703315768	2820.80004882813
2909.34339186096	2840.19995117187
2911.39918600861	2843.39990234375
2913.45441586879	2801.39990234375
2915.50908170952	2830.39990234375
2917.56318379867	2795.80004882813
2919.61672240395	2837.39990234375
2921.66969779291	2796.19995117187
2923.72211023295	2807
2925.77395999134	2796.80004882813
2927.82524733515	2813.80004882813
2929.87597253132	2807
2931.92613584663	2817.19995117187
2933.97573754769	2800.80004882813
2936.02477790097	2784.60009765625
2938.07325717276	2760.39990234375
2940.1211756292	2778.39990234375
2942.16853353626	2746.60009765625
2944.21533115976	2762.60009765625
2946.26156876536	2720.39990234375
2948.30724661853	2710.39990234375
2950.3523649846	2756.60009765625
2952.39692412872	2717.60009765625
2954.44092431587	2737.60009765625
2956.48436581089	2729.60009765625
2958.52724887843	2721
2960.56957378296	2722.19995117187
2962.6113407888	2749.60009765625
2964.65255016011	2713.19995117187
2966.69320216083	2766.80004882813
2968.73329705479	2713.39990234375
2970.77283510559	2722.19995117187
2972.81181657671	2754.80004882813
2974.8502417314	2731.80004882813
2976.88811083279	2763.39990234375
2978.92542414378	2718.60009765625
2980.96218192713	2719.80004882813
2982.99838444541	2744.19995117187
2985.034031961	2767.80004882813
2987.06912473612	2746.39990234375
2989.1036630328	2783.80004882813
2991.13764711288	2763.60009765625
2993.17107723804	2788.80004882813
2995.20395366974	2756.39990234375
2997.23627666931	2803.19995117187
2999.26804649782	2802.19995117187
3001.29926341624	2814.60009765625
3003.32992768528	2817
3005.3600395655	2824
3007.38959931726	2816.60009765625
3009.41860720076	2808.60009765625
3011.44706347595	2848
3013.47496840263	2840.60009765625
3015.50232224041	2865.80004882813
3017.5291252487	2881.60009765625
3019.5553776867	2824.60009765625
3021.58107981344	2877.19995117187
3023.60623188773	2900.39990234375
3025.63083416822	2871.80004882813
3027.65488691331	2900.80004882812
3029.67839038125	2899.19995117188
3031.70134483007	2870.39990234375
3033.72375051759	2904.60009765625
3035.74560770144	2906
3037.76691663907	2935.19995117188
3039.78767758768	2916.39990234375
3041.80789080431	2930.80004882812
3043.82755654577	2918
3045.84667506867	2919.80004882812
3047.8652466294	2930
3049.88327148418	2967.19995117188
3051.90074988899	2946.19995117188
3053.91768209961	2963.60009765625
3055.9340683716	2924
3057.94990896033	2949.60009765625
3059.96520412095	2965
3061.97995410838	2973.19995117188
3063.99415917734	2963.39990234375
3066.00781958234	2951.39990234375
3068.02093557766	2970
3070.03350741738	2944.60009765625
3072.04553535535	2961.39990234375
3074.05701964521	2971.19995117188
3076.06796054036	2974.60009765625
3078.078358294	2982
3080.08821315912	2967.80004882812
3082.09752538846	2996
3084.10629523454	2961
3086.11452294967	2982
3088.12220878592	2990.39990234375
3090.12935299515	3010.80004882812
3092.13595582898	3014
3094.1420175388	3005.19995117188
3096.14753837579	3015
3098.15251859088	3027.60009765625
3100.15695843477	3023.60009765625
3102.16085815793	3022.19995117188
3104.16421801061	3014.39990234375
3106.16703824282	3002.19995117188
3108.16931910432	3015
3110.17106084464	3042
3112.17226371308	3070.60009765625
3114.17292795872	3077.39990234375
3116.17305383034	3087.19995117188
3118.17264157657	3062.60009765625
3120.17169144571	3073
3122.17020368587	3059.19995117188
3124.16817854492	3061.80004882812
3126.16561627044	3080.60009765625
3128.16251710982	3117.39990234375
3130.15888131017	3105.60009765625
3132.15470911837	3095.19995117188
3134.15000078104	3118
3136.14475654455	3120.80004882812
3138.13897665502	3108.19995117188
3140.13266135835	3137.39990234375
3142.12581090014	3107
3144.11842552577	3153.19995117188
3146.11050548036	3172.19995117188
3148.10205100875	3160
3150.09306235557	3228.60009765625
3152.08353976515	3145.39990234375
3154.07348348158	3144.80004882812
3156.06289374869	3193.80004882812
3158.05177081006	3172.80004882812
3160.04011490899	3155.19995117188
3162.02792628852	3192.80004882812
3164.01520519145	3165
3166.00195186029	3185.19995117188
3167.98816653728	3206.39990234375
3169.97384946442	3218.39990234375
3171.95900088344	3189.39990234375
3173.94362103577	3227.39990234375
3175.92771016259	3221.39990234375
3177.91126850484	3235
3179.89429630312	3220.39990234375
3181.87679379782	3221.80004882812
3183.85876122903	3239.19995117188
3185.84019883657	3239.60009765625
3187.82110685997	3242.80004882812
3189.80148553851	3236
3191.78133511116	3264.39990234375
3193.76065581664	3271.80004882812
3195.73944789337	3282.19995117188
3197.7177115795	3259.60009765625
3199.6954471129	3278.80004882812
3201.67265473114	3295.39990234375
3203.64933467153	3304.19995117188
3205.62548717107	3296.60009765625
3207.60111246648	3316.19995117188
3209.57621079421	3306.19995117188
3211.55078239041	3300.39990234375
3213.52482749093	3315.80004882812
3215.49834633133	3367.80004882812
3217.4713391469	3385.39990234375
3219.44380617262	3358.39990234375
3221.41574764317	3379.60009765625
3223.38716379296	3366
3225.35805485607	3398.39990234375
3227.32842106631	3433
3229.29826265718	3434.19995117188
3231.26757986187	3406.39990234375
3233.2363729133	3429.39990234375
3235.20464204405	3427.39990234375
3237.17238748643	3432.60009765625
3239.13960947243	3464
3241.10630823374	3463
3243.07248400174	3462.80004882812
3245.03813700748	3515.80004882812
3247.00326748177	3502.19995117188
3248.96787565503	3478
3250.93196175742	3513.39990234375
3252.89552601877	3501.39990234375
3254.8585686686	3521
3256.82108993612	3543.19995117188
3258.78309005022	3545.39990234375
3260.74456923948	3492.80004882812
3262.70552773215	3527.80004882812
3264.66596575617	3548.19995117188
3266.62588353916	3515.19995117188
3268.58528130843	3520.19995117188
3270.54415929094	3517
3272.50251771336	3550.60009765625
3274.46035680201	3561
3276.4176767829	3565.60009765625
3278.37447788171	3536.39990234375
3280.33076032379	3587.19995117188
3282.28652433416	3575.39990234375
3284.24177013751	3599.60009765625
3286.1964979582	3597.19995117188
3288.15070802027	3640.60009765625
3290.10440054741	3560.60009765625
3292.05757576298	3577
3294.01023389001	3578.60009765625
3295.96237515119	3597.60009765625
3297.91399976887	3603.60009765625
3299.86510796506	3618.60009765625
3301.81569996142	3570
3303.76577597932	3581.60009765625
3305.7153362397	3617
3307.66438096324	3643.19995117188
3309.61291037024	3637.19995117188
3311.56092468064	3608.39990234375
3313.50842411404	3618
3315.45540888971	3627.19995117188
3317.40187922656	3612.80004882812
3319.34783534315	3598.39990234375
3321.29327745768	3606.39990234375
3323.23820578801	3572
3325.18262055164	3644.60009765625
3327.1265219657	3616.19995117188
3329.06991024699	3609
3331.01278561194	3627.80004882812
3332.95514827662	3601.19995117188
3334.89699845674	3641.80004882812
3336.83833636766	3612.19995117188
3338.77916222434	3605.80004882812
3340.71947624143	3612.80004882812
3342.65927863317	3649.19995117188
3344.59856961346	3594.19995117188
3346.53734939584	3616.60009765625
3348.47561819344	3599.39990234375
3350.41337621906	3598.60009765625
3352.35062368513	3614.80004882812
3354.28736080368	3604.60009765625
3356.22358778637	3589.80004882812
3358.15930484452	3601.19995117188
3360.09451218904	3629.19995117188
3362.02921003047	3627
3363.96339857898	3654.80004882812
3365.89707804436	3626.19995117188
3367.83024863602	3619.39990234375
3369.76291056299	3616.80004882812
3371.69506403389	3592.19995117188
3373.62670925699	3627.60009765625
3375.55784644016	3655.60009765625
3377.4884757909	3607.39990234375
3379.41859751629	3647.60009765625
3381.34821182305	3674.19995117188
3383.27731891749	3627.19995117188
3385.20591900555	3667.39990234375
3387.13401229276	3647.19995117188
3389.06159898426	3676.60009765625
3390.9886792848	3680.39990234375
3392.91525339872	3716.39990234375
3394.84132152998	3707.19995117188
3396.76688388213	3706.39990234375
3398.69194065833	3694.19995117188
3400.61649206133	3705.19995117188
3402.54053829348	3731.39990234375
3404.46407955672	3652.19995117188
3406.3871160526	3693.80004882812
3408.30964798225	3692.60009765625
3410.23167554639	3683.19995117188
3412.15319894535	3686.39990234375
3414.07421837904	3693.60009765625
3415.99473404695	3707
3417.91474614817	3712.80004882812
3419.83425488136	3745.19995117188
3421.75326044479	3731.39990234375
3423.67176303631	3715
3425.58976285332	3697
3427.50726009282	3694
3429.42425495143	3697.60009765625
3431.34074762528	3691
3433.25673831012	3679.19995117188
3435.17222720127	3689
3437.08721449362	3676.39990234375
3439.00170038164	3677.39990234375
3440.91568505936	3708.60009765625
3442.82916872039	3711.19995117188
3444.74215155791	3706.19995117188
3446.65463376468	3700.80004882812
3448.566615533	3689.19995117188
3450.47809705476	3676.60009765625
3452.3890785214	3712.19995117188
3454.29956012393	3691.80004882812
3456.20954205293	3699
3458.11902449853	3686.39990234375
3460.02800765041	3691.80004882812
3461.93649169784	3697.60009765625
3463.84447682962	3681.60009765625
3465.75196323412	3712
3467.65895109925	3653.39990234375
3469.56544061249	3698.39990234375
3471.47143196086	3695.39990234375
3473.37692533093	3709
3475.28192090884	3714
3477.18641888026	3726
3479.09041943039	3686
3480.99392274402	3670.39990234375
3482.89692900545	3675.39990234375
3484.79943839853	3678.39990234375
3486.70145110666	3700
3488.60296731277	3676.80004882812
3490.50398719933	3685.39990234375
3492.40451094836	3638.19995117188
3494.30453874141	3671
3496.20407075956	3685.80004882812
3498.10310718342	3697.60009765625
3500.00164819315	3643.39990234375