201.866871357051	805.25
204.754250281454	807.5
207.640596790938	808.5
210.525911876299	813.75
213.410196525689	812.25
216.293451724508	799.5
219.175678455485	810.25
222.056877698662	814
224.937050431388	810
227.816197628363	811.5
230.694320261602	815.25
233.571419300504	823.5
236.447495711764	838.25
239.322550459507	839.25
242.196584505182	870.5
245.069598807626	895.75
247.941594323078	901
250.812572005154	894.5
253.682532804884	883
256.551477670699	890.5
259.419407548456	869
262.286323381439	863.25
265.152226110364	849.75
268.017116673389	834.25
270.880996006115	826.25
273.743865041622	815
276.605724710436	807.75
279.466575940562	804
282.326419657496	818.5
285.1852567842	816.5
288.043088241157	810.75
290.899914946349	804.5
293.75573781526	801
296.610557760898	802
299.464375693817	805.75
302.317192522078	802.5
305.169009151297	822.25
308.019826484655	816.75
310.86964542287	830.25
313.718466864233	847.75
316.566291704614	851.5
319.413120837457	864.5
322.258955153804	846.25
325.103795542291	836.25
327.947642889128	824.25
330.79049807819	827.75
333.632361990927	810
336.473235506444	801.5
339.31311950145	804
342.152014850322	799.75
344.989922425062	802.25
347.826843095354	795.25
350.662777728528	808.25
353.497727189577	811.25
356.331692341195	799.75
359.164674043732	800.75
361.996673155267	807.5
364.827690531536	806.25
367.65772702602	814
370.486783489887	813.25
373.314860772047	821.75
376.14195971912	816.25
378.968081175466	832.5
381.793225983212	829
384.617394982201	852.75
387.44058901005	891.25
390.262808902131	956.25
393.08405549161	1059
395.904329609395	1199.75
398.723632084213	1249.75
401.541963742569	1197.25
404.359325408779	1059.5
407.175717904938	962.5
409.991142050982	897.25
412.805598664665	877.25
415.619088561551	860
418.43161255505	840.75
421.243171456415	828.75
424.053766074758	838.25
426.863397217017	841.5
429.672065688024	829.75
432.479772290455	837.25
435.286517824879	839.5
438.092303089736	851.5
440.897128881359	844.25
443.70099599399	868.25
446.503905219761	894.75
449.305857348711	934.5
452.106853168796	962
454.906893465919	967
457.705979023885	963.5
460.504110624439	929
463.3012890473	903.75
466.097515070087	877.75
468.892789468424	848
471.687113015869	829
474.48048648395	825.25
477.272910642198	812.25
480.064386258109	815.75
482.854914097159	810
485.644494922839	815
488.433129496636	819.75
491.220818578047	809.5
494.007562924584	812.5
496.793363291785	827.25
499.578220433217	817
502.362135100473	827.5
505.145108043209	826.75
507.927140009098	818.75
510.708231743909	834.5
513.488383991433	832.75
516.267597493556	851.75
519.04587299022	860.5
521.82321121946	895.25
524.599612917398	922.5
527.375078818233	946
530.149609654287	940.25
532.923206155967	916
535.695869051804	877.5
538.467599068448	860.75
541.238396930665	827.25
544.008263361364	825
546.777199081578	821.5
549.545204810493	807.25
552.312281265436	812.25
555.078429161898	812.25
557.843649213533	814
560.607942132156	822
563.371308627753	814
566.133749408495	811.5
568.895265180756	812.75
571.655856649064	817
574.415524516189	808
577.174269483075	815.5
579.932092248884	804
582.688993510994	811
585.444973965023	807
588.200034304795	805.75
590.95417522237	803.75
593.70739740807	809.25
596.459701550433	807
599.21108833628	816.25
601.961558450668	811.25
604.711112576933	808.25
607.459751396673	805.25
610.207475589748	806.75
612.954285834338	805.5
615.700182806879	808.5
618.445167182101	805.5
621.189239633055	802
623.932400831087	805
626.674651445839	804
629.415992145303	803.5
632.156423595745	800.25
634.895946461813	799
637.634561406449	798.5
640.37226909096	809.5
643.109070174978	795.75
645.844965316508	793.5
648.579955171888	806.75
651.314040395846	799.25
654.047221641456	794
656.779499560176	815.75
659.510874801828	805.75
662.241348014642	802
664.97091984524	803.75
667.699590938606	796.75
670.427361938164	811
673.15423348573	800
675.880206221526	813.25
678.605280784206	813
681.329457810829	803.25
684.05273793692	798.5
686.775121796389	810.5
689.49661002163	813
692.217203243454	805.25
694.936902091144	800.25
697.655707192425	811.5
700.373619173493	798.25
703.09063865901	799
705.806766272093	798.75
708.522002634378	809.75
711.236348365946	803.25
713.94980408538	801.25
716.662370409762	807
719.374047954676	811
722.08483733419	805
724.794739160909	801.5
727.503754045949	810.5
730.21188259892	811
732.919125427998	800
735.625483139855	799.25
738.330956339723	802.5
741.035545631374	795.75
743.739251617106	801.75
746.44207489779	801.25
749.144016072852	804
751.845075740272	805
754.545254496603	808.5
757.244552936976	824.75
759.94297165508	814
762.640511243222	824.75
765.337172292249	817.5
768.032955391649	821.5
770.727861129482	818
773.421890092413	828.5
776.11504286572	819.25
778.807320033298	821.75
781.49872217765	825.25
784.18924987991	843.25
786.87890371984	842.25
789.567684275826	852.25
792.255592124908	868.25
794.94262784276	886.5
797.628792003703	924.75
800.314085180715	1030.75
802.998507945427	1235.5
805.682060868145	1587.25
808.364744517821	1828.25
811.046559462105	1744.5
813.727506267311	1386
816.407585498422	1107
819.08679771913	992.5
821.765143491822	939
824.442623377563	931.25
827.119237936127	928.5
829.794987726003	956.5
832.469873304377	995.75
835.143895227167	1057.75
837.817054048985	1185
840.489350323205	1252.75
843.160784601892	1216
845.831357435894	1080.25
848.501069374739	972.75
851.169920966753	920
853.837912758987	900.25
856.505045297232	884.75
859.171319126071	868.75
861.836734788823	854
864.501292827579	859.75
867.164993783208	851.5
869.827838195361	849.75
872.489826602454	847
875.150959541701	841.5
877.811237549104	833
880.470661159456	829.5
883.129230906357	831.5
885.786947322205	834.75
888.443810938206	832.25
891.099822284385	851.5
893.754981889586	860.75
896.409290281452	870.5
899.062747986485	875
901.715355529999	856.5
904.367113436154	865
907.01802222793	843.5
909.668082427172	835.25
912.317294554574	833.5
914.965659129659	842.5
917.613176670835	844.25
920.259847695364	830.5
922.90567271936	848.25
925.550652257825	844
928.194786824621	846.25
930.838076932512	852
933.480523093109	892.25
936.122125816953	912
938.762885613447	955
941.402802990899	951.75
944.041878456523	934
946.680112516428	917.25
949.31750567563	871.5
951.954058438081	872
954.589771306633	877
957.224644783048	884
959.858679368044	880.75
962.491875561238	914.25
965.12423386121	978
967.75575476545	1109
970.386438770423	1266.75
973.016286371501	1347
975.645298063046	1279.75
978.273474338355	1108
980.900815689674	967.5
983.527322608243	915.75
986.152995584245	886.5
988.777835106834	889.5
991.401841664148	901.25
994.025015743307	940.75
996.647357830407	973.75
999.268868410534	987
1001.88954796777	952.25
1004.50939698518	925
1007.12841594484	899.75
1009.74660532783	881.25
1012.36396561423	873.25
1014.98049728314	870
1017.59620081267	868.75
1020.21107667995	874.25
1022.82512536112	870.5
1025.43834733138	877
1028.05074306493	917.25
1030.66231303501	933
1033.27305771392	971
1035.88297757299	1002.75
1038.49207308257	1017.25
1041.10034471211	1002.25
1043.70779293008	1005
1046.31441820402	959.5
1048.92022100052	928.5
1051.52520178525	908.5
1054.12936102295	892
1056.73269917742	867.75
1059.33521671154	867.75
1061.93691408729	867.5
1064.53779176571	857.5
1067.13785020694	860.75
1069.73708987022	856.5
1072.33551121386	860
1074.93311469528	848.25
1077.52990077103	844
1080.12586989674	843.25
1082.72102252714	857.75
1085.31535911611	859.5
1087.90888011663	859.25
1090.50158598078	856.25
1093.09347715979	862.5
1095.68455410403	869.5
1098.27481726296	885.25
1100.86426708523	899.25
1103.45290401857	883.75
1106.04072850991	885
1108.6277410053	878.5
1111.21394194993	868
1113.79933178816	873.75
1116.3839109635	861.75
1118.96767991862	863
1121.55063909539	873.75
1124.13278893477	866.5
1126.71412987696	870.5
1129.29466236132	884
1131.87438682637	886.75
1134.45330370982	905.25
1137.03141344858	916.5
1139.60871647872	920.5
1142.18521323554	964.5
1144.7609041535	1036.75
1147.33578966629	1097.75
1149.90987020676	1193.5
1152.48314620702	1248.75
1155.05561809835	1232.5
1157.62728631125	1203
1160.19815127545	1229
1162.76821341988	1281.75
1165.33747317271	1420.75
1167.90593096133	1466.5
1170.47358721235	1391.75
1173.04044235163	1230
1175.60649680425	1077
1178.17175099454	972
1180.73620534607	935.75
1183.29986028165	910
1185.86271622336	903.25
1188.42477359249	903.25
1190.98603280964	899
1193.54649429462	896.25
1196.10615846653	897
1198.66502574372	900
1201.22309654385	882
1203.78037128378	896.25
1206.33685037971	914
1208.89253424709	920
1211.44742330063	946.75
1214.00151795438	991.75
1216.55481862163	1042.25
1219.10732571497	1054.75
1221.65903964631	1037.25
1224.20996082683	985.25
1226.760089667	944.75
1229.30942657664	913
1231.85797196483	896.5
1234.40572623998	895
1236.95268980981	902.25
1239.49886308136	895.25
1242.04424646098	885.25
1244.58884035435	910.75
1247.13264516647	924.5
1249.67566130166	950.25
1252.21788916358	995.5
1254.75932915524	1001.5
1257.29998167896	993.5
1259.83984713639	953.75
1262.37892592857	923.25
1264.91721845586	906
1267.45472511795	912.25
1269.9914463139	908.75
1272.52738244213	912
1275.0625339004	907
1277.59690108587	912.5
1280.130484395	909
1282.66328422367	919
1285.19530096712	907
1287.72653501993	932.75
1290.25698677608	937
1292.78665662894	969.75
1295.31554497125	964
1297.8436521951	987.5
1300.37097869203	996.25
1302.89752485292	1005.25
1305.42329106805	1017.5
1307.94827772713	1003.75
1310.47248521921	976.25
1312.99591393279	965
1315.51856425575	982.5
1318.04043657536	1003.5
1320.56153127836	1063.5
1323.08184875083	1184.75
1325.6013893783	1301.75
1328.12015354572	1403
1330.63814163744	1392.75
1333.15535403727	1267
1335.67179112839	1132.25
1338.18745329347	1055.25
1340.70234091454	1030.75
1343.21645437314	996
1345.72979405019	989.75
1348.24236032607	1002.25
1350.75415358059	1027.75
1353.26517419303	1061.25
1355.7754225421	1130.25
1358.28489900594	1188.5
1360.79360396218	1191.5
1363.30153778787	1126.5
1365.80870085955	1095.25
1368.31509355319	1035.75
1370.82071624424	1036
1373.32556930762	1036.25
1375.8296531177	1023.25
1378.33296804832	1021.75
1380.83551447282	996.25
1383.33729276399	975.25
1385.83830329408	956.5
1388.33854643489	931.5
1390.83802255762	937
1393.33673203301	942
1395.83467523128	930.75
1398.33185252211	935.75
1400.82826427471	927
1403.32391085777	936.75
1405.81879263947	935.75
1408.31290998752	936
1410.80626326908	921.5
1413.29885285087	926
1415.79067909909	947
1418.28174237944	943
1420.77204305717	960.75
1423.26158149702	948.5
1425.75035806323	982.75
1428.2383731196	1000.25
1430.72562702942	1057.25
1433.21212015554	1159.25
1435.69785286028	1208.75
1438.18282550555	1200.25
1440.66703845275	1158
1443.15049206284	1147.25
1445.6331866963	1168.25
1448.11512271316	1223
1450.59630047298	1324.75
1453.07672033486	1450.25
1455.55638265748	1556
1458.03528779902	1656
1460.51343611725	1676
1462.99082796946	1564.25
1465.46746371252	1377.5
1467.94334370285	1243.25
1470.41846829642	1125.5
1472.89283784878	1090.25
1475.36645271503	1073.5
1477.83931324983	1041.25
1480.31141980743	1020
1482.78277274164	1019.75
1485.25337240583	1010.75
1487.72321915297	1007.5
1490.19231333557	1006
1492.66065530578	1011.25
1495.12824541525	1002.75
1497.5950840153	1019
1500.06117145678	1006.5
1502.52650809014	1016.5
1504.99109426543	1017.5
1507.45493033227	1010.5
1509.91801663992	1017.5
1512.38035353717	1024
1514.84194137248	1018.25
1517.30278049386	1027.75
1519.76287124894	1007.75
1522.22221398497	1009.75
1524.68080904876	1000.25
1527.13865678681	1001
1529.59575754514	1011.75
1532.05211166945	1000.25
1534.50771950503	994.75
1536.96258139678	1009.75
1539.41669768924	1013
1541.87006872656	1011
1544.32269485252	1015.75
1546.77457641051	1016.75
1549.22571374357	1014
1551.67610719434	1022
1554.12575710513	1025.25
1556.57466381785	1025.25
1559.02282767408	1027.25
1561.47024901499	1029
1563.91692818144	1018.5
1566.3628655139	1025.5
1568.80806135249	1031.25
1571.252516037	1047
1573.6962299068	1042.25
1576.13920330099	1053.5
1578.58143655828	1049.25
1581.02293001704	1052.75
1583.46368401528	1040
1585.90369889071	1054.5
1588.34297498065	1071
1590.7815126221	1051.75
1593.21931215173	1063.5
1595.65637390588	1059.25
1598.09269822053	1062
1600.52828543135	1064
1602.96313587367	1057
1605.3972498825	1066.5
1607.83062779252	1053
1610.26326993808	1056.25
1612.69517665322	1069.75
1615.12634827165	1048.75
1617.55678512676	1047
1619.98648755163	1054
1622.41545587902	1066.75
1624.84369044138	1057.5
1627.27119157085	1058.5
1629.69795959924	1060.75
1632.12399485808	1068.25
1634.54929767859	1056.5
1636.97386839165	1059.5
1639.39770732789	1084
1641.8208148176	1064.75
1644.24319119078	1063.75
1646.66483677715	1065.5
1649.0857519061	1065.5
1651.50593690677	1065.25
1653.92539210795	1078.5
1656.3441178382	1069.75
1658.76211442575	1085.75
1661.17938219855	1076.25
1663.59592148428	1093
1666.01173261032	1081.5
1668.42681590377	1089.5
1670.84117169145	1096
1673.25480029991	1097.5
1675.66770205541	1114.5
1678.07987728393	1121
1680.49132631119	1110.25
1682.90204946263	1112
1685.31204706342	1117.5
1687.72131943846	1122.5
1690.1298669124	1134.5
1692.53768980957	1119.25
1694.94478845411	1115
1697.35116316982	1129.5
1699.75681428031	1134.75
1702.16174210887	1130.75
1704.56594697858	1143
1706.96942921222	1147.5
1709.37218913235	1134
1711.77422706125	1109.5
1714.17554332098	1118
1716.5761382333	1130
1718.97601211977	1120.5
1721.37516530169	1123.75
1723.77359810006	1132.25
1726.17131083572	1137.5
1728.56830382922	1125.5
1730.96457740087	1123.25
1733.36013187075	1110.25
1735.75496755868	1123.25
1738.14908478428	1131
1740.54248386689	1127.25
1742.93516512565	1130.75
1745.32712887946	1134.75
1747.71837544697	1129
1750.10890514662	1142
1752.49871829661	1132.25
1754.88781521492	1133
1757.27619621929	1133.75
1759.66386162726	1134.75
1762.05081175612	1128.75
1764.43704692297	1152.5
1766.82256744465	1137.5
1769.20737363782	1141.75
1771.59146581887	1139.25
1773.97484430405	1148.25
1776.35750940932	1155.5
1778.73946145048	1157.5
1781.12070074309	1162.25
1783.50122760249	1168.75
1785.88104234385	1144.75
1788.26014528209	1157.25
1790.63853673196	1176.75
1793.01621700796	1160
1795.39318642443	1169
1797.76944529549	1155
1800.14499393503	1157
1802.51983265681	1169.75
1804.8939617743	1180.5
1807.26738160085	1191.25
1809.64009244957	1178.75
1812.01209463339	1179
1814.38338846504	1181.25
1816.75397425706	1179
1819.12385232181	1187
1821.49302297142	1188
1823.86148651789	1194.25
1826.22924327299	1179.5
1828.59629354831	1172.75
1830.96263765526	1180.75
1833.32827590507	1185
1835.69320860877	1180
1838.05743607724	1187.25
1840.42095862113	1181
1842.78377655097	1170.5
1845.14589017707	1194.5
1847.50729980956	1188
1849.86800575843	1181.75
1852.22800833346	1181.25
1854.58730784427	1183.25
1856.94590460032	1180
1859.30379891087	1174.75
1861.66099108503	1196.75
1864.01748143175	1211.75
1866.37327025978	1173.5
1868.72835787773	1180.5
1871.08274459403	1185
1873.43643071697	1189.5
1875.78941655464	1212.75
1878.14170241498	1206.5
1880.4932886058	1203.5
1882.84417543469	1220
1885.19436320915	1214.5
1887.54385223646	1188.75
1889.89264282378	1205.5
1892.24073527809	1214.75
1894.58812990625	1210.75
1896.93482701493	1229.5
1899.28082691067	1217.75
1901.62612989984	1226.25
1903.97073628868	1214.25
1906.31464638326	1213
1908.6578604895	1230
1911.00037891321	1241
1913.34220196	1229.5
1915.68332993537	1247.75
1918.02376314468	1239.75
1920.36350189311	1219.25
1922.70254648573	1237.75
1925.04089722744	1243.5
1927.37855442303	1233.75
1929.71551837715	1237.25
1932.05178939426	1245.75
1934.38736777876	1236.5
1936.72225383484	1226.5
1939.0564478666	1228
1941.38995017799	1234
1943.72276107283	1234.5
1946.05488085479	1226.5
1948.38630982744	1237.25
1950.71704829419	1228
1953.04709655832	1211.75
1955.376454923	1242.25
1957.70512369126	1223.5
1960.03310316599	1225
1962.36039364999	1234
1964.68699544589	1226.5
1967.01290885622	1232
1969.33813418338	1224.25
1971.66267172965	1213.25
1973.98652179718	1219
1976.309684688	1233.5
1978.63216070402	1226.75
1980.95395014705	1225.25
1983.27505331873	1214.75
1985.59547052063	1231.25
1987.9152020542	1230.5
1990.23424822074	1211.25
1992.55260932146	1241.75
1994.87028565746	1226.5
1997.18727752968	1240
1999.503585239	1254
2001.81920908618	1236.25
2004.13414937184	1251.25
2006.44840639651	1252.75
2008.7619804606	1247.25
2011.07487186442	1251
2013.38708090815	1280.25
2015.6986078919	1264.5
2018.00945311564	1262.75
2020.31961687923	1258
2022.62909948246	1274.5
2024.93790122498	1258.25
2027.24602240636	1279.25
2029.55346332604	1270.75
2031.86022428337	1274.25
2034.16630557761	1284
2036.47170750791	1277.5
2038.77643037331	1276.25
2041.08047447275	1261.25
2043.38384010509	1258.75
2045.68652756907	1266.5
2047.98853716335	1267.25
2050.28986918648	1258.75
2052.59052393692	1276.5
2054.89050171302	1268
2057.18980281306	1265
2059.4884275352	1256.25
2061.78637617753	1268
2064.08364903802	1274
2066.38024641457	1257.25
2068.67616860497	1282.75
2070.97141590694	1262.5
2073.26598861809	1249.25
2075.55988703595	1262
2077.85311145796	1249.25
2080.14566218145	1254
2082.43753950371	1264.5
2084.72874372188	1255.25
2087.01927513307	1283.75
2089.30913403428	1249.5
2091.59832072241	1256.75
2093.88683549429	1254.75
2096.17467864666	1258.5
2098.46185047619	1274
2100.74835127944	1264
2103.03418135292	1283
2105.31934099303	1267.75
2107.6038304961	1274.25
2109.88765015838	1273.25
2112.17080027602	1261.5
2114.45328114513	1266.75
2116.7350930617	1264.25
2119.01623632165	1285.25
2121.29671122085	1279.25
2123.57651805505	1275
2125.85565711996	1272
2128.13412871117	1275.75
2130.41193312424	1274.5
2132.68907065462	1259.25
2134.96554159771	1303
2137.24134624881	1279.75
2139.51648490317	1284.5
2141.79095785593	1268.5
2144.0647654022	1267
2146.33790783698	1281.75
2148.61038545524	1269.75
2150.88219855182	1297.5
2153.15334742154	1287.75
2155.42383235911	1272.75
2157.6936536592	1273.75
2159.9628116164	1282.25
2162.23130652522	1279.25
2164.49913868011	1269.75
2166.76630837544	1271
2169.03281590552	1270.5
2171.2986615646	1269
2173.56384564685	1276.25
2175.82836844637	1262.25
2178.0922302572	1243.75
2180.35543137332	1265.75
2182.61797208862	1268.5
2184.87985269695	1259.5
2187.14107349208	1257.75
2189.40163476773	1268.5
2191.66153681753	1275.25
2193.92077993507	1257
2196.17936441386	1260.75
2198.43729054735	1255.5
2200.69455862894	1261.75
2202.95116895194	1265.75
2205.20712180962	1258.5
2207.46241749519	1248.75
2209.71705630179	1264.25
2211.97103852248	1249
2214.2243644503	1251.5
2216.47703437819	1263.75
2218.72904859905	1268.75
2220.98040740571	1266.25
2223.23111109095	1250
2225.4811599475	1268.75
2227.73055426799	1243.75
2229.97929434504	1251.75
2232.22738047118	1253
2234.47481293889	1257.5
2236.72159204058	1259.5
2238.96771806864	1254.5
2241.21319131536	1257
2243.458012073	1243.75
2245.70218063374	1267.25
2247.94569728973	1246.25
2250.18856233304	1260
2252.4307760557	1255.5
2254.67233874967	1258
2256.91325070687	1257.5
2259.15351221915	1267.75
2261.39312357831	1266.5
2263.63208507611	1247
2265.87039700422	1262.75
2268.1080596543	1258
2270.34507331792	1245.5
2272.5814382866	1267.5
2274.81715485183	1252.5
2277.05222330502	1244
2279.28664393755	1254
2281.52041704072	1226.25
2283.75354290581	1243
2285.98602182401	1255.75
2288.21785408648	1241.25
2290.44903998434	1241
2292.67957980862	1258.75
2294.90947385033	1237
2297.1387224004	1251
2299.36732574975	1261.5
2301.59528418921	1258.75
2303.82259800958	1252.5
2306.04926750158	1244.25
2308.27529295593	1245
2310.50067466325	1245.75
2312.72541291412	1249.75
2314.9495079991	1259
2317.17296020866	1243.25
2319.39576983323	1236
2321.61793716322	1263.5
2323.83946248894	1250.5
2326.06034610069	1260
2328.28058828871	1249.25
2330.50018934317	1252.5
2332.7191495542	1247.75
2334.93746921192	1240.25
2337.15514860633	1253.5
2339.37218802743	1244.5
2341.58858776516	1250
2343.80434810941	1240.25
2346.01946935001	1235
2348.23395177675	1230.5
2350.44779567939	1246.75
2352.66100134759	1236.25
2354.87356907101	1232
2357.08549913925	1225
2359.29679184185	1239.5
2361.50744746829	1240
2363.71746630804	1220
2365.92684865048	1219
2368.13559478499	1222.25
2370.34370500083	1215.5
2372.55117958727	1229.25
2374.75801883352	1227.25
2376.96422302874	1215.25
2379.16979246202	1236.25
2381.37472742243	1226.25
2383.57902819898	1218.5
2385.78269508063	1194.75
2387.98572835629	1223
2390.18812831482	1203.75
2392.38989524505	1204
2394.59102943573	1200
2396.79153117559	1208.75
2398.9914007533	1217
2401.19063845748	1203.75
2403.38924457672	1206
2405.58721939951	1188.75
2407.78456321435	1184.5
2409.98127630966	1188
2412.17735897382	1196
2414.37281149517	1189
2416.56763416198	1190.25
2418.76182726249	1198.25
2420.95539108487	1188.25
2423.14832591726	1196.25
2425.34063204776	1186.5
2427.53230976439	1186.75
2429.72335935513	1193.5
2431.91378110795	1199.75
2434.10357531071	1192
2436.29274225125	1202.25
2438.48128221739	1184
2440.66919549683	1197.75
2442.8564823773	1201.75
2445.04314314641	1186.75
2447.22917809176	1190
2449.4145875009	1181.25
2451.59937166131	1185.75
2453.78353086044	1187.25
2455.96706538568	1190
2458.14997552436	1185.5
2460.33226156379	1185.25
2462.51392379119	1184.75
2464.69496249376	1166.25
2466.87537795862	1173.25
2469.05517047288	1176.25
2471.23434032357	1175.25
2473.41288779767	1197
2475.59081318211	1179
2477.76811676378	1184.5
2479.9447988295	1151
2482.12085966605	1166.5
2484.29629956016	1166.25
2486.4711187985	1160
2488.64531766769	1159.25
2490.8188964543	1163
2492.99185544484	1149.25
2495.16419492579	1158.75
2497.33591518353	1161.75
2499.50701650444	1157
2501.67749917482	1159.5
2503.84736348091	1151
2506.01660970891	1166.75
2508.18523814496	1175
2510.35324907514	1154.75
2512.52064278551	1159.5
2514.68741956201	1152.25
2516.85357969058	1173
2519.01912345709	1166.5
2521.18405114735	1156.25
2523.34836304711	1176
2525.51205944208	1157
2527.6751406179	1163.5
2529.83760686016	1160.5
2531.99945845439	1157.5
2534.16069568606	1167
2536.3213188406	1169.75
2538.48132820336	1159.75
2540.64072405965	1177
2542.79950669471	1164.75
2544.95767639373	1172.5
2547.11523344184	1165.25
2549.27217812411	1176.5
2551.42851072555	1163.25
2553.58423153111	1149
2555.73934082569	1162.25
2557.89383889412	1159.75
2560.04772602118	1146
2562.20100249158	1151.5
2564.35366858996	1149.25
2566.50572460093	1143.75
2568.65717080901	1160
2570.80800749867	1161.5
2572.95823495433	1166.25
2575.10785346031	1146
2577.25686330093	1171.5
2579.40526476038	1140.25
2581.55305812282	1150
2583.70024367237	1150.5
2585.84682169303	1147.5
2587.99279246879	1157.25
2590.13815628354	1162.25
2592.28291342112	1146.5
2594.42706416531	1151.75
2596.5706087998	1166.75
2598.71354760826	1160.75
2600.85588087425	1151.75
2602.99760888127	1148.5
2605.13873191278	1166.5
2607.27925025214	1141.5
2609.41916418269	1156.75
2611.55847398764	1157.25
2613.69717995017	1154.5
2615.83528235339	1162
2617.97278148034	1160
2620.10967761398	1154
2622.2459710372	1148.5
2624.38166203284	1154.5
2626.51675088365	1159
2628.65123787231	1149.25
2630.78512328145	1157.5
2632.9184073936	1145.75
2635.05109049124	1190.75
2637.18317285676	1154.75
2639.31465477248	1172.5
2641.44553652067	1176
2643.5758183835	1194.25
2645.70550064309	1190.75
2647.83458358144	1203.75
2649.96306748053	1220
2652.09095262223	1200.75
2654.21823928836	1219.25
2656.34492776063	1228.75
2658.47101832071	1204
2660.59651125015	1211.5
2662.72140683047	1212.5
2664.84570534309	1200.25
2666.96940706934	1184.5
2669.0925122905	1188.75
2671.21502128773	1203.75
2673.33693434215	1208.5
2675.45825173479	1206.75
2677.57897374658	1206.25
2679.69910065839	1197.5
2681.818632751	1202.25
2683.93757030511	1206
2686.05591360133	1207.25
2688.17366292021	1192.75
2690.29081854218	1205.75
2692.40738074762	1182.25
2694.52334981681	1201
2696.63872602995	1209
2698.75350966713	1229
2700.86770100841	1236.5
2702.98130033371	1268
2705.09430792289	1291
2707.20672405571	1322
2709.31854901185	1339
2711.42978307091	1341
2713.54042651238	1361.5
2715.65047961567	1422.5
2717.7599426601	1467.25
2719.86881592491	1512.5
2721.97709968924	1542.25
2724.08479423213	1508.5
2726.19189983255	1478
2728.29841676934	1407
2730.4043453213	1370.5
2732.5096857671	1353.75
2734.61443838532	1315.75
2736.71860345444	1324.25
2738.82218125286	1293.75
2740.92517205889	1260.75
2743.02757615072	1265.25
2745.12939380646	1243.5
2747.23062530411	1242.75
2749.33127092159	1247.5
2751.4313309367	1234.75
2753.53080562716	1232
2755.62969527058	1228
2757.72800014448	1213.75
2759.82572052625	1217.5
2761.92285669323	1200.25
2764.0194089226	1181.25
2766.11537749147	1206.25
2768.21076267686	1193
2770.30556475566	1193.25
2772.39978400465	1195.75
2774.49342070054	1193
2776.58647511991	1208.75
2778.67894753923	1211.75
2780.77083823487	1185
2782.8621474831	1198.75
2784.95287556007	1203
2787.04302274184	1210
2789.13258930433	1206.5
2791.22157552338	1217
2793.30998167471	1217
2795.39780803392	1239.25
2797.4850548765	1220
2799.57172247786	1232
2801.65781111324	1222.25
2803.74332105781	1236
2805.82825258661	1254
2807.91260597457	1267.5
2809.9963814965	1290.5
2812.07957942711	1289.5
2814.16220004096	1286.75
2816.24424361252	1334.5
2818.32571041614	1341
2820.40660072604	1387.75
2822.48691481631	1404.5
2824.56665296098	1457.25
2826.64581543388	1533.75
2828.72440250876	1692
2830.80241445925	1914.25
2832.87985155885	2210.25
2834.95671408093	2632.5
2837.03300229875	3082.25
2839.10871648544	3332
2841.18385691399	3281.5
2843.25842385729	2999.75
2845.33241758808	2631.5
2847.40583837898	2322
2849.4786865025	2109
2851.550962231	2011.75
2853.6226658367	1949
2855.69379759173	2031
2857.76435776806	2223.5
2859.83434663753	2594
2861.90376447184	3189.25
2863.97261154259	3815.5
2866.0408881212	4255.75
2868.10859447901	4366
2870.17573088717	4271.25
2872.24229761673	4251.5
2874.30829493859	4375.75
2876.37372312352	4689.75
2878.43858244215	5169.25
2880.50287316496	5526.5
2882.56659556231	5775.75
2884.62974990439	5719.25
2886.69233646129	5419.25
2888.75435550293	4982.25
2890.81580729909	4675.5
2892.87669211941	4334.25
2894.93701023339	4151.25
2896.99676191039	4106.25
2899.05594741961	4214.5
2901.1145670301	4414.25
2903.1726210108	4612.75
2905.23010963045	4799.5
2907.28703315768	4674
2909.34339186096	4327.75
2911.39918600861	3956.5
2913.45441586879	3745
2915.50908170952	3614.5
2917.56318379867	3641.5
2919.61672240395	3707.5
2921.66969779291	3738.75
2923.72211023295	3773
2925.77395999134	3726
2927.82524733515	3515.5
2929.87597253132	3247
2931.92613584663	2939.25
2933.97573754769	2612.25
2936.02477790097	2431.25
2938.07325717276	2271.75
2940.1211756292	2262.25
2942.16853353626	2302
2944.21533115976	2525.75
2946.26156876536	2842.75
2948.30724661853	3363.25
2950.3523649846	3798
2952.39692412872	4022.75
2954.44092431587	4085.5
2956.48436581089	4295.75
2958.52724887843	4734.25
2960.56957378296	5042
2962.6113407888	4863.5
2964.65255016011	4443.25
2966.69320216083	3994.25
2968.73329705479	3451.25
2970.77283510559	3029
2972.81181657671	2605.5
2974.8502417314	2261.25
2976.88811083279	2006
2978.92542414378	1838
2980.96218192713	1710.25
2982.99838444541	1625.5
2985.034031961	1562
2987.06912473612	1476.5
2989.1036630328	1459
2991.13764711288	1439.5
2993.17107723804	1419.75
2995.20395366974	1390
2997.23627666931	1372.25
2999.26804649782	1369.5
3001.29926341624	1359
3003.32992768528	1344.25
3005.3600395655	1337.75
3007.38959931726	1326.25
3009.41860720076	1321
3011.44706347595	1335.25
3013.47496840263	1314
3015.50232224041	1310
3017.5291252487	1312.25
3019.5553776867	1279.75
3021.58107981344	1310.25
3023.60623188773	1289
3025.63083416822	1302
3027.65488691331	1300.5
3029.67839038125	1305.25
3031.70134483007	1279.5
3033.72375051759	1280
3035.74560770144	1294.25
3037.76691663907	1266.75
3039.78767758768	1298.75
3041.80789080431	1269.25
3043.82755654577	1277.25
3045.84667506867	1267
3047.8652466294	1276.5
3049.88327148418	1278
3051.90074988899	1274.25
3053.91768209961	1263.25
3055.9340683716	1281.25
3057.94990896033	1268.5
3059.96520412095	1286.5
3061.97995410838	1269.5
3063.99415917734	1259.75
3066.00781958234	1264.75
3068.02093557766	1262.75
3070.03350741738	1258.75
3072.04553535535	1269.75
3074.05701964521	1254.25
3076.06796054036	1255
3078.078358294	1258
3080.08821315912	1258.5
3082.09752538846	1270.5
3084.10629523454	1255.25
3086.11452294967	1266.75
3088.12220878592	1249.75
3090.12935299515	1283.25
3092.13595582898	1266.5
3094.1420175388	1256.75
3096.14753837579	1257
3098.15251859088	1265.25
3100.15695843477	1269.5
3102.16085815793	1285.5
3104.16421801061	1264.25
3106.16703824282	1266.25
3108.16931910432	1266.25
3110.17106084464	1258.5
3112.17226371308	1274
3114.17292795872	1269.75
3116.17305383034	1276
3118.17264157657	1264.75
3120.17169144571	1275.75
3122.17020368587	1274.25
3124.16817854492	1281.5
3126.16561627044	1279
3128.16251710982	1299.75
3130.15888131017	1296
3132.15470911837	1298.75
3134.15000078104	1279.5
3136.14475654455	1323.5
3138.13897665502	1309
3140.13266135835	1289.75
3142.12581090014	1307
3144.11842552577	1294.5
3146.11050548036	1303.5
3148.10205100875	1317
3150.09306235557	1300
3152.08353976515	1290.75
3154.07348348158	1287.75
3156.06289374869	1305.25
3158.05177081006	1302.25
3160.04011490899	1298.75
3162.02792628852	1313
3164.01520519145	1281.5
3166.00195186029	1290.75
3167.98816653728	1283.75
3169.97384946442	1282.75
3171.95900088344	1299.75
3173.94362103577	1297.5
3175.92771016259	1298.5
3177.91126850484	1320.75
3179.89429630312	1281.75
3181.87679379782	1301.75
3183.85876122903	1324.5
3185.84019883657	1309.5
3187.82110685997	1312
3189.80148553851	1302.5
3191.78133511116	1321
3193.76065581664	1325
3195.73944789337	1318
3197.7177115795	1318.75
3199.6954471129	1313
3201.67265473114	1315.25
3203.64933467153	1301.5
3205.62548717107	1316.5
3207.60111246648	1314.5
3209.57621079421	1312
3211.55078239041	1320.25
3213.52482749093	1327.5
3215.49834633133	1323.5
3217.4713391469	1321.75
3219.44380617262	1298.5
3221.41574764317	1314.75
3223.38716379296	1314
3225.35805485607	1300.25
3227.32842106631	1302.25
3229.29826265718	1320
3231.26757986187	1306.5
3233.2363729133	1321.5
3235.20464204405	1304
3237.17238748643	1301.5
3239.13960947243	1305
3241.10630823374	1298.5
3243.07248400174	1316.25
3245.03813700748	1321
3247.00326748177	1296.5
3248.96787565503	1304.25
3250.93196175742	1301.25
3252.89552601877	1292.25
3254.8585686686	1300.25
3256.82108993612	1290.25
3258.78309005022	1298.5
3260.74456923948	1303.75
3262.70552773215	1289.5
3264.66596575617	1303.75
3266.62588353916	1301.5
3268.58528130843	1305.5
3270.54415929094	1286.75
3272.50251771336	1288.5
3274.46035680201	1308.25
3276.4176767829	1300.75
3278.37447788171	1304.5
3280.33076032379	1320.75
3282.28652433416	1283.25
3284.24177013751	1299.75
3286.1964979582	1294
3288.15070802027	1300.25
3290.10440054741	1277.5
3292.05757576298	1285.25
3294.01023389001	1296
3295.96237515119	1313.5
3297.91399976887	1287
3299.86510796506	1282
3301.81569996142	1293
3303.76577597932	1295.75
3305.7153362397	1295.5
3307.66438096324	1288.5
3309.61291037024	1285
3311.56092468064	1293.75
3313.50842411404	1271.75
3315.45540888971	1285.25
3317.40187922656	1287.5
3319.34783534315	1310.25
3321.29327745768	1287.25
3323.23820578801	1289
3325.18262055164	1295
3327.1265219657	1271.5
3329.06991024699	1298.75
3331.01278561194	1282.5
3332.95514827662	1283
3334.89699845674	1300
3336.83833636766	1278.75
3338.77916222434	1289
3340.71947624143	1295.25
3342.65927863317	1283
3344.59856961346	1283.5
3346.53734939584	1285.75
3348.47561819344	1283
3350.41337621906	1274.5
3352.35062368513	1298.25
3354.28736080368	1293.25
3356.22358778637	1284.25
3358.15930484452	1283.5
3360.09451218904	1299
3362.02921003047	1288.75
3363.96339857898	1275
3365.89707804436	1293.25
3367.83024863602	1256
3369.76291056299	1288
3371.69506403389	1279.25
3373.62670925699	1271.25
3375.55784644016	1284
3377.4884757909	1282
3379.41859751629	1270.5
3381.34821182305	1280.5
3383.27731891749	1283.25
3385.20591900555	1273.5
3387.13401229276	1277.25
3389.06159898426	1278.25
3390.9886792848	1285.5
3392.91525339872	1275.75
3394.84132152998	1278.5
3396.76688388213	1270
3398.69194065833	1265.75
3400.61649206133	1268.5
3402.54053829348	1287.75
3404.46407955672	1270
3406.3871160526	1260.25
3408.30964798225	1278
3410.23167554639	1280.5
3412.15319894535	1268.5
3414.07421837904	1270.5
3415.99473404695	1285.25
3417.91474614817	1272.75
3419.83425488136	1285.75
3421.75326044479	1284.5
3423.67176303631	1287
3425.58976285332	1260.5
3427.50726009282	1285.5
3429.42425495143	1264.25
3431.34074762528	1274.25
3433.25673831012	1288
3435.17222720127	1279.25
3437.08721449362	1273.75
3439.00170038164	1262.25
3440.91568505936	1286.75
3442.82916872039	1279
3444.74215155791	1288.75
3446.65463376468	1275.25
3448.566615533	1272
3450.47809705476	1269.5
3452.3890785214	1258.75
3454.29956012393	1241.75
3456.20954205293	1251.5
3458.11902449853	1264.5
3460.02800765041	1256.5
3461.93649169784	1255.75
3463.84447682962	1241
3465.75196323412	1258
3467.65895109925	1244.25
3469.56544061249	1259.75
3471.47143196086	1244.75
3473.37692533093	1250.75
3475.28192090884	1251.75
3477.18641888026	1254.75
3479.09041943039	1250.5
3480.99392274402	1234.75
3482.89692900545	1240.5
3484.79943839853	1246.25
3486.70145110666	1253.75
3488.60296731277	1216
3490.50398719933	1250.25
3492.40451094836	1235.5
3494.30453874141	1239.75
3496.20407075956	1230.5
3498.10310718342	1252.25
3500.00164819315	1233.75