201.866871357051	1241.75
204.754250281454	1247
207.640596790938	1241
210.525911876299	1247.5
213.410196525689	1247.75
216.293451724508	1239.5
219.175678455485	1237
222.056877698662	1222.25
224.937050431388	1228.25
227.816197628363	1235
230.694320261602	1247.25
233.571419300504	1213
236.447495711764	1231.5
239.322550459507	1225.25
242.196584505182	1230
245.069598807626	1221
247.941594323078	1216
250.812572005154	1239
253.682532804884	1241.75
256.551477670699	1228
259.419407548456	1230
262.286323381439	1247.75
265.152226110364	1228.75
268.017116673389	1233.25
270.880996006115	1225.5
273.743865041622	1221.25
276.605724710436	1218.75
279.466575940562	1227
282.326419657496	1240.25
285.1852567842	1209.5
288.043088241157	1225.5
290.899914946349	1218
293.75573781526	1206.75
296.610557760898	1227.5
299.464375693817	1223.25
302.317192522078	1220.75
305.169009151297	1216
308.019826484655	1206.25
310.86964542287	1240.25
313.718466864233	1220.25
316.566291704614	1215.25
319.413120837457	1202
322.258955153804	1224.5
325.103795542291	1221.5
327.947642889128	1224.75
330.79049807819	1214.25
333.632361990927	1211.75
336.473235506444	1212.5
339.31311950145	1215.5
342.152014850322	1202.5
344.989922425062	1216.75
347.826843095354	1217.25
350.662777728528	1211.5
353.497727189577	1227
356.331692341195	1209.5
359.164674043732	1234.75
361.996673155267	1247
364.827690531536	1247.75
367.65772702602	1220
370.486783489887	1244
373.314860772047	1238.5
376.14195971912	1256.75
378.968081175466	1234
381.793225983212	1236.75
384.617394982201	1270.75
387.44058901005	1245.5
390.262808902131	1250.75
393.08405549161	1256.5
395.904329609395	1274
398.723632084213	1274.75
401.541963742569	1278
404.359325408779	1263.5
407.175717904938	1286
409.991142050982	1286.75
412.805598664665	1307.25
415.619088561551	1283.5
418.43161255505	1287.75
421.243171456415	1280
424.053766074758	1289
426.863397217017	1299.5
429.672065688024	1271.5
432.479772290455	1292.25
435.286517824879	1303.5
438.092303089736	1317
440.897128881359	1302.25
443.70099599399	1303
446.503905219761	1298
449.305857348711	1278.5
452.106853168796	1288
454.906893465919	1286.5
457.705979023885	1287
460.504110624439	1288.5
463.3012890473	1271.75
466.097515070087	1300.25
468.892789468424	1286.5
471.687113015869	1260.5
474.48048648395	1292
477.272910642198	1277.5
480.064386258109	1282.75
482.854914097159	1283
485.644494922839	1291.5
488.433129496636	1285.75
491.220818578047	1292
494.007562924584	1298
496.793363291785	1287.75
499.578220433217	1297.75
502.362135100473	1311.75
505.145108043209	1292.25
507.927140009098	1304.25
510.708231743909	1311.25
513.488383991433	1317.25
516.267597493556	1290.5
519.04587299022	1311.5
521.82321121946	1301.75
524.599612917398	1314
527.375078818233	1302.25
530.149609654287	1310
532.923206155967	1300.25
535.695869051804	1308.5
538.467599068448	1310
541.238396930665	1314
544.008263361364	1298.5
546.777199081578	1314.75
549.545204810493	1294
552.312281265436	1310
555.078429161898	1303.5
557.843649213533	1307
560.607942132156	1313.75
563.371308627753	1312
566.133749408495	1319.5
568.895265180756	1312.5
571.655856649064	1323.5
574.415524516189	1314.25
577.174269483075	1317.25
579.932092248884	1318.5
582.688993510994	1318.25
585.444973965023	1328.5
588.200034304795	1325
590.95417522237	1330
593.70739740807	1345.25
596.459701550433	1326.25
599.21108833628	1326.5
601.961558450668	1326.75
604.711112576933	1335.25
607.459751396673	1338.5
610.207475589748	1331.5
612.954285834338	1355.5
615.700182806879	1357.75
618.445167182101	1390.75
621.189239633055	1414
623.932400831087	1366.75
626.674651445839	1345.75
629.415992145303	1334
632.156423595745	1303.75
634.895946461813	1321.5
637.634561406449	1299
640.37226909096	1297.75
643.109070174978	1289.25
645.844965316508	1316.5
648.579955171888	1316.75
651.314040395846	1307.5
654.047221641456	1300.25
656.779499560176	1311.75
659.510874801828	1315
662.241348014642	1314
664.97091984524	1288
667.699590938606	1322.25
670.427361938164	1313.25
673.15423348573	1305
675.880206221526	1305
678.605280784206	1304.25
681.329457810829	1306.75
684.05273793692	1329
686.775121796389	1306
689.49661002163	1308.75
692.217203243454	1307.5
694.936902091144	1304.25
697.655707192425	1318.75
700.373619173493	1305.25
703.09063865901	1321.75
705.806766272093	1301.75
708.522002634378	1300
711.236348365946	1309
713.94980408538	1303.5
716.662370409762	1299.75
719.374047954676	1303
722.08483733419	1298.25
724.794739160909	1311.75
727.503754045949	1308.75
730.21188259892	1315.25
732.919125427998	1330.5
735.625483139855	1323.5
738.330956339723	1333.5
741.035545631374	1362
743.739251617106	1364.5
746.44207489779	1367
749.144016072852	1381.5
751.845075740272	1369.75
754.545254496603	1359.25
757.244552936976	1368.25
759.94297165508	1359.5
762.640511243222	1356.5
765.337172292249	1354.5
768.032955391649	1357.75
770.727861129482	1367.25
773.421890092413	1355
776.11504286572	1350
778.807320033298	1347.25
781.49872217765	1357.5
784.18924987991	1335.25
786.87890371984	1336.25
789.567684275826	1333.25
792.255592124908	1344.75
794.94262784276	1350.75
797.628792003703	1331.75
800.314085180715	1326
802.998507945427	1323.5
805.682060868145	1325.5
808.364744517821	1332.75
811.046559462105	1352
813.727506267311	1344.25
816.407585498422	1339
819.08679771913	1347.25
821.765143491822	1363.5
824.442623377563	1328.25
827.119237936127	1358.75
829.794987726003	1329
832.469873304377	1332
835.143895227167	1336.75
837.817054048985	1335.75
840.489350323205	1357
843.160784601892	1358.75
845.831357435894	1334
848.501069374739	1339
851.169920966753	1344.5
853.837912758987	1351.5
856.505045297232	1354
859.171319126071	1342
861.836734788823	1326
864.501292827579	1341.5
867.164993783208	1332.75
869.827838195361	1331.75
872.489826602454	1340.5
875.150959541701	1339.25
877.811237549104	1329
880.470661159456	1337.75
883.129230906357	1321.5
885.786947322205	1310.5
888.443810938206	1323
891.099822284385	1330.5
893.754981889586	1339
896.409290281452	1316
899.062747986485	1332
901.715355529999	1343
904.367113436154	1321.5
907.01802222793	1341
909.668082427172	1352.5
912.317294554574	1332.25
914.965659129659	1341.5
917.613176670835	1334
920.259847695364	1338.25
922.90567271936	1328
925.550652257825	1330.5
928.194786824621	1321.5
930.838076932512	1336.25
933.480523093109	1336.75
936.122125816953	1333.25
938.762885613447	1330.5
941.402802990899	1338.25
944.041878456523	1362
946.680112516428	1350.75
949.31750567563	1333.5
951.954058438081	1339.5
954.589771306633	1344.5
957.224644783048	1350
959.858679368044	1337.75
962.491875561238	1334
965.12423386121	1363.75
967.75575476545	1342.5
970.386438770423	1361.75
973.016286371501	1338.25
975.645298063046	1357.25
978.273474338355	1376
980.900815689674	1376
983.527322608243	1385.5
986.152995584245	1412.5
988.777835106834	1454.75
991.401841664148	1484
994.025015743307	1556.25
996.647357830407	1692.5
999.268868410534	1903.25
1001.88954796777	1979.75
1004.50939698518	1820.25
1007.12841594484	1618.25
1009.74660532783	1474
1012.36396561423	1413.5
1014.98049728314	1365.75
1017.59620081267	1381.25
1020.21107667995	1372.75
1022.82512536112	1415.75
1025.43834733138	1446.75
1028.05074306493	1520.25
1030.66231303501	1556.5
1033.27305771392	1530
1035.88297757299	1497.75
1038.49207308257	1434
1041.10034471211	1418.25
1043.70779293008	1380.75
1046.31441820402	1369.75
1048.92022100052	1367.5
1051.52520178525	1354
1054.12936102295	1379.5
1056.73269917742	1364.25
1059.33521671154	1362.25
1061.93691408729	1385
1064.53779176571	1371.5
1067.13785020694	1363
1069.73708987022	1370
1072.33551121386	1377.5
1074.93311469528	1384.75
1077.52990077103	1386.25
1080.12586989674	1373
1082.72102252714	1376.5
1085.31535911611	1361.5
1087.90888011663	1370.5
1090.50158598078	1375
1093.09347715979	1388.5
1095.68455410403	1378
1098.27481726296	1383.75
1100.86426708523	1377.5
1103.45290401857	1376.5
1106.04072850991	1384.5
1108.6277410053	1370.25
1111.21394194993	1365.5
1113.79933178816	1341.5
1116.3839109635	1345
1118.96767991862	1354.25
1121.55063909539	1342.5
1124.13278893477	1349.5
1126.71412987696	1352
1129.29466236132	1354.5
1131.87438682637	1346.25
1134.45330370982	1351
1137.03141344858	1338
1139.60871647872	1373
1142.18521323554	1354.25
1144.7609041535	1363
1147.33578966629	1366.5
1149.90987020676	1376.5
1152.48314620702	1391.25
1155.05561809835	1406.25
1157.62728631125	1405.25
1160.19815127545	1430
1162.76821341988	1391.25
1165.33747317271	1388
1167.90593096133	1385.5
1170.47358721235	1386.5
1173.04044235163	1395.25
1175.60649680425	1406.25
1178.17175099454	1415.75
1180.73620534607	1446
1183.29986028165	1452.5
1185.86271622336	1447.75
1188.42477359249	1452.5
1190.98603280964	1469
1193.54649429462	1468.5
1196.10615846653	1475.5
1198.66502574372	1486.5
1201.22309654385	1481
1203.78037128378	1446.75
1206.33685037971	1436.75
1208.89253424709	1426.25
1211.44742330063	1390.5
1214.00151795438	1397.75
1216.55481862163	1381.5
1219.10732571497	1374
1221.65903964631	1369
1224.20996082683	1367.5
1226.760089667	1374.25
1229.30942657664	1380.5
1231.85797196483	1392
1234.40572623998	1366
1236.95268980981	1366.75
1239.49886308136	1371.25
1242.04424646098	1384.25
1244.58884035435	1373.5
1247.13264516647	1382
1249.67566130166	1384.75
1252.21788916358	1387.25
1254.75932915524	1382
1257.29998167896	1381
1259.83984713639	1388.25
1262.37892592857	1396
1264.91721845586	1388.5
1267.45472511795	1396.75
1269.9914463139	1398.75
1272.52738244213	1409.25
1275.0625339004	1404.75
1277.59690108587	1424
1280.130484395	1399.5
1282.66328422367	1404
1285.19530096712	1425.5
1287.72653501993	1406
1290.25698677608	1429
1292.78665662894	1432.25
1295.31554497125	1445.5
1297.8436521951	1443.25
1300.37097869203	1448.75
1302.89752485292	1443.75
1305.42329106805	1454.5
1307.94827772713	1453
1310.47248521921	1437.25
1312.99591393279	1437
1315.51856425575	1447.75
1318.04043657536	1449
1320.56153127836	1444.25
1323.08184875083	1460
1325.6013893783	1422.75
1328.12015354572	1471
1330.63814163744	1449
1333.15535403727	1467
1335.67179112839	1453
1338.18745329347	1449
1340.70234091454	1451.75
1343.21645437314	1436
1345.72979405019	1449.5
1348.24236032607	1450
1350.75415358059	1452.5
1353.26517419303	1448.25
1355.7754225421	1447.25
1358.28489900594	1463.25
1360.79360396218	1455.5
1363.30153778787	1452.25
1365.80870085955	1458.75
1368.31509355319	1475
1370.82071624424	1464.75
1373.32556930762	1434.5
1375.8296531177	1437.25
1378.33296804832	1438
1380.83551447282	1448
1383.33729276399	1440.25
1385.83830329408	1419.5
1388.33854643489	1418.75
1390.83802255762	1415.75
1393.33673203301	1413.25
1395.83467523128	1426
1398.33185252211	1402
1400.82826427471	1412.5
1403.32391085777	1402.75
1405.81879263947	1417.5
1408.31290998752	1425.25
1410.80626326908	1395.75
1413.29885285087	1414
1415.79067909909	1422
1418.28174237944	1408.5
1420.77204305717	1413.75
1423.26158149702	1422.5
1425.75035806323	1424.25
1428.2383731196	1421.5
1430.72562702942	1452
1433.21212015554	1444.75
1435.69785286028	1471.25
1438.18282550555	1469.25
1440.66703845275	1474.75
1443.15049206284	1508
1445.6331866963	1514.25
1448.11512271316	1514
1450.59630047298	1526.5
1453.07672033486	1533
1455.55638265748	1490.25
1458.03528779902	1485.5
1460.51343611725	1483.75
1462.99082796946	1459.5
1465.46746371252	1469
1467.94334370285	1477
1470.41846829642	1448.25
1472.89283784878	1473.5
1475.36645271503	1458
1477.83931324983	1454.5
1480.31141980743	1464.5
1482.78277274164	1446.75
1485.25337240583	1456.75
1487.72321915297	1440.5
1490.19231333557	1448.25
1492.66065530578	1463.25
1495.12824541525	1455.25
1497.5950840153	1462.25
1500.06117145678	1442.75
1502.52650809014	1474
1504.99109426543	1448.75
1507.45493033227	1433.5
1509.91801663992	1459.25
1512.38035353717	1456
1514.84194137248	1460
1517.30278049386	1446.5
1519.76287124894	1455.5
1522.22221398497	1468.75
1524.68080904876	1461
1527.13865678681	1450
1529.59575754514	1466.5
1532.05211166945	1464.25
1534.50771950503	1483.25
1536.96258139678	1490.5
1539.41669768924	1481.5
1541.87006872656	1489.75
1544.32269485252	1490
1546.77457641051	1481
1549.22571374357	1495
1551.67610719434	1503.5
1554.12575710513	1529.5
1556.57466381785	1499.25
1559.02282767408	1496.5
1561.47024901499	1519.75
1563.91692818144	1516
1566.3628655139	1528
1568.80806135249	1544
1571.252516037	1532.5
1573.6962299068	1559.25
1576.13920330099	1539
1578.58143655828	1577.25
1581.02293001704	1603
1583.46368401528	1595.75
1585.90369889071	1596.5
1588.34297498065	1586
1590.7815126221	1556.5
1593.21931215173	1620
1595.65637390588	1630.5
1598.09269822053	1676.25
1600.52828543135	1740
1602.96313587367	1742.75
1605.3972498825	1707.75
1607.83062779252	1653.25
1610.26326993808	1631.25
1612.69517665322	1591
1615.12634827165	1581.25
1617.55678512676	1577.75
1619.98648755163	1541.5
1622.41545587902	1548.75
1624.84369044138	1538.25
1627.27119157085	1561.75
1629.69795959924	1555.5
1632.12399485808	1575.5
1634.54929767859	1564
1636.97386839165	1589.5
1639.39770732789	1564.25
1641.8208148176	1591.5
1644.24319119078	1590
1646.66483677715	1569
1649.0857519061	1578
1651.50593690677	1571
1653.92539210795	1603
1656.3441178382	1607.5
1658.76211442575	1608.25
1661.17938219855	1631.25
1663.59592148428	1624
1666.01173261032	1660.5
1668.42681590377	1664.25
1670.84117169145	1629.5
1673.25480029991	1636.75
1675.66770205541	1600
1678.07987728393	1613.5
1680.49132631119	1619.5
1682.90204946263	1611.75
1685.31204706342	1613.25
1687.72131943846	1609
1690.1298669124	1644
1692.53768980957	1617.5
1694.94478845411	1629
1697.35116316982	1613.75
1699.75681428031	1631
1702.16174210887	1619
1704.56594697858	1641
1706.96942921222	1641
1709.37218913235	1640.25
1711.77422706125	1622
1714.17554332098	1635.75
1716.5761382333	1645
1718.97601211977	1625.5
1721.37516530169	1645.25
1723.77359810006	1656.25
1726.17131083572	1635
1728.56830382922	1639
1730.96457740087	1623
1733.36013187075	1629.25
1735.75496755868	1652.75
1738.14908478428	1652.75
1740.54248386689	1647.25
1742.93516512565	1651.25
1745.32712887946	1650.75
1747.71837544697	1669.5
1750.10890514662	1664.25
1752.49871829661	1656
1754.88781521492	1661.75
1757.27619621929	1656.75
1759.66386162726	1662.75
1762.05081175612	1679.5
1764.43704692297	1671
1766.82256744465	1657
1769.20737363782	1675
1771.59146581887	1671.75
1773.97484430405	1703
1776.35750940932	1689.25
1778.73946145048	1702.75
1781.12070074309	1688.5
1783.50122760249	1698.75
1785.88104234385	1712.5
1788.26014528209	1711.25
1790.63853673196	1730.25
1793.01621700796	1717.25
1795.39318642443	1725
1797.76944529549	1758.5
1800.14499393503	1724.25
1802.51983265681	1729
1804.8939617743	1747
1807.26738160085	1738.5
1809.64009244957	1757.5
1812.01209463339	1716.5
1814.38338846504	1764.75
1816.75397425706	1767.75
1819.12385232181	1763.75
1821.49302297142	1764.25
1823.86148651789	1760
1826.22924327299	1763.25
1828.59629354831	1777.5
1830.96263765526	1741.75
1833.32827590507	1759.75
1835.69320860877	1781.25
1838.05743607724	1786.75
1840.42095862113	1767.75
1842.78377655097	1786.75
1845.14589017707	1772.75
1847.50729980956	1787.25
1849.86800575843	1799.5
1852.22800833346	1779.5
1854.58730784427	1803.25
1856.94590460032	1808.25
1859.30379891087	1814.5
1861.66099108503	1807.25
1864.01748143175	1823.75
1866.37327025978	1840.5
1868.72835787773	1836.5
1871.08274459403	1844.25
1873.43643071697	1842.5
1875.78941655464	1864.5
1878.14170241498	1845.25
1880.4932886058	1879.5
1882.84417543469	1885.5
1885.19436320915	1886.25
1887.54385223646	1873.25
1889.89264282378	1866
1892.24073527809	1901.5
1894.58812990625	1912.5
1896.93482701493	1923
1899.28082691067	1941
1901.62612989984	1936.5
1903.97073628868	1942.25
1906.31464638326	1946.25
1908.6578604895	1951.5
1911.00037891321	1966
1913.34220196	1963.5
1915.68332993537	1971
1918.02376314468	1985.75
1920.36350189311	1989.5
1922.70254648573	1994
1925.04089722744	1988.5
1927.37855442303	1979.5
1929.71551837715	1987
1932.05178939426	2004
1934.38736777876	1989.5
1936.72225383484	1985.75
1939.0564478666	2035
1941.38995017799	2014.25
1943.72276107283	2028.75
1946.05488085479	2024.5
1948.38630982744	2015.75
1950.71704829419	2035
1953.04709655832	2054.25
1955.376454923	2048.5
1957.70512369126	2057.25
1960.03310316599	2047.75
1962.36039364999	2019
1964.68699544589	2040
1967.01290885622	2076.25
1969.33813418338	2078.75
1971.66267172965	2069.75
1973.98652179718	2079.25
1976.309684688	2098
1978.63216070402	2088
1980.95395014705	2132
1983.27505331873	2126.75
1985.59547052063	2118.25
1987.9152020542	2109.25
1990.23424822074	2120.25
1992.55260932146	2144.25
1994.87028565746	2160.75
1997.18727752968	2168
1999.503585239	2185.75
2001.81920908618	2157.5
2004.13414937184	2175.25
2006.44840639651	2188.25
2008.7619804606	2203.75
2011.07487186442	2239.25
2013.38708090815	2228.5
2015.6986078919	2247
2018.00945311564	2236.5
2020.31961687923	2250
2022.62909948246	2267.5
2024.93790122498	2257.75
2027.24602240636	2292.5
2029.55346332604	2299.5
2031.86022428337	2284.5
2034.16630557761	2323.75
2036.47170750791	2302.5
2038.77643037331	2306.5
2041.08047447275	2339.5
2043.38384010509	2342.5
2045.68652756907	2367.5
2047.98853716335	2339.75
2050.28986918648	2359.25
2052.59052393692	2359.5
2054.89050171302	2350.25
2057.18980281306	2358.75
2059.4884275352	2386.5
2061.78637617753	2385.75
2064.08364903802	2417.25
2066.38024641457	2407.25
2068.67616860497	2389
2070.97141590694	2403.25
2073.26598861809	2411.75
2075.55988703595	2420.25
2077.85311145796	2424.75
2080.14566218145	2426.75
2082.43753950371	2439.5
2084.72874372188	2450.75
2087.01927513307	2420.25
2089.30913403428	2472.25
2091.59832072241	2471
2093.88683549429	2452
2096.17467864666	2487.25
2098.46185047619	2505.75
2100.74835127944	2489.25
2103.03418135292	2515
2105.31934099303	2489
2107.6038304961	2536.5
2109.88765015838	2552
2112.17080027602	2541.5
2114.45328114513	2573.25
2116.7350930617	2595.5
2119.01623632165	2588.5
2121.29671122085	2558.25
2123.57651805505	2551.25
2125.85565711996	2596.75
2128.13412871117	2595
2130.41193312424	2615.5
2132.68907065462	2617
2134.96554159771	2666.25
2137.24134624881	2663.5
2139.51648490317	2657.5
2141.79095785593	2642.75
2144.0647654022	2693.75
2146.33790783698	2683
2148.61038545524	2678
2150.88219855182	2707
2153.15334742154	2710
2155.42383235911	2735.25
2157.6936536592	2768
2159.9628116164	2734.5
2162.23130652522	2755
2164.49913868011	2790.5
2166.76630837544	2798
2169.03281590552	2829.5
2171.2986615646	2817.75
2173.56384564685	2819.25
2175.82836844637	2816
2178.0922302572	2841.75
2180.35543137332	2830.75
2182.61797208862	2835.75
2184.87985269695	2825.75
2187.14107349208	2866
2189.40163476773	2866
2191.66153681753	2864.75
2193.92077993507	2902
2196.17936441386	2888.25
2198.43729054735	2874
2200.69455862894	2880.5
2202.95116895194	2901
2205.20712180962	2933
2207.46241749519	2924.25
2209.71705630179	2932.75
2211.97103852248	2952.75
2214.2243644503	2947.5
2216.47703437819	2996.25
2218.72904859905	2960.5
2220.98040740571	2981.25
2223.23111109095	3035
2225.4811599475	3003
2227.73055426799	3069
2229.97929434504	3138.75
2232.22738047118	3256.25
2234.47481293889	3349.5
2236.72159204058	3430.25
2238.96771806864	3389
2241.21319131536	3321.75
2243.458012073	3224.25
2245.70218063374	3226.25
2247.94569728973	3177.5
2250.18856233304	3139.25
2252.4307760557	3105
2254.67233874967	3116
2256.91325070687	3105
2259.15351221915	3125.5
2261.39312357831	3124.5
2263.63208507611	3100.75
2265.87039700422	3134.5
2268.1080596543	3150.75
2270.34507331792	3142
2272.5814382866	3149.5
2274.81715485183	3189.5
2277.05222330502	3206
2279.28664393755	3186
2281.52041704072	3210.5
2283.75354290581	3230.25
2285.98602182401	3215.75
2288.21785408648	3221.5
2290.44903998434	3234.5
2292.67957980862	3255
2294.90947385033	3237
2297.1387224004	3269.25
2299.36732574975	3305.75
2301.59528418921	3305.5
2303.82259800958	3300.75
2306.04926750158	3289.75
2308.27529295593	3295.25
2310.50067466325	3295.25
2312.72541291412	3319.75
2314.9495079991	3340
2317.17296020866	3315.5
2319.39576983323	3339.25
2321.61793716322	3346.5
2323.83946248894	3334
2326.06034610069	3371.75
2328.28058828871	3370.5
2330.50018934317	3423
2332.7191495542	3381.25
2334.93746921192	3408
2337.15514860633	3406.25
2339.37218802743	3449.5
2341.58858776516	3415.5
2343.80434810941	3422
2346.01946935001	3400.25
2348.23395177675	3406.5
2350.44779567939	3434
2352.66100134759	3473.5
2354.87356907101	3466.75
2357.08549913925	3472.75
2359.29679184185	3453
2361.50744746829	3483.25
2363.71746630804	3439.25
2365.92684865048	3480.75
2368.13559478499	3484
2370.34370500083	3533.25
2372.55117958727	3454.5
2374.75801883352	3496.5
2376.96422302874	3477.5
2379.16979246202	3475
2381.37472742243	3500
2383.57902819898	3495.25
2385.78269508063	3518.5
2387.98572835629	3479.5
2390.18812831482	3528
2392.38989524505	3497.5
2394.59102943573	3492
2396.79153117559	3559
2398.9914007533	3547.25
2401.19063845748	3558
2403.38924457672	3509.25
2405.58721939951	3544.5
2407.78456321435	3561.25
2409.98127630966	3538.5
2412.17735897382	3589
2414.37281149517	3560.5
2416.56763416198	3573
2418.76182726249	3614.25
2420.95539108487	3568.25
2423.14832591726	3592
2425.34063204776	3586.5
2427.53230976439	3587.25
2429.72335935513	3602
2431.91378110795	3607
2434.10357531071	3597
2436.29274225125	3603.5
2438.48128221739	3590.5
2440.66919549683	3577.75
2442.8564823773	3635.5
2445.04314314641	3626
2447.22917809176	3635.75
2449.4145875009	3616
2451.59937166131	3647
2453.78353086044	3665.75
2455.96706538568	3662.5
2458.14997552436	3662.75
2460.33226156379	3630.75
2462.51392379119	3630.75
2464.69496249376	3605
2466.87537795862	3660.5
2469.05517047288	3613.25
2471.23434032357	3623.25
2473.41288779767	3641
2475.59081318211	3629.75
2477.76811676378	3639.75
2479.9447988295	3628.25
2482.12085966605	3633.25
2484.29629956016	3668.5
2486.4711187985	3702.25
2488.64531766769	3696.25
2490.8188964543	3689.25
2492.99185544484	3675.5
2495.16419492579	3655
2497.33591518353	3671.5
2499.50701650444	3711.25
2501.67749917482	3732.75
2503.84736348091	3714.25
2506.01660970891	3699
2508.18523814496	3718.25
2510.35324907514	3742.25
2512.52064278551	3748.75
2514.68741956201	3760.75
2516.85357969058	3801.25
2519.01912345709	3774.75
2521.18405114735	3744.5
2523.34836304711	3763.25
2525.51205944208	3761.25
2527.6751406179	3784.5
2529.83760686016	3789.5
2531.99945845439	3789.75
2534.16069568606	3789
2536.3213188406	3814.25
2538.48132820336	3801
2540.64072405965	3787
2542.79950669471	3806.75
2544.95767639373	3856.75
2547.11523344184	3810.5
2549.27217812411	3827
2551.42851072555	3848.5
2553.58423153111	3824
2555.73934082569	3802.25
2557.89383889412	3820.75
2560.04772602118	3863.25
2562.20100249158	3846.5
2564.35366858996	3812.25
2566.50572460093	3813.75
2568.65717080901	3803.75
2570.80800749867	3843
2572.95823495433	3798.5
2575.10785346031	3846.5
2577.25686330093	3806.5
2579.40526476038	3765
2581.55305812282	3838.75
2583.70024367237	3799.75
2585.84682169303	3791.75
2587.99279246879	3794.75
2590.13815628354	3791.25
2592.28291342112	3829
2594.42706416531	3808.25
2596.5706087998	3789.25
2598.71354760826	3837.5
2600.85588087425	3805.5
2602.99760888127	3811.25
2605.13873191278	3843.25
2607.27925025214	3797.5
2609.41916418269	3797.5
2611.55847398764	3814.75
2613.69717995017	3844
2615.83528235339	3894.75
2617.97278148034	3814.25
2620.10967761398	3876
2622.2459710372	3874.5
2624.38166203284	3860.75
2626.51675088365	3868.25
2628.65123787231	3802.75
2630.78512328145	3865.25
2632.9184073936	3837.75
2635.05109049124	3891
2637.18317285676	3865.75
2639.31465477248	3875.5
2641.44553652067	3899.5
2643.5758183835	3847.25
2645.70550064309	3895.25
2647.83458358144	3886.25
2649.96306748053	3926
2652.09095262223	3914.5
2654.21823928836	3910
2656.34492776063	3902.75
2658.47101832071	3922.25
2660.59651125015	3923.5
2662.72140683047	3930.75
2664.84570534309	3919.5
2666.96940706934	3902.25
2669.0925122905	3870.75
2671.21502128773	3933.5
2673.33693434215	3927
2675.45825173479	3941.5
2677.57897374658	3899.5
2679.69910065839	3929.75
2681.818632751	3927.75
2683.93757030511	3936.75
2686.05591360133	3965
2688.17366292021	3963.75
2690.29081854218	3959.75
2692.40738074762	3912.25
2694.52334981681	3934.75
2696.63872602995	3920.5
2698.75350966713	3936.25
2700.86770100841	3954.75
2702.98130033371	3945
2705.09430792289	3914.25
2707.20672405571	3932.75
2709.31854901185	3997.25
2711.42978307091	3922.25
2713.54042651238	3932.25
2715.65047961567	3941.5
2717.7599426601	3979.25
2719.86881592491	3989
2721.97709968924	3962.5
2724.08479423213	3956
2726.19189983255	3973.5
2728.29841676934	3918
2730.4043453213	3947
2732.5096857671	4022.75
2734.61443838532	3958
2736.71860345444	3969.25
2738.82218125286	3987.5
2740.92517205889	4003.25
2743.02757615072	4009
2745.12939380646	3980.5
2747.23062530411	4003.25
2749.33127092159	4022.25
2751.4313309367	3960.75
2753.53080562716	3997
2755.62969527058	3983.75
2757.72800014448	3989.75
2759.82572052625	4008.5
2761.92285669323	3992.25
2764.0194089226	3991
2766.11537749147	4018
2768.21076267686	4036.75
2770.30556475566	3984.75
2772.39978400465	4039.5
2774.49342070054	3995.75
2776.58647511991	4019.75
2778.67894753923	4032.5
2780.77083823487	4056
2782.8621474831	3977
2784.95287556007	3998.25
2787.04302274184	4003.5
2789.13258930433	4006.75
2791.22157552338	3988.25
2793.30998167471	3977
2795.39780803392	4042.5
2797.4850548765	4031.25
2799.57172247786	4006.75
2801.65781111324	4005.25
2803.74332105781	4048.75
2805.82825258661	4024.75
2807.91260597457	4018.75
2809.9963814965	3979.25
2812.07957942711	3987
2814.16220004096	3995.25
2816.24424361252	4000.5
2818.32571041614	4037
2820.40660072604	3990
2822.48691481631	4031.75
2824.56665296098	4079.25
2826.64581543388	4072.25
2828.72440250876	4096
2830.80241445925	4078
2832.87985155885	4104.5
2834.95671408093	4107
2837.03300229875	4104.5
2839.10871648544	4141
2841.18385691399	4188.75
2843.25842385729	4207.25
2845.33241758808	4206
2847.40583837898	4259.25
2849.4786865025	4234.25
2851.550962231	4288.75
2853.6226658367	4299.5
2855.69379759173	4319.75
2857.76435776806	4312.5
2859.83434663753	4298.75
2861.90376447184	4347.75
2863.97261154259	4320
2866.0408881212	4331
2868.10859447901	4292.75
2870.17573088717	4293
2872.24229761673	4308.75
2874.30829493859	4321
2876.37372312352	4342
2878.43858244215	4369
2880.50287316496	4362.75
2882.56659556231	4358
2884.62974990439	4421.5
2886.69233646129	4403
2888.75435550293	4454.25
2890.81580729909	4527.25
2892.87669211941	4549.75
2894.93701023339	4570.75
2896.99676191039	4567.75
2899.05594741961	4679.25
2901.1145670301	4650.25
2903.1726210108	4660.5
2905.23010963045	4639.25
2907.28703315768	4668
2909.34339186096	4703.75
2911.39918600861	4702
2913.45441586879	4652
2915.50908170952	4701.25
2917.56318379867	4669
2919.61672240395	4644.25
2921.66969779291	4631.5
2923.72211023295	4587.5
2925.77395999134	4626
2927.82524733515	4593.75
2929.87597253132	4578.5
2931.92613584663	4544
2933.97573754769	4529
2936.02477790097	4467.5
2938.07325717276	4455.25
2940.1211756292	4462.75
2942.16853353626	4427.5
2944.21533115976	4448.5
2946.26156876536	4405.5
2948.30724661853	4370.25
2950.3523649846	4366.75
2952.39692412872	4348
2954.44092431587	4342.25
2956.48436581089	4335
2958.52724887843	4275.25
2960.56957378296	4292.25
2962.6113407888	4280.75
2964.65255016011	4233
2966.69320216083	4307.75
2968.73329705479	4264
2970.77283510559	4237.75
2972.81181657671	4266
2974.8502417314	4287.5
2976.88811083279	4292.25
2978.92542414378	4309
2980.96218192713	4287
2982.99838444541	4272
2985.034031961	4288.25
2987.06912473612	4308
2989.1036630328	4309.75
2991.13764711288	4266.75
2993.17107723804	4304.5
2995.20395366974	4313.25
2997.23627666931	4272.25
2999.26804649782	4357.75
3001.29926341624	4360.75
3003.32992768528	4351.75
3005.3600395655	4355.5
3007.38959931726	4367.25
3009.41860720076	4334.5
3011.44706347595	4381.75
3013.47496840263	4332.75
3015.50232224041	4316
3017.5291252487	4332.75
3019.5553776867	4345.75
3021.58107981344	4369.25
3023.60623188773	4410.25
3025.63083416822	4421
3027.65488691331	4437.25
3029.67839038125	4494.75
3031.70134483007	4473
3033.72375051759	4568.5
3035.74560770144	4547.5
3037.76691663907	4603.5
3039.78767758768	4629.75
3041.80789080431	4619.25
3043.82755654577	4610
3045.84667506867	4701.75
3047.8652466294	4724.5
3049.88327148418	4863.5
3051.90074988899	4914.5
3053.91768209961	4982.75
3055.9340683716	4959.25
3057.94990896033	4981.5
3059.96520412095	5036.5
3061.97995410838	4968.75
3063.99415917734	4908.5
3066.00781958234	4861
3068.02093557766	4751.75
3070.03350741738	4681.5
3072.04553535535	4674.25
3074.05701964521	4569.5
3076.06796054036	4495.25
3078.078358294	4499.25
3080.08821315912	4444.5
3082.09752538846	4439.75
3084.10629523454	4389.5
3086.11452294967	4379.25
3088.12220878592	4401.5
3090.12935299515	4412.25
3092.13595582898	4360
3094.1420175388	4353.75
3096.14753837579	4364.5
3098.15251859088	4365
3100.15695843477	4340.25
3102.16085815793	4336.75
3104.16421801061	4356.25
3106.16703824282	4349.5
3108.16931910432	4300.75
3110.17106084464	4335.25
3112.17226371308	4345.5
3114.17292795872	4345.5
3116.17305383034	4388.5
3118.17264157657	4323.5
3120.17169144571	4327.25
3122.17020368587	4338
3124.16817854492	4333.75
3126.16561627044	4330.75
3128.16251710982	4372.5
3130.15888131017	4372
3132.15470911837	4376.25
3134.15000078104	4398
3136.14475654455	4421.5
3138.13897665502	4401
3140.13266135835	4405.5
3142.12581090014	4359.5
3144.11842552577	4407.5
3146.11050548036	4418
3148.10205100875	4392.25
3150.09306235557	4393.75
3152.08353976515	4409
3154.07348348158	4376.25
3156.06289374869	4428.5
3158.05177081006	4392.75
3160.04011490899	4422.75
3162.02792628852	4470.5
3164.01520519145	4424
3166.00195186029	4382.75
3167.98816653728	4449.25
3169.97384946442	4392
3171.95900088344	4387.25
3173.94362103577	4413.25
3175.92771016259	4396.5
3177.91126850484	4427.5
3179.89429630312	4406
3181.87679379782	4361.25
3183.85876122903	4428.75
3185.84019883657	4414.25
3187.82110685997	4413.75
3189.80148553851	4390.25
3191.78133511116	4463.75
3193.76065581664	4442.5
3195.73944789337	4431.25
3197.7177115795	4414.75
3199.6954471129	4443
3201.67265473114	4490.25
3203.64933467153	4426.75
3205.62548717107	4493
3207.60111246648	4459.5
3209.57621079421	4462.5
3211.55078239041	4478.25
3213.52482749093	4446.25
3215.49834633133	4497.5
3217.4713391469	4504
3219.44380617262	4505.25
3221.41574764317	4518
3223.38716379296	4456.75
3225.35805485607	4501.75
3227.32842106631	4496
3229.29826265718	4541.75
3231.26757986187	4517.5
3233.2363729133	4531
3235.20464204405	4568.25
3237.17238748643	4573.5
3239.13960947243	4528
3241.10630823374	4548.25
3243.07248400174	4536.25
3245.03813700748	4597
3247.00326748177	4547.25
3248.96787565503	4583.5
3250.93196175742	4594
3252.89552601877	4554.25
3254.8585686686	4600
3256.82108993612	4603.5
3258.78309005022	4614.75
3260.74456923948	4582.5
3262.70552773215	4620.75
3264.66596575617	4618.5
3266.62588353916	4593.75
3268.58528130843	4586.25
3270.54415929094	4587.75
3272.50251771336	4599
3274.46035680201	4594.75
3276.4176767829	4614.25
3278.37447788171	4612.75
3280.33076032379	4646.25
3282.28652433416	4596
3284.24177013751	4629
3286.1964979582	4620.75
3288.15070802027	4631.25
3290.10440054741	4622.25
3292.05757576298	4635
3294.01023389001	4645
3295.96237515119	4661.75
3297.91399976887	4625.5
3299.86510796506	4597.5
3301.81569996142	4698.75
3303.76577597932	4649.25
3305.7153362397	4656
3307.66438096324	4644.5
3309.61291037024	4652.25
3311.56092468064	4630.5
3313.50842411404	4607.25
3315.45540888971	4622.5
3317.40187922656	4628.75
3319.34783534315	4608.25
3321.29327745768	4596.25
3323.23820578801	4551
3325.18262055164	4582.25
3327.1265219657	4601.5
3329.06991024699	4594.25
3331.01278561194	4635
3332.95514827662	4598
3334.89699845674	4627.25
3336.83833636766	4612.75
3338.77916222434	4583.75
3340.71947624143	4612.5
3342.65927863317	4624.75
3344.59856961346	4600
3346.53734939584	4687.25
3348.47561819344	4626.25
3350.41337621906	4606
3352.35062368513	4606.25
3354.28736080368	4647
3356.22358778637	4638.75
3358.15930484452	4628
3360.09451218904	4681.75
3362.02921003047	4638.75
3363.96339857898	4681
3365.89707804436	4664
3367.83024863602	4663.25
3369.76291056299	4617.25
3371.69506403389	4592.75
3373.62670925699	4678.75
3375.55784644016	4671
3377.4884757909	4641.5
3379.41859751629	4714.5
3381.34821182305	4740
3383.27731891749	4705.75
3385.20591900555	4753.5
3387.13401229276	4726.5
3389.06159898426	4715.5
3390.9886792848	4716
3392.91525339872	4777.75
3394.84132152998	4707.5
3396.76688388213	4727.75
3398.69194065833	4747.5
3400.61649206133	4780.5
3402.54053829348	4748.75
3404.46407955672	4720.75
3406.3871160526	4720.5
3408.30964798225	4737.75
3410.23167554639	4728
3412.15319894535	4760.25
3414.07421837904	4750.5
3415.99473404695	4761.25
3417.91474614817	4774.25
3419.83425488136	4825
3421.75326044479	4783
3423.67176303631	4761.25
3425.58976285332	4770.5
3427.50726009282	4777.25
3429.42425495143	4747.25
3431.34074762528	4791.25
3433.25673831012	4737.5
3435.17222720127	4775.5
3437.08721449362	4772.5
3439.00170038164	4761
3440.91568505936	4780.5
3442.82916872039	4725.25
3444.74215155791	4783
3446.65463376468	4740.25
3448.566615533	4763.5
3450.47809705476	4777
3452.3890785214	4783.25
3454.29956012393	4781.75
3456.20954205293	4786.75
3458.11902449853	4795.25
3460.02800765041	4754.25
3461.93649169784	4762.25
3463.84447682962	4746.25
3465.75196323412	4716.25
3467.65895109925	4782
3469.56544061249	4753.25
3471.47143196086	4742.75
3473.37692533093	4741.75
3475.28192090884	4753.75
3477.18641888026	4761.25
3479.09041943039	4697.75
3480.99392274402	4775.75
3482.89692900545	4742.25
3484.79943839853	4764
3486.70145110666	4768.75
3488.60296731277	4784.5
3490.50398719933	4779
3492.40451094836	4727.25
3494.30453874141	4724.25
3496.20407075956	4772.25
3498.10310718342	4778.5
3500.00164819315	4734.5