200.090469251518	1897
202.974751419362	1867.5
205.858021632263	1919.5
208.740280737522	1920.5
211.621529580443	1908
214.501769004371	1917.5
217.380999850626	1923.5
220.25922295859	1911.5
223.136439165646	1923
226.012649307235	1923.5
228.88785421682	1931.5
231.762054725918	1949
234.635251664113	1958
237.507445859021	1942
240.378638136346	1946
243.248829319855	1944.5
246.11802023137	1986
248.986211690826	1991
251.853404516227	1965.5
254.719599523654	1952.5
257.584797527335	1960
260.44899933954	1959
263.312205770682	1985.5
266.174417629303	1967.5
269.035635722015	1978
271.895860853609	1995.5
274.755093826978	1994
277.613335443144	1966.5
280.470586501309	2030
283.326847798766	2026.5
286.182120131019	2012.5
289.036404291684	2023.5
291.889701072574	2002
294.742011263643	2049
297.593335653048	2042.5
300.443675027094	2053.5
303.293030170295	2079.5
306.141401865367	2001.5
308.988790893174	2071
311.835198032837	2045.5
314.680624061635	2086.5
317.525069755113	2080
320.36853588697	2054
323.211023229178	2039.5
326.052532551923	2067.5
328.893064623604	2066
331.732620210885	2084.5
334.57120007867	2088
337.408804990093	2092
340.245435706565	2074.5
343.081092987733	2128
345.915777591523	2117
348.749490274145	2124.5
351.582231790049	2141
354.414002891997	2134
357.244804331021	2171.5
360.074636856443	2124
362.903501215886	2182
365.731398155265	2142.5
368.558328418814	2178.5
371.384292749062	2184.5
374.209291886869	2212.5
377.033326571407	2176.5
379.85639754017	2206.5
382.678505529009	2194.5
385.499651272065	2187
388.319835501872	2186
391.139058949258	2186
393.957322343453	2196
396.774626412011	2217
399.590971880847	2235
402.406359474258	2215
405.220789914893	2258
408.034263923801	2213.5
410.8467822204	2234.5
413.658345522483	2254
416.468954546242	2284.5
419.278610006277	2251.5
422.087312615557	2278
424.895063085503	2307
427.701862125901	2291
430.507710444981	2296.5
433.312608749366	2303.5
436.116557744146	2316.5
438.919558132791	2338.5
441.721610617238	2341
444.522715897856	2317.5
447.322874673457	2319.5
450.122087641299	2336
452.920355497092	2317
455.717678935009	2289.5
458.514058647681	2326
461.309495326219	2348.5
464.103989660191	2296.5
466.89754233765	2375.5
469.690154045114	2334
472.481825467625	2334
475.272557288674	2358.5
478.062350190281	2364
480.851204852952	2314.5
483.639121955683	2356.5
486.426102176007	2364.5
489.212146189955	2359
491.997254672093	2401.5
494.781428295471	2408
497.564667731716	2378
500.346973650958	2394
503.128346721878	2396.5
505.90878761169	2411
508.688296986151	2434
511.46687550957	2431.5
514.244523844831	2432
517.021242653354	2426.5
519.797032595132	2474
522.571894328732	2427.5
525.345828511279	2473
528.11883579849	2453.5
530.890916844655	2443
533.662072302668	2429
536.432302823985	2429
539.201609058684	2453.5
541.96999165542	2463.5
544.737451261473	2447
547.503988522723	2470.5
550.26960408366	2464.5
553.034298587394	2469.5
555.798072675669	2451.5
558.560926988819	2496
561.322862165849	2473
564.083878844369	2488
566.843977660654	2525.5
569.603159249604	2515.5
572.361424244769	2530.5
575.118773278369	2515.5
577.87520698124	2572
580.630725982905	2528.5
583.385330911566	2557.5
586.139022394076	2586.5
588.891801055954	2588
591.643667521406	2577
594.394622413318	2574.5
597.144666353273	2565
599.893799961512	2607
602.64202385701	2587.5
605.389338657413	2549.5
608.135744979089	2604
610.881243437092	2598
613.625834645191	2591.5
616.369519215881	2571.5
619.112297760374	2558
621.854170888604	2587.5
624.595139209225	2599.5
627.335203329614	2599
630.074363855914	2591
632.81262139299	2579.5
635.549976544436	2585.5
638.286429912612	2570.5
641.021982098635	2618
643.756633702364	2615.5
646.49038532241	2605
649.223237556176	2608
651.955190999808	2621.5
654.686246248224	2638.5
657.416403895135	2643
660.145664533011	2653.5
662.874028753133	2725
665.601497145537	2672
668.328070299071	2694.5
671.05374880138	2732
673.778533238885	2724.5
676.502424196839	2699
679.225422259297	2688.5
681.947528009099	2705.5
684.668742027927	2702
687.389064896281	2661.5
690.108497193465	2694
692.827039497621	2721
695.544692385724	2702.5
698.261456433585	2721
700.977332215847	2695
703.692320305981	2739
706.406421276337	2729.5
709.11963569808	2732
711.831964141256	2739
714.54340717474	2726
717.253965366304	2752
719.963639282552	2761
722.672429488961	2748
725.380336549904	2763.5
728.087361028596	2800.5
730.793503487166	2762
733.498764486594	2790
736.203144586758	2778
738.906644346447	2820.5
741.60926432331	2799
744.311005073912	2832
747.011867153727	2850
749.711851117121	2812.5
752.410957517375	2872
755.109186906677	2896.5
757.806539836132	2854
760.503016855779	2851.5
763.198618514551	2863
765.893345360346	2874
768.587197939964	2885.5
771.28017679914	2913.5
773.972282482566	2884
776.663515533859	2868.5
779.353876495581	2904.5
782.043365909241	2851
784.731984315327	2851.5
787.419732253235	2927
790.106610261366	2863.5
792.792618877058	2862
795.477758636618	2898
798.162030075313	2949.5
800.845433727423	2885.5
803.52797012615	2904
806.209639803714	2893
808.890443291304	2919
811.570381119098	2916
814.249453816265	2953
816.927661910959	2932.5
819.60500593036	2980.5
822.281486400603	2954
824.957103846864	2946
827.631858793316	2939
830.305751763135	2966
832.978783278519	2986
835.650953860677	2997
838.322264029848	3006.5
840.992714305292	3015.5
843.662305205289	3000
846.331037247157	3048
848.998910947241	3053
851.665926820933	3032.5
854.332085382674	3054
856.997387145915	3027.5
859.661832623191	3048
862.325422326066	3049
864.988156765172	3088.5
867.650036450181	3108
870.311061889846	3048
872.971233591961	3036.5
875.630552063409	3037.5
878.28901781013	3058
880.946631337138	3073.5
883.603393148533	3067.5
886.259303747484	3016
888.914363636246	3061
891.568573316155	3058.5
894.22193328767	3023
896.874444050281	3068
899.526106102625	3058.5
902.176919942416	3073.5
904.826886066483	3009
907.476004970747	3101.5
910.124277150255	3070.5
912.77170309913	3102
915.418283310642	3137.5
918.064018277175	3153
920.708908490222	3158
923.352954440405	3166
925.996156617486	3167
928.638515510334	3152.5
931.280031606966	3130.5
933.920705394521	3197.5
936.560537359303	3172.5
939.199527986737	3175
941.837677761392	3177
944.474987167006	3194
947.111456686438	3196.5
949.747086801734	3217
952.38187799407	3190.5
955.015830743792	3186
957.648945530418	3204
960.281222832633	3198.5
962.91266312826	3237
965.543266894336	3199.5
968.173034607058	3202.5
970.801966741779	3216.5
973.43006377307	3246
976.057326174661	3182
978.683754419471	3244.5
981.309348979623	3254.5
983.93411032642	3281.5
986.558038930361	3253
989.181135261144	3293.5
991.803399787692	3274
994.424832978086	3236
997.045435299653	3290.5
999.665207218906	3299
1002.2841492016	3286
1004.90226171266	3297.5
1007.51954521628	3336
1010.13600017584	3338
1012.75162705397	3327
1015.3664263125	3343.5
1017.9803984125	3369
1020.5935438143	3410
1023.20586297741	3356
1025.81735636063	3366
1028.42802442196	3349.5
1031.03786761869	3427.5
1033.64688640732	3376
1036.2550812436	3438
1038.86245258255	3398.5
1041.46900087844	3406.5
1044.07472658479	3419.5
1046.67963015438	3487
1049.28371203927	3493.5
1051.88697269075	3472.5
1054.48941255943	3486
1057.09103209513	3478.5
1059.691831747	3522
1062.29181196343	3517
1064.89097319211	3513.5
1067.48931587999	3489
1070.08684047333	3469.5
1072.68354741766	3486
1075.27943715779	3503.5
1077.87451013787	3497
1080.46876680127	3519
1083.06220759071	3517.5
1085.65483294822	3499.5
1088.24664331509	3480.5
1090.83763913194	3516
1093.42782083869	3547
1096.01718887459	3518.5
1098.60574367818	3528.5
1101.19348568732	3488.5
1103.78041533919	3519
1106.3665330703	3544.5
1108.95183931646	3507
1111.53633451284	3548.5
1114.12001909391	3568
1116.70289349349	3572
1119.2849581447	3592.5
1121.86621348005	3590.5
1124.44665993134	3600.5
1127.02629792973	3633.5
1129.60512790574	3646.5
1132.18315028919	3605.5
1134.76036550929	3611.5
1137.3367739946	3595
1139.912376173	3673.5
1142.48717247176	3658.5
1145.06116331748	3623.5
1147.63434913616	3655
1150.20673035312	3621
1152.77830739307	3632
1155.34908068007	3663
1157.91905063757	3708
1160.48821768838	3676
1163.05658225471	3625
1165.6241447581	3613.5
1168.19090561951	3597.5
1170.75686525927	3675.5
1173.32202409708	3689.5
1175.88638255206	3691.5
1178.44994104269	3646.5
1181.01269998684	3634.5
1183.57465980182	3615
1186.13582090427	3638.5
1188.69618371026	3668
1191.25574863529	3651.5
1193.8145160942	3671
1196.37248650129	3656
1198.92966027025	3631.5
1201.48603781416	3624
1204.04161954556	3630
1206.59640587635	3644
1209.15039721788	3627
1211.70359398092	3679.5
1214.25599657564	3666
1216.80760541166	3702
1219.35842089801	3709.5
1221.90844344314	3702
1224.45767345496	3709
1227.00611134077	3685.5
1229.55375750736	3707.5
1232.10061236092	3742.5
1234.64667630707	3736
1237.1919497509	3709.5
1239.73643309692	3765
1242.28012674912	3715.5
1244.82303111089	3720
1247.36514658511	3766
1249.9064735741	3813
1252.44701247964	3858
1254.98676370294	3843.5
1257.52572764469	3818.5
1260.06390470506	3823
1262.60129528365	3886.5
1265.13789977954	3854
1267.67371859128	3946
1270.20875211688	3961.5
1272.74300075384	3907
1275.2764648991	3964
1277.80914494911	4011
1280.34104129978	3881.5
1282.87215434652	3977
1285.40248448419	4009
1287.93203210715	4018.5
1290.46079760927	4009
1292.98878138385	4157
1295.51598382375	4107.5
1298.04240532127	4061.5
1300.56804626822	4097.5
1303.09290705593	4095.5
1305.6169880752	4077
1308.14028971632	4121.5
1310.66281236913	4100
1313.18455642292	4118.5
1315.70552226653	4109.5
1318.22571028829	4041.5
1320.74512087603	4075.5
1323.26375441711	4090.5
1325.7816112984	4112
1328.29869190629	4079
1330.81499662666	4130.5
1333.33052584497	4123
1335.84527994613	4159.5
1338.35925931464	4215
1340.87246433446	4182.5
1343.38489538916	4253.5
1345.89655286177	4249
1348.40743713487	4194.5
1350.91754859059	4244.5
1353.42688761059	4202
1355.93545457606	4224
1358.44324986772	4289.5
1360.95027386588	4265
1363.45652695032	4219
1365.96200950042	4319.5
1368.4667218951	4237.5
1370.97066451281	4273
1373.47383773156	4256.5
1375.97624192891	4312
1378.47787748199	4299
1380.97874476746	4290
1383.47884416157	4241.5
1385.97817604009	4199
1388.4767407784	4224
1390.9745387514	4242.5
1393.47157033358	4188.5
1395.96783589898	4231
1398.46333582124	4238
1400.95807047354	4257.5
1403.45204022864	4212.5
1405.94524545889	4230
1408.4376865362	4263.5
1410.92936383205	4280
1413.42027771752	4276.5
1415.91042856328	4238
1418.39981673955	4370
1420.88844261615	4319.5
1423.37630656249	4397.5
1425.86340894757	4377
1428.34975013999	4462.5
1430.83533050792	4494
1433.32015041912	4553
1435.80421024098	4551
1438.28751034045	4645.5
1440.77005108411	4663
1443.25183283812	4680.5
1445.73285596824	4693.5
1448.21312083984	4711
1450.69262781791	4635.5
1453.17137726702	4707
1455.64936955137	4660
1458.12660503477	4628.5
1460.60308408063	4618
1463.07880705197	4622.5
1465.55377431145	4676
1468.02798622133	4635
1470.50144314348	4640.5
1472.97414543941	4563
1475.44609347024	4577
1477.91728759673	4629
1480.38772817924	4547.5
1482.85741557777	4564.5
1485.32635015194	4588
1487.79453226103	4591
1490.26196226391	4534
1492.72864051911	4580.5
1495.1945673848	4576.5
1497.65974321874	4604.5
1500.1241683784	4590
1502.58784322083	4610
1505.05076810274	4558
1507.51294338049	4600.5
1509.97436941009	4609
1512.43504654717	4648.5
1514.89497514704	4685
1517.35415556462	4636.5
1519.81258815451	4659
1522.27027327095	4678
1524.72721126784	4750.5
1527.18340249874	4736
1529.63884731684	4749.5
1532.09354607502	4703.5
1534.5474991258	4754.5
1537.00070682136	4709
1539.45316951355	4705
1541.90488755388	4700
1544.35586129353	4757
1546.80609108336	4764
1549.25557727385	4798.5
1551.70432021519	4761
1554.15232025725	4803
1556.59957774953	4822.5
1559.04609304125	4889
1561.49186648127	4866.5
1563.93689841815	4834.5
1566.38118920011	4894.5
1568.82473917506	4852.5
1571.2675486906	4950.5
1573.70961809399	4983
1576.15094773219	5001.5
1578.59153795184	4906.5
1581.03138909928	4950.5
1583.47050152051	4985.5
1585.90887556123	4983.5
1588.34651156686	4992.5
1590.78340988246	4995
1593.21957085283	4946
1595.65499482245	5053
1598.08968213547	5028
1600.52363313578	4961.5
1602.95684816694	5013.5
1605.38932757224	4996.5
1607.82107169462	4915.5
1610.25208087677	5036
1612.68235546107	4992
1615.1118957896	4973
1617.54070220415	4971
1619.96877504621	4901
1622.39611465701	4969
1624.82272137746	5000
1627.24859554818	4925
1629.67373750953	4925
1632.09814760155	4933
1634.52182616404	4938
1636.94477353647	4930
1639.36699005806	4897
1641.78847606776	4948
1644.20923190418	4909
1646.62925790573	4982.5
1649.04855441048	4986.5
1651.46712175628	5020
1653.88496028066	5005.5
1656.3020703209	5081.5
1658.71845221401	5073.5
1661.13410629671	5076.5
1663.54903290547	5056.5
1665.96323237649	5120
1668.37670504571	5106.5
1670.78945124877	5107
1673.20147132109	5205.5
1675.61276559779	5263
1678.02333441377	5220
1680.43317810362	5186.5
1682.84229700171	5188.5
1685.25069144213	5246.5
1687.65836175872	5192
1690.06530828507	5219.5
1692.47153135451	5234
1694.87703130009	5230
1697.28180845467	5299.5
1699.6858631508	5340
1702.08919572081	5349
1704.49180649676	5292
1706.89369581049	5346.5
1709.29486399355	5290
1711.69531137731	5293.5
1714.09503829282	5288
1716.49404507095	5317.5
1718.89233204229	5289.5
1721.28989953721	5280.5
1723.68674788581	5328
1726.08287741798	5349.5
1728.47828846338	5331.5
1730.87298135139	5320
1733.26695641119	5405.5
1735.66021397173	5313
1738.05275436169	5355
1740.44457790954	5362.5
1742.83568494354	5362
1745.22607579168	5394
1747.61575078175	5339
1750.00471024128	5415
1752.39295449761	5395.5
1754.78048387783	5431.5
1757.16729870881	5408.5
1759.5533993172	5437
1761.93878602942	5446.5
1764.32345917168	5488
1766.70741906995	5469
1769.09066604999	5475.5
1771.47320043735	5505.5
1773.85502255735	5491.5
1776.2361327351	5522.5
1778.61653129548	5501.5
1780.99621856318	5593.5
1783.37519486264	5612
1785.75346051813	5609
1788.13101585368	5605.5
1790.5078611931	5606.5
1792.88399686002	5579.5
1795.25942317785	5615.5
1797.63414046977	5675
1800.00814905878	5675
1802.38144926766	5583.5
1804.75404141898	5631.5
1807.12592583514	5660.5
1809.49710283829	5722.5
1811.86757275039	5642
1814.23733589322	5739.5
1816.60639258834	5772
1818.97474315712	5657.5
1821.34238792073	5735
1823.70932720012	5686
1826.07556131608	5706
1828.44109058918	5670
1830.8059153398	5669
1833.17003588812	5738.5
1835.53345255413	5707.5
1837.89616565765	5779
1840.25817551827	5672.5
1842.61948245541	5737
1844.9800867883	5796
1847.33998883598	5753
1849.69918891729	5745.5
1852.05768735091	5784
1854.4154844553	5720.5
1856.77258054875	5825.5
1859.12897594938	5710
1861.4846709751	5807.5
1863.83966594366	5748
1866.19396117261	5801
1868.54755697932	5818
1870.90045368099	5887.5
1873.25265159463	5888
1875.60415103708	5861.5
1877.95495232501	5945.5
1880.30505577486	5927.5
1882.65446170299	5948
1885.00317042548	6002.5
1887.35118225832	5957.5
1889.69849751726	6042
1892.04511651792	5992.5
1894.39103957574	6089
1896.73626700596	6085.5
1899.08079912368	6069
1901.42463624384	6108
1903.76777868116	6068.5
1906.11022675025	6180
1908.4519807655	6164.5
1910.79304104117	6171.5
1913.13340789134	6165.5
1915.47308162992	6161
1917.81206257067	6139.5
1920.15035102718	6218.5
1922.48794731286	6252
1924.82485174096	6276
1927.16106462461	6281
1929.49658627672	6280.5
1931.83141701008	6220.5
1934.1655571373	6197
1936.49900697085	6269.5
1938.83176682301	6260.5
1941.16383700594	6276
1943.49521783161	6271.5
1945.82590961186	6244.5
1948.15591265835	6221.5
1950.48522728262	6245.5
1952.81385379602	6258.5
1955.14179250976	6252
1957.46904373489	6228.5
1959.79560778233	6231.5
1962.12148496284	6338
1964.44667558701	6294
1966.77117996529	6196
1969.09499840799	6290
1971.41813122527	6314
1973.74057872714	6362.5
1976.06234122345	6386
1978.38341902391	6361
1980.7038124381	6437
1983.02352177543	6395.5
1985.34254734518	6418.5
1987.66088945649	6486.5
1989.97854841833	6481
1992.29552453956	6503
1994.61181812887	6430
1996.92742949483	6445.5
1999.24235894586	6536.5
2001.55660679023	6545
2003.87017333608	6563
2006.18305889143	6623
2008.49526376413	6604.5
2010.80678826189	6667
2013.1176326923	6660
2015.42779736282	6672.5
2017.73728258075	6666.5
2020.04608865326	6726
2022.3542158874	6679.5
2024.66166459008	6717.5
2026.96843506807	6816
2029.274527628	6796
2031.57994257637	6904
2033.88468021957	6787.5
2036.18874086383	6806
2038.49212481526	6892
2040.79483237983	6857.5
2043.0968638634	6830
2045.39821957169	6831.5
2047.69889981028	6901.5
2049.99890488462	6900.5
2052.29823510006	6893
2054.59689076181	6902
2056.89487217492	6909.5
2059.19217964437	6977
2061.48881347497	6951
2063.7847739714	6905.5
2066.08006143826	6982.5
2068.37467618	6884
2070.66861850093	6954
2072.96188870527	7029.5
2075.25448709707	6997.5
2077.54641398031	7021.5
2079.83766965881	6979
2082.12825443629	7033.5
2084.41816861634	6992
2086.70741250242	7008
2088.99598639789	7035
2091.28389060597	7028
2093.57112542978	6994.5
2095.85769117232	7055
2098.14358813644	7034.5
2100.42881662491	7068
2102.71337694037	7067
2104.99726938532	7053
2107.28049426219	7028
2109.56305187325	7110.5
2111.84494252069	7125
2114.12616650655	7170.5
2116.40672413278	7165.5
2118.68661570121	7204
2120.96584151355	7217
2123.24440187138	7270
2125.52229707622	7248.5
2127.79952742943	7221
2130.07609323227	7224
2132.35199478588	7311
2134.62723239132	7268.5
2136.90180634949	7241.5
2139.17571696123	7272
2141.44896452723	7363.5
2143.72154934809	7413
2145.99347172429	7368.5
2148.26473195623	7384.5
2150.53533034415	7472
2152.80526718821	7466.5
2155.07454278848	7468
2157.3431574449	7422
2159.61111145728	7473
2161.87840512538	7447.5
2164.1450387488	7395.5
2166.41101262707	7420
2168.67632705959	7493.5
2170.94098234567	7505
2173.20497878451	7515.5
2175.46831667519	7602.5
2177.73099631672	7571.5
2179.99301800797	7538
2182.25438204772	7509
2184.51508873466	7543.5
2186.77513836735	7567
2189.03453124427	7501.5
2191.29326766378	7455.5
2193.55134792416	7491
2195.80877232355	7588.5
2198.06554116004	7566.5
2200.32165473157	7505
2202.577113336	7524
2204.83191727111	7469.5
2207.08606683453	7555.5
2209.33956232384	7611
2211.59240403648	7552
2213.84459226982	7580
2216.09612732112	7509.5
2218.34700948753	7490
2220.59723906612	7552
2222.84681635385	7487.5
2225.09574164758	7506
2227.34401524408	7535.5
2229.59163744002	7556.5
2231.83860853197	7521.5
2234.08492881639	7497.5
2236.33059858968	7461.5
2238.5756181481	7579.5
2240.81998778784	7589
2243.06370780499	7465.5
2245.30677849555	7579
2247.54920015539	7528
2249.79097308033	7525.5
2252.03209756607	7551.5
2254.27257390822	7582
2256.51240240228	7523.5
2258.75158334369	7507
2260.99011702777	7452.5
2263.22800374976	7511
2265.46524380477	7510.5
2267.70183748786	7547
2269.93778509399	7584.5
2272.17308691801	7530
2274.40774325467	7474
2276.64175439866	7526.5
2278.87512064454	7550.5
2281.10784228682	7507.5
2283.33991961987	7538
2285.571352938	7564
2287.80214253541	7570.5
2290.03228870623	7642
2292.26179174449	7552
2294.4906519441	7572
2296.71886959892	7626
2298.9464450027	7506
2301.1733784491	7560.5
2303.39967023169	7565.5
2305.62532064395	7529
2307.85032997926	7601
2310.07469853093	7446
2312.29842659216	7538.5
2314.52151445608	7503
2316.7439624157	7438
2318.96577076397	7465
2321.18693979374	7589
2323.40746979777	7496
2325.62736106873	7586
2327.8466138992	7548.5
2330.06522858166	7553
2332.28320540853	7608
2334.50054467212	7580
2336.71724666465	7544.5
2338.93331167827	7517.5
2341.14874000501	7538.5
2343.36353193685	7429.5
2345.57768776564	7477.5
2347.79120778319	7482
2350.00409228117	7450
2352.21634155121	7509.5
2354.42795588482	7452.5
2356.63893557342	7476.5
2358.84928090838	7524
2361.05899218094	7502
2363.26806968228	7395
2365.47651370347	7466
2367.68432453552	7509
2369.89150246933	7526.5
2372.09804779571	7478
2374.30396080541	7514
2376.50924178907	7497.5
2378.71389103725	7484.5
2380.91790884042	7440
2383.12129548897	7391
2385.3240512732	7378.5
2387.52617648332	7389
2389.72767140946	7355.5
2391.92853634165	7426
2394.12877156985	7367.5
2396.32837738392	7415
2398.52735407365	7371
2400.72570192873	7332.5
2402.92342123875	7435.5
2405.12051229325	7423.5
2407.31697538167	7312
2409.51281079333	7411.5
2411.70801881751	7404
2413.90259974339	7346.5
2416.09655386004	7330
2418.28988145648	7330
2420.48258282162	7258.5
2422.6746582443	7297
2424.86610801325	7418
2427.05693241713	7267.5
2429.24713174452	7339
2431.43670628389	7379
2433.62565632365	7303
2435.81398215212	7277.5
2438.00168405752	7302
2440.18876232799	7379
2442.37521725158	7236
2444.56104911628	7256.5
2446.74625820994	7292.5
2448.93084482038	7258
2451.1148092353	7253
2453.29815174233	7279.5
2455.480872629	7193
2457.66297218275	7184
2459.84445069097	7153.5
2462.02530844092	7192.5
2464.2055457198	7203
2466.38516281471	7185.5
2468.56416001267	7148
2470.74253760061	7120.5
2472.92029586537	7152
2475.09743509372	7126
2477.27395557232	7161
2479.44985758777	7152.5
2481.62514142655	7161
2483.79980737508	7161
2485.97385571969	7106
2488.14728674661	7133
2490.32010074198	7137.5
2492.49229799188	7057
2494.66387878228	7059
2496.83484339905	7193.5
2499.00519212802	7176.5
2501.17492525488	7149
2503.34404306528	7226
2505.51254584473	7173.5
2507.6804338787	7132.5
2509.84770745254	7136.5
2512.01436685153	7156.5
2514.18041236085	7134
2516.34584426561	7216.5
2518.51066285081	7137
2520.67486840138	7147.5
2522.83846120214	7146
2525.00144153784	7215
2527.16380969314	7235.5
2529.32556595261	7247
2531.48671060072	7244
2533.64724392186	7208.5
2535.80716620033	7269.5
2537.96647772034	7228.5
2540.12517876602	7250.5
2542.2832696214	7195.5
2544.44075057041	7194.5
2546.59762189691	7139
2548.75388388466	7103
2550.90953681735	7133.5
2553.06458097853	7138.5
2555.21901665172	7113.5
2557.37284412031	7150
2559.5260636676	7133
2561.67867557684	7157.5
2563.83068013113	7061
2565.98207761351	7145.5
2568.13286830695	7064
2570.28305249429	7098.5
2572.43263045829	7126.5
2574.58160248163	6992
2576.72996884689	7018.5
2578.87772983655	6958
2581.02488573303	7070
2583.1714368186	7060
2585.31738337549	6970
2587.46272568582	6963.5
2589.60746403161	6988
2591.75159869479	6995
2593.89512995722	6972.5
2596.03805810061	7056.5
2598.18038340665	7079.5
2600.32210615686	6990
2602.46322663274	7041.5
2604.60374511563	7017.5
2606.74366188683	6939.5
2608.88297722751	6937.5
2611.02169141875	6988.5
2613.15980474156	7090
2615.29731747681	7036
2617.43422990532	6970.5
2619.57054230779	6921.5
2621.70625496483	7086
2623.84136815694	6983.5
2625.97588216456	7074
2628.10979726799	6989.5
2630.24311374746	7068
2632.3758318831	7059.5
2634.50795195493	6921.5
2636.6394742429	7013.5
2638.77039902682	6987
2640.90072658645	6998
2643.0304572014	7102
2645.15959115123	6945.5
2647.28812871538	7086
2649.41607017319	7098
2651.5434158039	7083.5
2653.67016588665	7005
2655.79632070049	7073
2657.92188052436	7092
2660.04684563711	7112
2662.17121631749	7182
2664.29499284413	7083.5
2666.41817549558	7050
2668.54076455027	7131.5
2670.66276028656	7015
2672.78416298267	7026
2674.90497291675	7088.5
2677.02519036682	7043.5
2679.14481561082	7069
2681.26384892658	7122
2683.38229059182	7103.5
2685.50014088417	7020
2687.61740008114	7110
2689.73406846017	7108
2691.85014629854	7128
2693.96563387347	7054
2696.08053146206	7095
2698.1948393413	7077
2700.3085577881	7078
2702.42168707924	7098
2704.53422749139	7048.5
2706.64617930112	7082
2708.75754278492	7088
2710.86831821913	7128
2712.97850588002	7128.5
2715.08810604372	7118.5
2717.19711898628	7148.5
2719.30554498363	7227.5
2721.41338431158	7153.5
2723.52063724586	7161.5
2725.62730406206	7096.5
2727.73338503569	7121.5
2729.83888044213	7110
2731.94379055664	7165.5
2734.04811565441	7080.5
2736.15185601048	7147
2738.25501189979	7182
2740.35758359718	7050
2742.45957137738	7127.5
2744.56097551499	7067.5
2746.6617962845	7138
2748.7620339603	7029
2750.86168881666	7155
2752.96076112774	7116
2755.05925116758	7151.5
2757.15715921012	7153
2759.25448552917	7087
2761.35123039843	7108
2763.44739409148	7141
2765.5429768818	7074.5
2767.63797904275	7078.5
2769.73240084756	7152
2771.82624256934	7114
2773.91950448113	7076
2776.01218685579	7141.5
2778.10428996609	7181
2780.19581408469	7126
2782.28675948414	7143.5
2784.37712643683	7179
2786.46691521507	7190.5
2788.55612609104	7090
2790.64475933678	7220
2792.73281522425	7073
2794.82029402525	7120
2796.90719601149	7163.5
2798.99352145453	7092.5
2801.07927062583	7134.5
2803.16444379672	7102.5
2805.24904123841	7198
2807.33306322197	7170
2809.41651001838	7196
2811.49938189847	7176.5
2813.58167913296	7225
2815.66340199243	7238
2817.74455074734	7249
2819.82512566805	7270
2821.90512702475	7252
2823.98455508754	7192.5
2826.06341012637	7272.5
2828.14169241109	7370.5
2830.2194022114	7438.5
2832.29653979686	7480.5
2834.37310543694	7615.5
2836.44909940096	7757.5
2838.5245219581	7961.5
2840.59937337744	8152
2842.67365392791	8620.5
2844.74736387829	8839.5
2846.82050349727	9165
2848.8930730534	9487.5
2850.96507281506	9442
2853.03650305056	9286
2855.10736402802	9078
2857.17765601545	8935.5
2859.24737928074	8840
2861.31653409164	8677
2863.38512071574	8597.5
2865.45313942054	8586
2867.52059047335	8484.5
2869.58747414139	8525.5
2871.65379069173	8565
2873.7195403913	8670
2875.78472350688	8668.5
2877.84934030515	8871.5
2879.91339105262	9014
2881.97687601567	9135.5
2884.03979546053	9038
2886.10214965332	8994.5
2888.16393886	8998.5
2890.22516334639	8939
2892.28582337816	8910
2894.34591922087	8951
2896.40545113992	8897
2898.46441940054	8876.5
2900.52282426787	8901
2902.58066600687	8910
2904.63794488237	8829.5
2906.69466115906	8644
2908.75081510147	8722.5
2910.806406974	8639
2912.8614370409	8571
2914.91590556626	8669
2916.96981281404	8582.5
2919.02315904807	8614
2921.07594453199	8710.5
2923.12816952932	8612
2925.17983430343	8620.5
2927.23093911753	8554.5
2929.28148423469	8510
2931.33146991782	8427
2933.3808964297	8354.5
2935.42976403294	8209.5
2937.47807299	8104
2939.5258235632	7937
2941.57301601469	7872.5
2943.61965060648	7740.5
2945.66572760042	7718.5
2947.71124725823	7674.5
2949.75620984143	7602
2951.80061561143	7550
2953.84446482945	7579
2955.88775775656	7550.5
2957.9304946537	7405.5
2959.97267578162	7438.5
2962.01430140095	7450.5
2964.05537177211	7499.5
2966.09588715541	7379.5
2968.13584781097	7473
2970.17525399875	7373
2972.21410597859	7319.5
2974.25240401011	7423.5
2976.29014835283	7407
2978.32733926604	7389.5
2980.36397700892	7394.5
2982.40006184049	7362
2984.43559401955	7381.5
2986.4705738048	7363
2988.50500145473	7418.5
2990.53887722771	7398.5
2992.57220138189	7357.5
2994.6049741753	7485.5
2996.63719586576	7482.5
2998.66886671097	7451
3000.69998696843	7553.5
3002.73055689549	7505
3004.7605767493	7567.5
3006.79004678688	7448.5
3008.81896726505	7507.5
3010.84733844048	7415
3012.87516056966	7526.5
3014.9024339089	7464.5
3016.92915871433	7564.5
3018.95533524196	7551.5
3020.98096374756	7649
3023.00604448675	7634.5
3025.030577715	7591.5
3027.05456368757	7607
3029.07800265956	7580
3031.10089488589	7616.5
3033.12324062131	7592
3035.14504012038	7708.5
3037.16629363749	7633.5
3039.18700142685	7621.5
3041.20716374249	7619
3043.22678083826	7570.5
3045.24585296782	7699.5
3047.26438038468	7621.5
3049.28236334212	7715
3051.29980209329	7672.5
3053.31669689111	7553.5
3055.33304798835	7587
3057.34885563757	7618.5
3059.36412009117	7623
3061.37884160134	7600.5
3063.39302042011	7648.5
3065.40665679931	7670.5
3067.41975099058	7657.5
3069.43230324538	7651.5
3071.44431381495	7627.5
3073.45578295041	7571
3075.46671090261	7683
3077.47709792227	7594
3079.48694425989	7600
3081.49625016578	7601
3083.50501589008	7605
3085.5132416827	7714
3087.5209277934	7690.5
3089.52807447169	7620
3091.53468196695	7661.5
3093.54075052832	7626
3095.54628040476	7625
3097.55127184503	7653.5
3099.55572509769	7577.5
3101.55964041111	7597
3103.56301803346	7639
3105.5658582127	7548.5
3107.56816119661	7723
3109.56992723275	7625.5
3111.57115656849	7717.5
3113.571849451	7548.5
3115.57200612724	7643.5
3117.57162684397	7705.5
3119.57071184775	7624
3121.56926138493	7683.5
3123.56727570166	7666.5
3125.56475504389	7705
3127.56169965735	7689
3129.55810978757	7693
3131.55398567987	7713
3133.54932757937	7699.5
3135.54413573099	7835.5
3137.53841037939	7732
3139.53215176909	7768
3141.52536014435	7745.5
3143.51803574924	7793
3145.51017882762	7711.5
3147.50178962311	7743.5
3149.49286837916	7776.5
3151.48341533897	7803
3153.47343074553	7799
3155.46291484164	7798.5
3157.45186786985	7735
3159.44029007252	7708.5
3161.42818169179	7748
3163.41554296955	7806
3165.40237414753	7790.5
3167.38867546718	7756.5
3169.37444716975	7804.5
3171.35968949631	7849.5
3173.34440268764	7780.5
3175.32858698436	7806.5
3177.31224262682	7777.5
3179.29536985517	7757.5
3181.27796890934	7810
3183.26004002902	7759.5
3185.24158345368	7864.5
3187.22259942256	7887
3189.2030881747	7809
3191.18304994886	7853.5
3193.16248498363	7832
3195.14139351733	7815
3197.11977578807	7833
3199.09763203371	7867
3201.07496249191	7905
3203.05176740007	7802
3205.02804699537	7825
3207.00380151475	7922.5
3208.97903119493	7855.5
3210.95373627238	7925.5
3212.92791698335	7862
3214.90157356383	7813.5
3216.8747062496	7970
3218.84731527619	7913.5
3220.81940087889	7935.5
3222.79096329275	7902
3224.76200275259	7939.5
3226.73251949298	7952.5
3228.70251374825	7897.5
3230.67198575251	7894.5
3232.64093573959	7934
3234.6093639431	8074.5
3236.57727059641	7997
3238.54465593261	8102
3240.51152018461	8006.5
3242.47786358502	7983
3244.44368636621	8048
3246.40898876031	8082
3248.37377099923	8150
3250.33803331458	8005
3252.30177593775	8078.5
3254.26499909987	8091.5
3256.22770303184	8149.5
3258.18988796427	8123.5
3260.15155412755	8059
3262.1127017518	8053.5
3264.0733310669	8059
3266.03344230246	8129
3267.99303568784	8010
3269.95211145215	8071
3271.91066982422	8139
3273.86871103267	8084
3275.82623530581	8124
3277.7832428717	8092.5
3279.73973395818	8129
3281.69570879278	8220.5
3283.6511676028	8088
3285.60611061527	8114.5
3287.56053805694	8163.5
3289.51445015432	8047
3291.46784713364	8041
3293.42072922088	8196.5
3295.37309664173	8079.5
3297.32494962163	8084
3299.27628838575	8036.5
3301.227113159	8088.5
3303.17742416601	8138
3305.12722163114	8221.5
3307.07650577848	8067
3309.02527683185	8108.5
3310.9735350148	8161
3312.9212805506	8213.5
3314.86851366225	8160.5
3316.81523457249	8117.5
3318.76144350377	8154
3320.70714067825	8181
3322.65232631783	8040
3324.59700064415	8154.5
3326.54116387854	8128
3328.48481624207	8053.5
3330.42795795551	8111
3332.37058923938	8035
3334.31271031389	8094
3336.25432139898	8060
3338.19542271432	8071.5
3340.13601447927	7998.5
3342.07609691292	8124
3344.01567023407	8030.5
3345.95473466124	8067.5
3347.89329041266	8011
3349.83133770627	8056.5
3351.76887675973	8035.5
3353.70590779039	8017.5
3355.64243101534	8045
3357.57844665135	8071.5
3359.51395491492	8087.5
3361.44895602224	8072.5
3363.38345018922	8061
3365.31743763148	8102
3367.25091856432	8135.5
3369.18389320278	8058
3371.11636176156	8102.5
3373.0483244551	8088
3374.97978149754	8227
3376.91073310269	8190.5
3378.84117948409	8045
3380.77112085498	8076
3382.70055742826	8043
3384.62948941659	8116.5
3386.55791703227	8086.5
3388.48584048733	8142.5
3390.41325999348	8194
3392.34017576214	8217
3394.2665880044	8131.5
3396.19249693107	8166.5
3398.11790275263	8131.5
3400.04280567926	8178
3401.96720592084	8183
3403.89110368692	8179
3405.81449918675	8252
3407.73739262928	8141
3409.65978422311	8234.5
3411.58167417658	8262.5
3413.50306269768	8272.5
3415.42394999408	8209.5
3417.34433627316	8228.5
3419.26422174195	8232.5
3421.18360660721	8252
3423.10249107532	8190
3425.02087535239	8266.5
3426.93875964421	8160.5
3428.8561441562	8225.5
3430.77302909353	8116
3432.68941466097	8166.5
3434.60530106301	8213
3436.52068850383	8133.5
3438.43557718726	8212.5
3440.34996731681	8157.5
3442.26385909565	8165
3444.17725272664	8159
3446.09014841231	8169.5
3448.00254635486	8090.5
3449.91444675614	8114
3451.82584981771	8152
3453.73675574076	8133.5
3455.64716472616	8056
3457.55707697445	8090
3459.46649268584	8072
3461.37541206018	8095
3463.28383529703	8061
3465.19176259555	8155
3467.09919415464	8093.5
3469.00613017278	8022.5
3470.91257084817	8039.5
3472.81851637863	7984
3474.72396696168	8065
3476.62892279446	7959.5
3478.53338407379	7939
3480.43735099614	8058
3482.34082375764	8016.5
3484.24380255404	7984
3486.1462875808	7973
3488.048279033	8030
3489.94977710537	8060.5
3491.85078199231	8065
3493.75129388783	7981
3495.65131298566	8037
3497.5508394791	7913
3499.44987356115	8007.5
