
200.475549058548	1118
203.359249075907	1127.75
206.241936533635	1135.5
209.123612299129	1117.25
212.004277237673	1116.25
214.883932212466	1113.75
217.762578084596	1132
220.640215713076	1119.25
223.516845954837	1137.5
226.392469664723	1137.75
229.26708769552	1144
232.14070089794	1138.75
235.013310120656	1141.75
237.884916210263	1134.25
240.755520011335	1162.5
243.625122366404	1183.5
246.493724115942	1182
249.361326098424	1188.75
252.227929150296	1205.25
255.093534105978	1167.5
257.958141797884	1183
260.821753056447	1180.5
263.684368710063	1191.5
266.545989585164	1163.75
269.406616506196	1168.5
272.266250295612	1170
275.124891773896	1170
277.982541759568	1158.75
280.839201069171	1178.75
283.69487051732	1162.5
286.549550916647	1172.25
289.403243077853	1179.5
292.255947809714	1165.5
295.10766591904	1178.75
297.958398210747	1177.5
300.808145487801	1178.25
303.656908551278	1183
306.504688200319	1193.5
309.351485232171	1181.5
312.197300442189	1192.75
315.042134623818	1217.25
317.885988568629	1210.5
320.72886306631	1215.5
323.570758904654	1196.5
326.411676869615	1194.5
329.251617745253	1202
332.09058231378	1195.5
334.928571355551	1186.5
337.765585649082	1188.5
340.601625971023	1200.5
343.436693096224	1203
346.270787797657	1195
349.103910846512	1193.5
351.936063012115	1207.75
354.767245062016	1227.75
357.597457761927	1218.25
360.426701875771	1216
363.25497816566	1217.5
366.082287391928	1228.25
368.908630313104	1253
371.734007685947	1223
374.558420265435	1242
377.381868804758	1244.75
380.204354055371	1242.25
383.02587676694	1248
385.846437687393	1263
388.666037562889	1276
391.484677137862	1304.5
394.302357154986	1367
397.119078355226	1391
399.934841477789	1397.75
402.749647260174	1400.25
405.563496438161	1380.25
408.376389745808	1340.25
411.188327915483	1294.75
413.999311677824	1303
416.809341761793	1305
419.61841889465	1292.25
422.426543801968	1293.25
425.233717207637	1296.25
428.039939833878	1282
430.845212401226	1296.75
433.64953562856	1300.5
436.452910233093	1301.25
439.255336930382	1311.25
442.056816434335	1301.25
444.857349457205	1334.75
447.65693670962	1327
450.455578900554	1343.25
453.253276737363	1347.25
456.050030925759	1346
458.84584216986	1360.75
461.640711172138	1341.5
464.434638633487	1342
467.227625253163	1317.5
470.019671728842	1308.75
472.810778756586	1297.75
475.600947030889	1307
478.390177244633	1313
481.178470089144	1297
483.965826254145	1307.5
486.752246427819	1311.5
489.537731296754	1307.25
492.322281545992	1302
495.105897859008	1298.75
497.888580917748	1345.5
500.670331402573	1359.25
503.451149992328	1309.5
506.231037364323	1326.75
509.009994194319	1335.75
511.788021156572	1335
514.565118923787	1348.75
517.341288167165	1369.25
520.116529556395	1362.75
522.890843759669	1375
525.664231443643	1382.25
528.436693273514	1385
531.208229912947	1393.75
533.978842024138	1380.5
536.7485302678	1354.75
539.517295303154	1362.25
542.285137787949	1348.25
545.052058378482	1353.5
547.818057729542	1354.5
550.583136494504	1358.75
553.347295325253	1341.25
556.110534872227	1352
558.872855784437	1359.75
561.63425870943	1372.5
564.39474429332	1362.75
567.154313180785	1359.75
569.912966015068	1363.5
572.67070343802	1364
575.427526090021	1366.25
578.183434610073	1375.75
580.938429635768	1388.25
583.692511803256	1373.75
586.445681747326	1384.25
589.197940101341	1393
591.949287497293	1386.25
594.699724565755	1390.25
597.449251935952	1387
600.197870235697	1414.75
602.945580091462	1394.75
605.692382128313	1400.75
608.43827696997	1404
611.183265238786	1399.25
613.92734755576	1403.75
616.670524540528	1405.75
619.412796811394	1404.5
622.154164985306	1411.75
624.894629677859	1400
627.634191503348	1411
630.372851074691	1417
633.110609003535	1394
635.847465900133	1413.25
638.5834223735	1400.5
641.31847903127	1403
644.052636479799	1398.25
646.78589532413	1432.25
649.518256168005	1421.5
652.249719613883	1439.5
654.9802862629	1425
657.709956714938	1433.75
660.438731568556	1445.25
663.166611421075	1429.75
665.893596868511	1436
668.619688505609	1450.25
671.344886925857	1452.25
674.06919272149	1431
676.792606483454	1467.5
679.515128801468	1454
682.236760263971	1438.5
684.95750145819	1450.25
687.677352970088	1465
690.396315384383	1456.5
693.114389284579	1491.25
695.831575252931	1469.25
698.547873870488	1467
701.26328571705	1477.25
703.977811371216	1461.75
706.691451410374	1458.25
709.404206410691	1481.75
712.116076947135	1486
714.827063593468	1476.25
717.537166922259	1476.5
720.246387504871	1496.25
722.954725911495	1488.5
725.662182711119	1483.5
728.368758471555	1483.75
731.074453759451	1498.25
733.779269140254	1503
736.483205178258	1494.5
739.186262436579	1489
741.888441477189	1501.25
744.589742860895	1526.75
747.290167147334	1494.75
749.989714895015	1542.5
752.688386661259	1525.75
755.386183002312	1541
758.083104473222	1547
760.779151627929	1544.25
763.474325019226	1560.5
766.168625198792	1531.25
768.86205271717	1550
771.554608123806	1540.5
774.246291966996	1545.5
776.937104793953	1566.5
779.627047150767	1538.5
782.316119582421	1547.75
785.004322632802	1559
787.691656844701	1570.5
790.378122759819	1555.25
793.063720918755	1579.25
795.74845186104	1573.25
798.432316125098	1606.75
801.115314248287	1630.25
803.797446766894	1690.75
806.478714216137	1823.25
809.159117130155	1934.5
811.838656042029	1902.75
814.517331483774	1798.5
817.19514398637	1703.25
819.872094079703	1643.5
822.548182292652	1632.25
825.223409153026	1643.25
827.897775187597	1655.25
830.571280922097	1673
833.243926881234	1678.5
835.915713588667	1718.25
838.586641567043	1757
841.256711337974	1758.25
843.925923422052	1758.5
846.594278338864	1730
849.261776606963	1687.25
851.928418743908	1674.75
854.594205266247	1631
857.259136689525	1641.25
859.923213528287	1645.25
862.586436296082	1647
865.24880550546	1632.5
867.910321667994	1644.5
870.570985294264	1648.5
873.230796893869	1613.5
875.88975697543	1645.25
878.5478660466	1631.25
881.205124614036	1629.25
883.861533183448	1633.75
886.517092259586	1659.75
889.171802346213	1649.25
891.825663946165	1651
894.478677561296	1665
897.130843692517	1652.5
899.782162839801	1661.5
902.432635502166	1666.25
905.082262177682	1658.75
907.73104336351	1655.25
910.378979555833	1692.25
913.026071249948	1681.75
915.672318940189	1676.75
918.317723119977	1679.5
920.96228428181	1684.75
923.606002917288	1686.25
926.248879517054	1677.25
928.890914570882	1706
931.532108567604	1726.25
934.172461995178	1703.75
936.811975340628	1758
939.450649090111	1712.75
942.088483728854	1747
944.725479741231	1716
947.361637610698	1738.5
949.996957819825	1735.75
952.63144085032	1734.25
955.26508718299	1725.75
957.897897297789	1755.5
960.529871673774	1759.25
963.161010789143	1755
965.791315121223	1795
968.420785146496	1825.75
971.049421340547	1868.75
973.677224178144	1896.5
976.304194133165	1874.25
978.930331678668	1825
981.555637286841	1785.25
984.180111429039	1754
986.803754575769	1764.75
989.426567196693	1750.5
992.048549760653	1751.75
994.669702735642	1789.5
997.290026588849	1782.25
999.909521786598	1782.25
1002.52818879443	1788
1005.14602807703	1795.5
1007.76304009828	1777.25
1010.37922532126	1779.5
1012.99458420824	1767.25
1015.60911722064	1780.5
1018.22282481911	1772.75
1020.8357074635	1802.25
1023.44776561284	1800.25
1026.05899972539	1780.5
1028.66941025859	1818.5
1031.27899766911	1811.5
1033.8877624128	1852.5
1036.49570494477	1871
1039.1028257193	1845.25
1041.70912518995	1849.75
1044.31460380945	1854
1046.91926202978	1850.75
1049.52310030213	1833.5
1052.12611907697	1842.25
1054.72831880395	1856.75
1057.329699932	1835.25
1059.93026290926	1836.25
1062.53000818313	1855.75
1065.12893620026	1840.25
1067.72704740654	1818.75
1070.32434224711	1816.75
1072.92082116639	1843.5
1075.51648460802	1833.5
1078.11133301493	1838
1080.70536682931	1829.25
1083.29858649259	1846.25
1085.89099244551	1854
1088.48258512806	1834
1091.07336497949	1838
1093.66333243836	1879.25
1096.2524879425	1850.75
1098.84083192899	1852
1101.42836483425	1886.25
1104.01508709395	1879
1106.60099914306	1875
1109.18610141586	1883.5
1111.77039434588	1869.25
1114.35387836603	1910.5
1116.93655390844	1901.75
1119.51842140458	1889
1122.09948128525	1891
1124.67973398051	1894.25
1127.25917991977	1917.25
1129.83781953174	1915.5
1132.41565324445	1932.75
1134.99268148526	1924.75
1137.56890468084	1946.5
1140.14432325718	1945.5
1142.71893763963	1993
1145.29274825285	2016
1147.86575552081	2017.75
1150.43795986686	2053.5
1153.00936171367	2082
1155.57996148323	2095.25
1158.14975959691	2075.75
1160.7187564754	2127.5
1163.28695253876	2110.5
1165.85434820638	2166.75
1168.42094389704	2159.25
1170.98674002881	2113
1173.55173701918	2102.75
1176.11593528499	2046.25
1178.67933524243	2002.25
1181.24193730705	1998.75
1183.8037418938	1983.25
1186.36474941697	1998.75
1188.92496029025	1991.25
1191.48437492668	1976.5
1194.0429937387	1976.25
1196.60081713811	1969.75
1199.15784553612	1985.25
1201.71407934332	2012.25
1204.26951896966	1959.25
1206.82416482453	1993.75
1209.37801731668	1993.25
1211.93107685425	2017
1214.4833438448	2069.75
1217.03481869529	2076
1219.58550181206	2037.5
1222.13539360089	2043.75
1224.68449446692	2092.75
1227.23280481476	2025.25
1229.78032504839	2013.75
1232.32705557121	2048.5
1234.87299678605	2029.25
1237.41814909516	2042.25
1239.96251290019	2039.25
1242.50608860226	2054.5
1245.04887660185	2073
1247.59087729894	2060.25
1250.13209109286	2075.5
1252.67251838247	2135.5
1255.21215956601	2112.25
1257.75101504113	2104.25
1260.28908520499	2100.25
1262.82637045415	2120.75
1265.36287118461	2109
1267.89858779184	2126
1270.43352067075	2123
1272.96767021569	2142
1275.5010368205	2136.25
1278.03362087842	2137
1280.56542278221	2146.75
1283.09644292403	2116.25
1285.62668169556	2170
1288.1561394879	2167.25
1290.68481669165	2150.25
1293.21271369685	2155.5
1295.73983089304	2163.75
1298.2661686692	2187.25
1300.79172741383	2220.75
1303.31650751487	2217.75
1305.84050935976	2238
1308.36373333541	2240.25
1310.88617982822	2223.5
1313.4078492241	2220.25
1315.92874190839	2239
1318.44885826599	2251.5
1320.96819868124	2269
1323.48676353801	2296.25
1326.00455321965	2363.25
1328.521568109	2386.25
1331.03780858842	2388
1333.55327503978	2404.75
1336.06796784442	2365.5
1338.58188738323	2344.75
1341.09503403658	2353.75
1343.60740818437	2335.5
1346.11901020598	2364
1348.62984048037	2349.25
1351.13989938596	2357.75
1353.6491873007	2372.25
1356.15770460209	2401.75
1358.66545166712	2433.25
1361.17242887233	2445.25
1363.67863659378	2412.25
1366.18407520705	2427
1368.68874508726	2400.5
1371.19264660907	2400
1373.69578014668	2404.75
1376.19814607381	2388
1378.69974476373	2394.25
1381.20057658924	2387.5
1383.7006419227	2401.25
1386.19994113603	2393.75
1388.69847460065	2359
1391.19624268756	2370
1393.69324576732	2375.75
1396.18948421004	2372.5
1398.68495838535	2403
1401.17966866248	2397.5
1403.6736154102	2400.5
1406.16679899686	2387.5
1408.65921979033	2357.75
1411.1508781581	2402
1413.64177446718	2416.25
1416.13190908416	2379.5
1418.62128237524	2438.25
1421.10989470614	2424.75
1423.59774644217	2439.25
1426.08483794823	2427.25
1428.57116958879	2426.5
1431.05674172789	2499.75
1433.54155472916	2549.75
1436.02560895582	2603.75
1438.50890477068	2587.75
1440.99144253608	2578.75
1443.47322261404	2591
1445.9542453661	2620.25
1448.43451115342	2641
1450.91402033676	2671.25
1453.39277327646	2713.25
1455.87077033246	2787.5
1458.34801186431	2823.5
1460.82449823115	2846
1463.30022979173	2796.25
1465.77520690441	2753.25
1468.24942992714	2742.75
1470.72289921748	2666.75
1473.19561513262	2642
1475.66757802934	2627.5
1478.13878826404	2666.25
1480.60924619276	2643.75
1483.0789521711	2620
1485.54790655434	2628
1488.01610969734	2620.25
1490.48356195459	2618
1492.95026368022	2614.25
1495.41621522796	2630.25
1497.88141695119	2640.25
1500.3458692029	2668.75
1502.80957233573	2664.75
1505.27252670192	2646.5
1507.7347326534	2656.75
1510.19619054165	2680.25
1512.65690071788	2655.75
1515.11686353289	2660.5
1517.5760793371	2659.5
1520.0345484806	2722.25
1522.49227131314	2716.25
1524.94924818408	2673.25
1527.40547944245	2685.5
1529.86096543691	2715
1532.31570651578	2723.75
1534.76970302704	2726.75
1537.2229553183	2710.5
1539.67546373685	2743.25
1542.1272286296	2718.75
1544.57825034318	2785.25
1547.0285292238	2759.75
1549.4780656174	2762.5
1551.92685986953	2803.25
1554.37491232545	2787.5
1556.82222333005	2808
1559.26879322789	2806
1561.71462236323	2850.75
1564.15971107996	2859.5
1566.60405972167	2837
1569.0476686316	2825.5
1571.49053815268	2889.25
1573.93266862751	2895.25
1576.37406039838	2917
1578.81471380725	2895.75
1581.25462919573	2892
1583.69380690517	2927
1586.13224727656	2953.5
1588.56995065059	2941.5
1591.00691736765	2902.75
1593.44314776777	2958
1595.87864219074	2949.5
1598.31340097597	2983
1600.74742446261	2925
1603.18071298948	2929
1605.61326689511	2990.75
1608.04508651771	2986.75
1610.47617219521	2949.75
1612.90652426521	2984
1615.33614306503	2956
1617.7650289317	2997.5
1620.19318220193	2988.5
1622.62060321214	2964
1625.04729229848	2957.5
1627.47324979677	2998.5
1629.89847604256	2971.75
1632.32297137112	3031.75
1634.74673611742	2975.5
1637.16977061614	3004.75
1639.59207520166	3010.5
1642.01365020812	2993
1644.43449596933	3001.25
1646.85461281884	3030.5
1649.27400108993	3062.5
1651.69266111558	3050.75
1654.11059322849	3055.25
1656.52779776111	3070
1658.9442750456	3063.75
1661.36002541383	3080.75
1663.77504919742	3098
1666.18934672772	3139
1668.60291833579	3143.25
1671.01576435243	3143.75
1673.42788510819	3120.25
1675.83928093333	3181.75
1678.24995215785	3211.5
1680.65989911149	3200.5
1683.06912212375	3213.25
1685.47762152383	3251
1687.88539764068	3223.25
1690.29245080301	3245
1692.69878133927	3238.75
1695.10438957763	3260.75
1697.50927584602	3278.5
1699.91344047213	3317.75
1702.31688378338	3285.25
1704.71960610694	3295
1707.12160776972	3340
1709.52288909843	3313.25
1711.92345041946	3336
1714.32329205902	3358
1716.72241434301	3293.25
1719.12081759716	3339.5
1721.51850214689	3354.75
1723.91546831742	3376.25
1726.31171643371	3354
1728.70724682049	3375.75
1731.10205980225	3398.5
1733.49615570323	3329.75
1735.88953484746	3388.5
1738.28219755871	3372.5
1740.67414416053	3379
1743.06537497623	3390.25
1745.4558903289	3384.25
1747.84569054139	3403.25
1750.23477593633	3361.25
1752.6231468361	3421.75
1755.01080356288	3427
1757.3977464386	3433.75
1759.783975785	3442.25
1762.16949192355	3456
1764.55429517554	3476.5
1766.93838586201	3476.75
1769.32176430379	3503.75
1771.70443082149	3473.75
1774.08638573552	3528.5
1776.46762936603	3494.5
1778.84816203299	3532.5
1781.22798405614	3526.75
1783.60709575502	3563.25
1785.98549744894	3573.5
1788.363189457	3558.5
1790.74017209811	3575
1793.11644569094	3606.75
1795.49201055396	3610.5
1797.86686700545	3596.5
1800.24101536348	3603.5
1802.61445594588	3632.5
1804.98718907032	3629
1807.35921505424	3661.25
1809.73053421488	3650.5
1812.10114686928	3654.75
1814.47105333431	3617
1816.84025392657	3724
1819.20874896252	3677.5
1821.57653875842	3674.5
1823.9436236303	3676
1826.31000389401	3676.25
1828.67567986522	3673.75
1831.0406518594	3747.25
1833.40492019179	3716
1835.7684851775	3715.75
1838.1313471314	3740.75
1840.49350636819	3717.25
1842.85496320238	3721.25
1845.21571794829	3728.25
1847.57577092004	3771
1849.9351224316	3754.25
1852.29377279671	3731.5
1854.65172232894	3841.75
1857.00897134171	3775
1859.36552014821	3821.25
1861.72136906146	3780
1864.07651839433	3796.5
1866.43096845946	3795.75
1868.78471956935	3822.5
1871.13777203631	3807
1873.49012617247	3851
1875.84178228977	3819
1878.19274070001	3861.25
1880.54300171478	3911.25
1882.89256564551	3885.75
1885.24143280346	3903.75
1887.58960349972	3925
1889.93707804519	3922
1892.28385675061	3943
1894.62993992657	3929.5
1896.97532788346	4001.75
1899.32002093153	3967.5
1901.66401938082	4021
1904.00732354126	4039.5
1906.34993372257	4023.25
1908.69185023433	4080
1911.03307338592	4040
1913.37360348663	4094.25
1915.7134408455	4057.25
1918.05258577147	4088.25
1920.3910385733	4094.25
1922.72879955958	4117.75
1925.06586903876	4076.25
1927.4022473191	4120.75
1929.73793470875	4138.75
1932.07293151565	4138.75
1934.40723804763	4150.25
1936.74085461234	4150.5
1939.07378151727	4156.75
1941.40601906977	4162.5
1943.73756757704	4169.75
1946.06842734612	4159.25
1948.39859868389	4158.5
1950.7280818971	4142.25
1953.05687729233	4171
1955.38498517601	4148.5
1957.71240585444	4178.25
1960.03913963377	4194.25
1962.36518681997	4188.25
1964.69054771891	4172.25
1967.01522263627	4204
1969.33921187762	4187.75
1971.66251574837	4198.25
1973.98513455379	4217.75
1976.30706859901	4231.75
1978.62831818899	4264.5
1980.94888362858	4240
1983.2687652225	4234
1985.58796327528	4233.75
1987.90647809136	4246.25
1990.224309975	4293.5
1992.54145923038	4298
1994.85792616145	4327.25
1997.17371107212	4309.5
1999.4888142661	4352.75
2001.80323604699	4385.25
2004.11697671825	4366.5
2006.4300365832	4393.75
2008.74241594504	4401.25
2011.05411510683	4384.5
2013.36513437149	4434.5
2015.6754740418	4408.25
2017.98513442044	4420.75
2020.29411580994	4455.75
2022.60241851269	4437.5
2024.91004283098	4438.75
2027.21698906692	4499.5
2029.52325752256	4492.25
2031.82884849977	4534.5
2034.1337623003	4557.75
2036.4379992258	4513.5
2038.74155957777	4565
2041.04444365759	4588
2043.34665176652	4579
2045.64818420569	4575.25
2047.9490412761	4586.75
2050.24922327865	4586.75
2052.54873051409	4590.75
2054.84756328307	4585.25
2057.14572188611	4598.5
2059.44320662359	4643.75
2061.74001779581	4619.25
2064.03615570292	4616.75
2066.33162064497	4590.75
2068.62641292185	4607.75
2070.9205328334	4584.5
2073.21398067927	4616.75
2075.50675675905	4618
2077.79886137218	4636.5
2080.090294818	4676
2082.38105739572	4635
2084.67114940445	4650
2086.96057114319	4670.25
2089.24932291079	4642
2091.53740500603	4648
2093.82481772755	4661
2096.11156137388	4626.25
2098.39763624345	4676.75
2100.68304263458	4667.75
2102.96778084545	4691
2105.25185117417	4688
2107.5352539187	4675.25
2109.81798937692	4695.5
2112.1000578466	4697.75
2114.38145962537	4740.5
2116.66219501079	4748.25
2118.94226430028	4716.25
2121.22166779118	4684.25
2123.50040578071	4750.25
2125.77847856598	4765.5
2128.05588644399	4749
2130.33262971165	4761.25
2132.60870866575	4797
2134.88412360298	4840.25
2137.15887481995	4846.25
2139.43296261311	4849.25
2141.70638727887	4822.5
2143.97914911348	4877
2146.25124841312	4893
2148.52268547387	4885.75
2150.79346059169	4903
2153.06357406245	4954.75
2155.33302618192	4925.25
2157.60181724576	4950.75
2159.86994754953	4957.75
2162.1374173887	4915.5
2164.40422705864	4920
2166.6703768546	4954.5
2168.93586707177	4964.75
2171.20069800519	4994
2173.46486994985	4960.75
2175.72838320061	4994.25
2177.99123805226	5005.75
2180.25343479946	4981.5
2182.5149737368	4949.75
2184.77585515876	4981.5
2187.03607935974	4957.75
2189.295646634	5049.5
2191.55455727578	4997.75
2193.81281157915	4990.25
2196.07040983813	5010.25
2198.32735234663	5024.75
2200.58363939848	5065.75
2202.83927128737	5024.5
2205.09424830697	4998.25
2207.34857075081	5048.75
2209.60223891231	5026
2211.85525308485	5051.75
2214.10761356169	5022.5
2216.35932063598	5070.25
2218.61037460082	5034
2220.86077574918	5055.25
2223.11052437395	5045.5
2225.35962076795	5080.75
2227.60806522389	5051
2229.85585803439	5048.5
2232.10299949198	5066.75
2234.34948988911	5109
2236.59532951813	5071.5
2238.84051867131	5090.25
2241.08505764082	5147.75
2243.32894671876	5123.25
2245.57218619713	5112.75
2247.81477636783	5105
2250.05671752269	5167.25
2252.29800995345	5091.25
2254.53865395175	5112.5
2256.77864980916	5112
2259.01799781714	5079.75
2261.2566982671	5140.75
2263.49475145035	5093
2265.73215765808	5126.25
2267.96891718143	5172.25
2270.20503031145	5139
2272.44049733909	5110.5
2274.67531855524	5159.75
2276.90949425067	5164.5
2279.1430247161	5171
2281.37591024214	5138
2283.60815111933	5140.5
2285.83974763813	5172.5
2288.07070008888	5197.75
2290.30100876189	5161
2292.53067394735	5171.25
2294.75969593537	5201.5
2296.98807501599	5209.75
2299.21581147916	5213
2301.44290561476	5189
2303.66935771254	5208.25
2305.89516806224	5238.25
2308.12033695344	5178.25
2310.34486467572	5217
2312.5687515185	5251
2314.79199777118	5244.5
2317.01460372303	5299.5
2319.23656966327	5178
2321.45789588102	5242
2323.67858266534	5311.5
2325.89863030519	5270.25
2328.11803908946	5235.5
2330.33680930694	5286.5
2332.55494124637	5297.25
2334.77243519638	5249.5
2336.98929144553	5248.5
2339.20551028232	5293.5
2341.42109199514	5226.75
2343.63603687231	5274.25
2345.85034520207	5228
2348.0640172726	5246.25
2350.27705337195	5220.75
2352.48945378815	5200.5
2354.70121880911	5267.75
2356.91234872269	5271.75
2359.12284381662	5243.75
2361.33270437861	5228.5
2363.54193069626	5199.25
2365.7505230571	5232.25
2367.95848174858	5235.25
2370.16580705805	5255.75
2372.37249927281	5225.75
2374.57855868008	5213.75
2376.78398556699	5236.75
2378.98878022058	5226
2381.19294292784	5243.25
2383.39647397565	5266.25
2385.59937365084	5197.25
2387.80164224015	5220.5
2390.00328003024	5219.25
2392.20428730769	5221
2394.40466435902	5221.75
2396.60441147062	5234.5
2398.80352892888	5256
2401.00201702004	5268.5
2403.19987603033	5275.25
2405.39710624582	5188.75
2407.59370795257	5212
2409.78968143654	5184.75
2411.9850269836	5214.75
2414.17974487957	5184.25
2416.37383541016	5235
2418.56729886102	5243.5
2420.76013551771	5189.75
2422.95234566575	5173.5
2425.14392959054	5192.5
2427.33488757741	5225.75
2429.52521991161	5207
2431.71492687834	5197
2433.90400876269	5223.75
2436.0924658497	5222.75
2438.2802984243	5210.5
2440.46750677137	5225.75
2442.6540911757	5182.75
2444.840051922	5156.25
2447.0253892949	5233.75
2449.21010357898	5203.5
2451.3941950587	5173.5
2453.57766401846	5231
2455.7605107426	5191.25
2457.94273551536	5165
2460.12433862091	5159
2462.30532034333	5095
2464.48568096665	5182
2466.66542077478	5151
2468.8445400516	5123
2471.02303908088	5135
2473.20091814631	5133
2475.37817753152	5087.75
2477.55481752005	5118
2479.73083839537	5100
2481.90624044087	5165.75
2484.08102393984	5142.25
2486.25518917552	5109.25
2488.42873643105	5131.25
2490.60166598952	5077.5
2492.77397813391	5109.25
2494.94567314713	5112.5
2497.11675131202	5102.25
2499.28721291133	5142.5
2501.45705822775	5110.75
2503.62628754386	5107.75
2505.7949011422	5134.75
2507.96289930518	5168.5
2510.13028231518	5147.5
2512.29705045447	5124.75
2514.46320400525	5146.25
2516.62874324964	5091.75
2518.79366846969	5156.25
2520.95797994734	5108.75
2523.12167796448	5160.5
2525.28476280291	5207.25
2527.44723474435	5176
2529.60909407043	5161.5
2531.77034106272	5183.75
2533.93097600269	5216
2536.09099917173	5183.25
2538.25041085116	5233.5
2540.40921132222	5211.75
2542.56740086606	5225
2544.72497976374	5160.5
2546.88194829626	5188.75
2549.03830674452	5205
2551.19405538936	5179.75
2553.34919451152	5163.5
2555.50372439165	5221.5
2557.65764531034	5176.5
2559.81095754807	5174
2561.96366138529	5172.25
2564.1157571023	5183.75
2566.26724497936	5150.75
2568.41812529664	5125.5
2570.56839833422	5144
2572.71806437208	5138
2574.86712369017	5136.75
2577.01557656829	5109.25
2579.16342328621	5110.75
2581.31066412358	5081
2583.45729936	5159.75
2585.60332927493	5075.75
2587.74875414781	5070.25
2589.89357425796	5066.25
2592.0377898846	5108
2594.18140130691	5123.75
2596.32440880395	5084
2598.4668126547	5106
2600.60861313806	5120.25
2602.74981053284	5111
2604.89040511778	5118.5
2607.0303971715	5094.25
2609.16978697256	5065
2611.30857479943	5085.75
2613.44676093048	5102.25
2615.584345644	5079.75
2617.72132921821	5103.5
2619.8577119312	5125.75
2621.99349406102	5118.75
2624.1286758856	5086.75
2626.2632576828	5092.25
2628.39723973037	5110.5
2630.53062230598	5068.5
2632.66340568723	5161.75
2634.7955901516	5168.75
2636.92717597651	5155
2639.05816343927	5144.25
2641.18855281709	5141.5
2643.31834438712	5106.5
2645.44753842641	5177.5
2647.5761352119	5163.25
2649.70413502044	5183
2651.83153812884	5204.25
2653.95834481374	5186
2656.08455535174	5207.5
2658.21017001934	5188.5
2660.33518909294	5175.75
2662.45961284885	5213.5
2664.58344156328	5152.75
2666.70667551235	5231.5
2668.82931497211	5185.5
2670.95136021848	5140.5
2673.0728115273	5207.5
2675.19366917432	5202.75
2677.31393343519	5178
2679.43360458548	5159.75
2681.55268290064	5220.5
2683.67116865603	5206.75
2685.78906212694	5188.75
2687.90636358854	5215.25
2690.02307331589	5213
2692.13919158398	5199.25
2694.2547186677	5227.25
2696.36965484184	5201.75
2698.48400038108	5180.25
2700.59775556002	5216.5
2702.71092065314	5222
2704.82349593485	5240.75
2706.93548167942	5246
2709.04687816108	5204.25
2711.1576856539	5285.25
2713.26790443188	5289.5
2715.37753476892	5262.75
2717.48657693883	5270.25
2719.59503121528	5261.75
2721.70289787187	5339.5
2723.8101771821	5320.75
2725.91686941936	5286.5
2728.02297485693	5335.5
2730.128493768	5278.5
2732.23342642565	5310.25
2734.33777310285	5301.25
2736.4415340725	5304
2738.54470960735	5346
2740.64729998007	5310.75
2742.74930546322	5305.25
2744.85072632927	5286
2746.95156285056	5249.5
2749.05181529934	5309
2751.15148394775	5270
2753.25056906782	5307.5
2755.34907093148	5281.25
2757.44698981056	5308
2759.54432597675	5258.75
2761.64107970166	5254.25
2763.7372512568	5320
2765.83284091354	5290
2767.92784894316	5229.75
2770.02227561683	5261.25
2772.11612120562	5288.75
2774.20938598047	5267.25
2776.3020702122	5234
2778.39417417156	5283.25
2780.48569812916	5255.25
2782.57664235549	5269.5
2784.66700712095	5294.25
2786.75679269582	5326.75
2788.84599935027	5283.75
2790.93462735434	5254.75
2793.02267697797	5300.5
2795.11014849098	5303.5
2797.19704216309	5286
2799.28335826389	5308.5
2801.36909706286	5279.5
2803.45425882935	5322
2805.53884383263	5292
2807.6228523418	5323.75
2809.7062846259	5312.75
2811.78914095381	5358.75
2813.87142159431	5346.25
2815.95312681606	5351
2818.0342568876	5356
2820.11481207734	5374.75
2822.19479265359	5422.25
2824.27419888454	5435
2826.35303103823	5391
2828.43128938261	5574.25
2830.5089741855	5550
2832.58608571459	5684.5
2834.66262423745	5847.25
2836.73859002154	5966.5
2838.81398333418	6170.25
2840.88880444257	6173
2842.96305361381	6074.25
2845.03673111483	5970
2847.10983721247	5870
2849.18237217344	5787
2851.2543362643	5792.25
2853.32572975152	5732
2855.39655290143	5766.5
2857.46680598021	5796.25
2859.53648925393	5920.75
2861.60560298855	6113.75
2863.67414744986	6334.5
2865.74212290356	6552
2867.80952961519	6755
2869.87636785019	6764
2871.94263787384	6787
2874.00833995131	6781.75
2876.07347434762	6863
2878.13804132768	6914
2880.20204115624	7120.25
2882.26547409795	7214
2884.32834041729	7268.25
2886.39064037865	7121.75
2888.45237424623	7035.75
2890.51354228415	6932.75
2892.57414475635	6900
2894.63418192667	6740.5
2896.69365405878	6719.5
2898.75256141625	6758
2900.81090426247	6828.5
2902.86868286072	6821
2904.92589747415	6972.5
2906.98254836574	6961.5
2909.03863579836	6846.5
2911.09416003471	6759
2913.14912133738	6654.75
2915.20351996879	6618.5
2917.25735619126	6598
2919.31063026691	6634.75
2921.36334245776	6627
2923.41549302568	6650
2925.46708223239	6649.25
2927.51811033945	6613
2929.56857760831	6458.75
2931.61848430026	6356.25
2933.66783067643	6231.5
2935.71661699781	6098
2937.76484352525	6061.25
2939.81251051946	6072
2941.85961824097	6017.5
2943.90616695021	6072.25
2945.95215690742	6168
2947.9975883727	6323
2950.04246160601	6516.25
2952.08677686716	6625.75
2954.13053441577	6629
2956.17373451138	6657
2958.21637741331	6813
2960.25846338077	6878.5
2962.29999267279	6921.75
2964.34096554826	6838.25
2966.3813822659	6683
2968.42124308432	6492
2970.46054826191	6345
2972.49929805694	6182.75
2974.53749272752	6030.5
2976.5751325316	5969.5
2978.61221772697	5857
2980.64874857127	5864.5
2982.68472532196	5753.25
2984.72014823637	5742.75
2986.75501757164	5781.5
2988.78933358476	5781.5
2990.82309653258	5725.75
2992.85630667175	5773
2994.88896425879	5746.5
2996.92106955003	5711.25
2998.95262280165	5780
3000.98362426967	5750.5
3003.01407420993	5782
3005.04397287812	5761
3007.07332052976	5852.5
3009.1021174202	5770.25
3011.13036380461	5796
3013.15805993802	5760.5
3015.18520607526	5788.75
3017.21180247102	5814.5
3019.23784937979	5836.25
3021.26334705593	5853.5
3023.28829575358	5843.5
3025.31269572676	5849.5
3027.33654722926	5873.75
3029.35985051475	5871
3031.38260583668	5838
3033.40481344838	5870.25
3035.42647360296	5883
3037.44758655337	5888.75
3039.46815255237	5871.75
3041.48817185258	5944.25
3043.50764470642	5877.25
3045.5265713661	5873
3047.54495208372	5875.25
3049.56278711114	5873
3051.58007670007	5921.5
3053.59682110204	5972.75
3055.61302056838	5883
3057.62867535025	5895.25
3059.64378569864	5945
3061.65835186434	5870
3063.67237409796	5900.5
3065.68585264993	5924.5
3067.69878777049	5900.5
3069.71117970969	5958
3071.72302871742	5882
3073.73433504334	5930
3075.74509893695	5968.5
3077.75532064757	5937.5
3079.76500042431	5912.75
3081.7741385161	5905
3083.78273517168	5983.5
3085.7907906396	5952.25
3087.79830516821	5943.5
3089.80527900568	5970
3091.81171239998	5928
3093.81760559889	5912.75
3095.82295884999	5961.5
3097.82777240067	5938
3099.83204649813	5965.75
3101.83578138937	5977.75
3103.83897732117	5925
3105.84163454016	5961.5
3107.84375329272	5939
3109.84533382508	5966.75
3111.84637638322	5925.25
3113.84688121298	5982
3115.84684855994	5962
3117.84627866951	5976.5
3119.84517178689	6029.25
3121.84352815709	6026.75
3123.84134802489	6006.75
3125.83863163489	6056.25
3127.83537923148	6025.75
3129.83159105884	6017.5
3131.82726736092	6056
3133.82240838151	6084.75
3135.81701436417	6040
3137.81108555224	6111.75
3139.80462218887	6091.25
3141.79762451699	6083.25
3143.79009277931	6127
3145.78202721835	6123
3147.77342807641	6119.25
3149.76429559556	6150.25
3151.75463001769	6151.5
3153.74443158445	6110.25
3155.73370053727	6152
3157.7224371174	6071.75
3159.71064156584	6113.25
3161.69831412337	6132.5
3163.68545503058	6092
3165.67206452784	6126.75
3167.65814285526	6128.25
3169.64369025279	6152.25
3171.6287069601	6138
3173.61319321668	6148.5
3175.59714926179	6201
3177.58057533446	6188.25
3179.56347167348	6159.5
3181.54583851746	6147.75
3183.52767610475	6151.5
3185.50898467348	6095.25
3187.48976446156	6178.25
3189.47001570668	6171.75
3191.44973864628	6202.75
3193.42893351758	6214.25
3195.40760055759	6255.5
3197.38574000308	6214.25
3199.36335209055	6200
3201.34043705634	6203.25
3203.3169951365	6252.5
3205.29302656687	6206
3207.26853158306	6203.25
3209.24351042042	6247.25
3211.21796331411	6207.75
3213.19189049901	6297.25
3215.16529220979	6267
3217.13816868087	6255.75
3219.11052014642	6294.75
3221.08234684042	6324
3223.05364899654	6283.25
3225.02442684826	6313.5
3226.99468062882	6265.25
3228.96441057117	6365.25
3230.93361690808	6337
3232.90229987202	6324.25
3234.87045969526	6348
3236.8380966098	6338.25
3238.8052108474	6402
3240.77180263957	6449.75
3242.73787221758	6434.75
3244.70341981245	6426
3246.66844565494	6413
3248.63294997559	6418.25
3250.59693300464	6464.25
3252.56039497213	6397.25
3254.52333610782	6486.75
3256.48575664121	6475.5
3258.44765680157	6531.25
3260.40903681791	6501.25
3262.36989691896	6431.25
3264.33023733323	6418.25
3266.29005828896	6538.5
3268.24936001411	6494
3270.20814273642	6511.25
3272.16640668333	6439
3274.12415208206	6520
3276.08137915954	6478
3278.03808814245	6497.5
3279.99427925722	6530.5
3281.94995272998	6436.75
3283.90510878664	6524.5
3285.85974765282	6571.25
3287.81386955387	6548.25
3289.7674747149	6519.25
3291.72056336072	6550.75
3293.6731357159	6529
3295.62519200472	6509
3297.57673245121	6484
3299.52775727911	6523.75
3301.4782667119	6489.5
3303.4282609728	6494
3305.37774028472	6559.75
3307.32670487034	6574.5
3309.27515495204	6505.25
3311.22309075193	6576.25
3313.17051249184	6540.5
3315.11742039334	6592.75
3317.06381467769	6564.75
3319.00969556592	6562.5
3320.95506327872	6511.75
3322.89991803656	6514.5
3324.84426005959	6457.25
3326.78808956769	6555
3328.73140678046	6495.5
3330.67421191721	6532
3332.61650519696	6547.75
3334.55828683848	6478.25
3336.4995570602	6583.75
3338.44031608032	6503
3340.3805641167	6537
3342.32030138695	6513
3344.25952810837	6529.5
3346.19824449799	6523.25
3348.13645077251	6475.5
3350.07414714839	6532.25
3352.01133384175	6482.25
3353.94801106845	6514
3355.88417904405	6462.75
3357.8198379838	6519.25
3359.75498810266	6510.25
3361.6896296153	6518.75
3363.62376273609	6503.5
3365.5573876791	6564.25
3367.4905046581	6563.25
3369.42311388656	6515.75
3371.35521557765	6520.5
3373.28680994422	6560.75
3375.21789719888	6530
3377.14847755385	6591
3379.07855122109	6609.25
3381.00811841228	6544.25
3382.93717933874	6624.5
3384.86573421152	6613
3386.79378324134	6581.25
3388.72132663863	6570.5
3390.64836461351	6629.75
3392.57489737576	6616
3394.50092513489	6663
3396.42644810007	6597.25
3398.35146648018	6635.5
3400.27598048375	6593
3402.19999031902	6588
3404.12349619393	6682.25
3406.04649831607	6670.75
3407.96899689273	6663.5
3409.89099213087	6619.5
3411.81248423716	6682
3413.73347341792	6674.25
3415.65395987914	6677.5
3417.57394382654	6675.25
3419.49342546547	6662.25
3421.41240500097	6672
3423.33088263775	6697
3425.24885858022	6608.75
3427.16633303244	6597
3429.08330619813	6652.5
3430.99977828072	6629.5
3432.91574948329	6597.75
3434.83122000859	6604.25
3436.74619005903	6628.25
3438.66065983671	6625
3440.57462954339	6659.25
3442.4880993805	6570.25
3444.40106954912	6546.75
3446.31354025	6567.5
3448.22551168358	6571.75
3450.13698404992	6549.75
3452.04795754877	6575.5
3453.95843237955	6558.25
3455.86840874132	6505.5
3457.7778868328	6521
3459.68686685238	6575.5
3461.5953489981	6585.25
3463.50333346766	6536.75
3465.41082045843	6560
3467.3178101674	6521.75
3469.22430279125	6539.25
3471.13029852629	6485.5
3473.0357975685	6552.75
3474.94080011349	6487
3476.84530635654	6543.5
3478.74931649257	6528.75
3480.65283071616	6524.25
3482.55584922151	6469.5
3484.45837220251	6465.25
3486.36039985266	6512.5
3488.26193236512	6461.25
3490.16296993268	6553.5
3492.0635127478	6517.25
3493.96356100256	6513.5
3495.86311488869	6479
3497.76217459756	6475.25
3499.66074032018	6423.75
