200.090469251518	787.75
202.974751419362	782
205.858021632263	785.5
208.740280737522	788.5
211.621529580443	783.5
214.501769004371	783.75
217.380999850626	784.25
220.25922295859	789
223.136439165646	786.25
226.012649307235	790.75
228.88785421682	791.75
231.762054725918	795.5
234.635251664113	788.75
237.507445859021	791.75
240.378638136346	792.5
243.248829319855	799.75
246.11802023137	795.75
248.986211690826	803.25
251.853404516227	806.25
254.719599523654	789
257.584797527335	793.75
260.44899933954	802.75
263.312205770682	798.25
266.174417629303	801.25
269.035635722015	802.75
271.895860853609	804
274.755093826978	798.75
277.613335443144	810.5
280.470586501309	805.25
283.326847798766	809.5
286.182120131019	804
289.036404291684	809
291.889701072574	811.25
294.742011263643	800
297.593335653048	805.25
300.443675027094	811.5
303.293030170295	810.75
306.141401865367	815.5
308.988790893174	806
311.835198032837	818.5
314.680624061635	805
317.525069755113	818.75
320.36853588697	806
323.211023229178	822.5
326.052532551923	804.75
328.893064623604	818.5
331.732620210885	810.75
334.57120007867	810.5
337.408804990093	812.25
340.245435706565	821.5
343.081092987733	810.5
345.915777591523	814.25
348.749490274145	825.75
351.582231790049	824.25
354.414002891997	816.5
357.244804331021	825
360.074636856443	819.25
362.903501215886	824.25
365.731398155265	823.5
368.558328418814	820
371.384292749062	824.5
374.209291886869	822.25
377.033326571407	818.75
379.85639754017	835
382.678505529009	821.75
385.499651272065	825.5
388.319835501872	826
391.139058949258	831.5
393.957322343453	834
396.774626412011	831.5
399.590971880847	830
402.406359474258	826
405.220789914893	820.5
408.034263923801	821.5
410.8467822204	832.5
413.658345522483	820.5
416.468954546242	831.5
419.278610006277	839
422.087312615557	833.25
424.895063085503	838.75
427.701862125901	829
430.507710444981	836.5
433.312608749366	832.5
436.116557744146	842
438.919558132791	841.25
441.721610617238	853.5
444.522715897856	835.25
447.322874673457	837.5
450.122087641299	838.5
452.920355497092	836
455.717678935009	828.5
458.514058647681	845.75
461.309495326219	835
464.103989660191	844.25
466.89754233765	837.5
469.690154045114	838.75
472.481825467625	834.5
475.272557288674	850.25
478.062350190281	835.5
480.851204852952	841.75
483.639121955683	847.75
486.426102176007	842.75
489.212146189955	832.5
491.997254672093	838
494.781428295471	846.25
497.564667731716	843.25
500.346973650958	845.75
503.128346721878	842.75
505.90878761169	857.75
508.688296986151	857.5
511.46687550957	852.5
514.244523844831	840.25
517.021242653354	848
519.797032595132	854
522.571894328732	851.25
525.345828511279	853.25
528.11883579849	850
530.890916844655	848.25
533.662072302668	848.75
536.432302823985	846.25
539.201609058684	845.25
541.96999165542	850.25
544.737451261473	850
547.503988522723	862.25
550.26960408366	856.5
553.034298587394	850.25
555.798072675669	852.75
558.560926988819	846.75
561.322862165849	852.5
564.083878844369	839.25
566.843977660654	858
569.603159249604	857.5
572.361424244769	853.25
575.118773278369	857.75
577.87520698124	865
580.630725982905	860
583.385330911566	866.25
586.139022394076	858.5
588.891801055954	855.25
591.643667521406	859.5
594.394622413318	859.5
597.144666353273	864.5
599.893799961512	858.5
602.64202385701	871.5
605.389338657413	859.25
608.135744979089	868.25
610.881243437092	852.5
613.625834645191	856.25
616.369519215881	864.5
619.112297760374	860.5
621.854170888604	855.75
624.595139209225	860
627.335203329614	860.25
630.074363855914	856
632.81262139299	856
635.549976544436	855.75
638.286429912612	847.5
641.021982098635	863
643.756633702364	863
646.49038532241	868.75
649.223237556176	857.25
651.955190999808	851.5
654.686246248224	851.5
657.416403895135	860.75
660.145664533011	864.25
662.874028753133	858.25
665.601497145537	870.75
668.328070299071	863.25
671.05374880138	858.75
673.778533238885	877
676.502424196839	862.5
679.225422259297	876
681.947528009099	866.25
684.668742027927	867.75
687.389064896281	865.25
690.108497193465	867.75
692.827039497621	864.75
695.544692385724	857
698.261456433585	872.25
700.977332215847	870.75
703.692320305981	860.75
706.406421276337	867.75
709.11963569808	869.25
711.831964141256	865
714.54340717474	864.5
717.253965366304	869.75
719.963639282552	873
722.672429488961	858.5
725.380336549904	868.75
728.087361028596	867.25
730.793503487166	858.5
733.498764486594	872
736.203144586758	868.25
738.906644346447	866.25
741.60926432331	866.75
744.311005073912	870.5
747.011867153727	868
749.711851117121	870
752.410957517375	877.25
755.109186906677	871.75
757.806539836132	874
760.503016855779	867.25
763.198618514551	882.75
765.893345360346	877
768.587197939964	877.25
771.28017679914	878.75
773.972282482566	865.25
776.663515533859	868.5
779.353876495581	871
782.043365909241	871.5
784.731984315327	862.25
787.419732253235	875
790.106610261366	869
792.792618877058	867.25
795.477758636618	864.5
798.162030075313	869.25
800.845433727423	881.5
803.52797012615	878.75
806.209639803714	868.5
808.890443291304	878.5
811.570381119098	875.75
814.249453816265	872.25
816.927661910959	861.75
819.60500593036	879.25
822.281486400603	874
824.957103846864	863
827.631858793316	875.75
830.305751763135	884.25
832.978783278519	881.5
835.650953860677	879.5
838.322264029848	878.5
840.992714305292	885.25
843.662305205289	880.5
846.331037247157	893.75
848.998910947241	886.5
851.665926820933	893.25
854.332085382674	875.25
856.997387145915	883.75
859.661832623191	884
862.325422326066	897.25
864.988156765172	885.5
867.650036450181	888.5
870.311061889846	881.75
872.971233591961	897.75
875.630552063409	886.5
878.28901781013	895
880.946631337138	880.5
883.603393148533	883.5
886.259303747484	895.75
888.914363636246	877.25
891.568573316155	887.5
894.22193328767	873.75
896.874444050281	887
899.526106102625	886.25
902.176919942416	873.25
904.826886066483	887.5
907.476004970747	887
910.124277150255	878.75
912.77170309913	889
915.418283310642	910.75
918.064018277175	894.75
920.708908490222	895.25
923.352954440405	879
925.996156617486	890.75
928.638515510334	900.25
931.280031606966	904.5
933.920705394521	888.75
936.560537359303	889.25
939.199527986737	899.75
941.837677761392	903.25
944.474987167006	895.25
947.111456686438	898.75
949.747086801734	895.25
952.38187799407	893
955.015830743792	899
957.648945530418	899.25
960.281222832633	904.25
962.91266312826	892.25
965.543266894336	897.5
968.173034607058	896
970.801966741779	887
973.43006377307	898.75
976.057326174661	904.5
978.683754419471	888
981.309348979623	901.5
983.93411032642	908
986.558038930361	886.75
989.181135261144	894.25
991.803399787692	901.25
994.424832978086	899.25
997.045435299653	908.5
999.665207218906	901
1002.2841492016	903
1004.90226171266	899
1007.51954521628	914
1010.13600017584	910.75
1012.75162705397	902.75
1015.3664263125	906
1017.9803984125	911.75
1020.5935438143	924.5
1023.20586297741	896.25
1025.81735636063	917.25
1028.42802442196	921.75
1031.03786761869	925.75
1033.64688640732	923.5
1036.2550812436	908
1038.86245258255	914
1041.46900087844	923.75
1044.07472658479	933.75
1046.67963015438	913.25
1049.28371203927	928.5
1051.88697269075	932
1054.48941255943	946.25
1057.09103209513	957.75
1059.691831747	961.75
1062.29181196343	969
1064.89097319211	952.75
1067.48931587999	938.25
1070.08684047333	926
1072.68354741766	928.25
1075.27943715779	937.75
1077.87451013787	930
1080.46876680127	931
1083.06220759071	929.5
1085.65483294822	923
1088.24664331509	929.25
1090.83763913194	925.75
1093.42782083869	932.75
1096.01718887459	930.25
1098.60574367818	931.25
1101.19348568732	931.5
1103.78041533919	921
1106.3665330703	928
1108.95183931646	926.5
1111.53633451284	922.75
1114.12001909391	929.25
1116.70289349349	953
1119.2849581447	937.75
1121.86621348005	954.75
1124.44665993134	957
1127.02629792973	971.25
1129.60512790574	974.25
1132.18315028919	970
1134.76036550929	940.5
1137.3367739946	947
1139.912376173	945.5
1142.48717247176	937
1145.06116331748	933.75
1147.63434913616	947.25
1150.20673035312	941.75
1152.77830739307	942.75
1155.34908068007	936.75
1157.91905063757	948.75
1160.48821768838	950.5
1163.05658225471	951
1165.6241447581	945
1168.19090561951	939.75
1170.75686525927	936.25
1173.32202409708	950.75
1175.88638255206	933.75
1178.44994104269	934.25
1181.01269998684	945.5
1183.57465980182	946
1186.13582090427	931.5
1188.69618371026	938
1191.25574863529	942.75
1193.8145160942	934.5
1196.37248650129	938.5
1198.92966027025	945.75
1201.48603781416	940.5
1204.04161954556	934.25
1206.59640587635	935.25
1209.15039721788	931.75
1211.70359398092	938.75
1214.25599657564	949
1216.80760541166	940.75
1219.35842089801	944.5
1221.90844344314	947.25
1224.45767345496	957.5
1227.00611134077	949
1229.55375750736	942.75
1232.10061236092	954.5
1234.64667630707	964.5
1237.1919497509	966
1239.73643309692	945.75
1242.28012674912	963.5
1244.82303111089	954
1247.36514658511	953.5
1249.9064735741	962.5
1252.44701247964	959
1254.98676370294	971.75
1257.52572764469	971.25
1260.06390470506	971.5
1262.60129528365	970
1265.13789977954	965
1267.67371859128	967
1270.20875211688	983.5
1272.74300075384	970.75
1275.2764648991	985.5
1277.80914494911	990.5
1280.34104129978	988.25
1282.87215434652	998
1285.40248448419	994.25
1287.93203210715	1002.25
1290.46079760927	1037.75
1292.98878138385	1058.75
1295.51598382375	1052.25
1298.04240532127	1040.75
1300.56804626822	1022
1303.09290705593	1005.75
1305.6169880752	995
1308.14028971632	1009.5
1310.66281236913	1005.5
1313.18455642292	1011.75
1315.70552226653	999.75
1318.22571028829	1004.5
1320.74512087603	1014.5
1323.26375441711	994.5
1325.7816112984	1000.75
1328.29869190629	1005.25
1330.81499662666	1017.25
1333.33052584497	1013.25
1335.84527994613	1013.75
1338.35925931464	1028.5
1340.87246433446	1031.5
1343.38489538916	1032
1345.89655286177	1017
1348.40743713487	1027.5
1350.91754859059	1028.5
1353.42688761059	1031.75
1355.93545457606	1040.5
1358.44324986772	1041
1360.95027386588	1040.75
1363.45652695032	1048.25
1365.96200950042	1049.25
1368.4667218951	1048.5
1370.97066451281	1048.25
1373.47383773156	1046.25
1375.97624192891	1054.25
1378.47787748199	1042.5
1380.97874476746	1057.25
1383.47884416157	1045
1385.97817604009	1040.25
1388.4767407784	1045
1390.9745387514	1058.5
1393.47157033358	1071.5
1395.96783589898	1056.5
1398.46333582124	1040.5
1400.95807047354	1056.5
1403.45204022864	1070.75
1405.94524545889	1059.25
1408.4376865362	1063.75
1410.92936383205	1075.25
1413.42027771752	1093
1415.91042856328	1100.75
1418.39981673955	1104.75
1420.88844261615	1100.5
1423.37630656249	1094.75
1425.86340894757	1099.75
1428.34975013999	1116
1430.83533050792	1116.5
1433.32015041912	1142.75
1435.80421024098	1152.25
1438.28751034045	1170.5
1440.77005108411	1176.5
1443.25183283812	1169.75
1445.73285596824	1154.25
1448.21312083984	1156.5
1450.69262781791	1163.25
1453.17137726702	1170.5
1455.64936955137	1165.5
1458.12660503477	1181.5
1460.60308408063	1172.5
1463.07880705197	1171
1465.55377431145	1193
1468.02798622133	1172.5
1470.50144314348	1177.25
1472.97414543941	1172.75
1475.44609347024	1173.5
1477.91728759673	1173.75
1480.38772817924	1160.25
1482.85741557777	1178
1485.32635015194	1172.75
1487.79453226103	1187
1490.26196226391	1165.75
1492.72864051911	1194.5
1495.1945673848	1183
1497.65974321874	1212.25
1500.1241683784	1199.5
1502.58784322083	1203.5
1505.05076810274	1200.25
1507.51294338049	1216.25
1509.97436941009	1218.75
1512.43504654717	1228.5
1514.89497514704	1239.25
1517.35415556462	1235.25
1519.81258815451	1256.5
1522.27027327095	1254.25
1524.72721126784	1241.75
1527.18340249874	1251
1529.63884731684	1269.75
1532.09354607502	1254.25
1534.5474991258	1278.25
1537.00070682136	1258
1539.45316951355	1278.75
1541.90488755388	1270
1544.35586129353	1284
1546.80609108336	1312.75
1549.25557727385	1307
1551.70432021519	1310
1554.15232025725	1333.25
1556.59957774953	1331.25
1559.04609304125	1308.25
1561.49186648127	1332
1563.93689841815	1338.25
1566.38118920011	1346
1568.82473917506	1340.25
1571.2675486906	1366.75
1573.70961809399	1366
1576.15094773219	1363.25
1578.59153795184	1380.25
1581.03138909928	1373.75
1583.47050152051	1390.25
1585.90887556123	1381.5
1588.34651156686	1390.75
1590.78340988246	1388
1593.21957085283	1398.5
1595.65499482245	1406
1598.08968213547	1417.75
1600.52363313578	1407
1602.95684816694	1413.5
1605.38932757224	1412.25
1607.82107169462	1440
1610.25208087677	1409.5
1612.68235546107	1437.25
1615.1118957896	1428.5
1617.54070220415	1434.25
1619.96877504621	1414
1622.39611465701	1447
1624.82272137746	1434.75
1627.24859554818	1447.25
1629.67373750953	1469.5
1632.09814760155	1464
1634.52182616404	1450
1636.94477353647	1462
1639.36699005806	1436
1641.78847606776	1461.25
1644.20923190418	1482.25
1646.62925790573	1480.75
1649.04855441048	1477.5
1651.46712175628	1478.25
1653.88496028066	1496.75
1656.3020703209	1515.75
1658.71845221401	1510.5
1661.13410629671	1526.5
1663.54903290547	1522
1665.96323237649	1527.25
1668.37670504571	1531.75
1670.78945124877	1519.5
1673.20147132109	1564.75
1675.61276559779	1576.75
1678.02333441377	1562
1680.43317810362	1568.75
1682.84229700171	1594.5
1685.25069144213	1597.25
1687.65836175872	1584.25
1690.06530828507	1589
1692.47153135451	1607.25
1694.87703130009	1589.75
1697.28180845467	1620.5
1699.6858631508	1595.5
1702.08919572081	1636.25
1704.49180649676	1627.75
1706.89369581049	1635
1709.29486399355	1641.25
1711.69531137731	1628.75
1714.09503829282	1647.5
1716.49404507095	1645.25
1718.89233204229	1649.5
1721.28989953721	1667.5
1723.68674788581	1651.75
1726.08287741798	1681.25
1728.47828846338	1656.75
1730.87298135139	1662.25
1733.26695641119	1652.5
1735.66021397173	1687.25
1738.05275436169	1683.5
1740.44457790954	1665.75
1742.83568494354	1681.5
1745.22607579168	1701
1747.61575078175	1682.25
1750.00471024128	1685.25
1752.39295449761	1719.25
1754.78048387783	1698.5
1757.16729870881	1710.25
1759.5533993172	1709.75
1761.93878602942	1717.75
1764.32345917168	1714
1766.70741906995	1734
1769.09066604999	1741.5
1771.47320043735	1748.75
1773.85502255735	1760
1776.2361327351	1764.5
1778.61653129548	1768.25
1780.99621856318	1786.5
1783.37519486264	1804.5
1785.75346051813	1809
1788.13101585368	1797.75
1790.5078611931	1816.5
1792.88399686002	1811.25
1795.25942317785	1819.5
1797.63414046977	1840.25
1800.00814905878	1838.5
1802.38144926766	1843
1804.75404141898	1850.75
1807.12592583514	1841.25
1809.49710283829	1865
1811.86757275039	1858.25
1814.23733589322	1854
1816.60639258834	1849.75
1818.97474315712	1894
1821.34238792073	1872
1823.70932720012	1878.25
1826.07556131608	1889.75
1828.44109058918	1885.25
1830.8059153398	1886.25
1833.17003588812	1877
1835.53345255413	1876
1837.89616565765	1919.5
1840.25817551827	1922.75
1842.61948245541	1933
1844.9800867883	1932.75
1847.33998883598	1949.75
1849.69918891729	1946.75
1852.05768735091	1959.5
1854.4154844553	1927.25
1856.77258054875	1989
1859.12897594938	1968.25
1861.4846709751	1951.25
1863.83966594366	1977.5
1866.19396117261	1972.5
1868.54755697932	2003
1870.90045368099	1993.5
1873.25265159463	1996.5
1875.60415103708	2023
1877.95495232501	2032.25
1880.30505577486	2037.25
1882.65446170299	2043.75
1885.00317042548	2064
1887.35118225832	2058.75
1889.69849751726	2071.5
1892.04511651792	2067
1894.39103957574	2098.25
1896.73626700596	2085
1899.08079912368	2112.5
1901.42463624384	2106.75
1903.76777868116	2102
1906.11022675025	2118
1908.4519807655	2132.5
1910.79304104117	2146.75
1913.13340789134	2130.75
1915.47308162992	2123
1917.81206257067	2152.75
1920.15035102718	2162.25
1922.48794731286	2137
1924.82485174096	2179
1927.16106462461	2184.25
1929.49658627672	2174.25
1931.83141701008	2177
1934.1655571373	2164.75
1936.49900697085	2164
1938.83176682301	2180.75
1941.16383700594	2184.25
1943.49521783161	2208.5
1945.82590961186	2197.5
1948.15591265835	2180.75
1950.48522728262	2195.75
1952.81385379602	2186
1955.14179250976	2184.25
1957.46904373489	2182.75
1959.79560778233	2182.75
1962.12148496284	2193.75
1964.44667558701	2196.75
1966.77117996529	2211
1969.09499840799	2205.25
1971.41813122527	2202
1973.74057872714	2221.5
1976.06234122345	2253.5
1978.38341902391	2208
1980.7038124381	2232
1983.02352177543	2227.5
1985.34254734518	2266
1987.66088945649	2243
1989.97854841833	2258.25
1992.29552453956	2259
1994.61181812887	2254.5
1996.92742949483	2298
1999.24235894586	2275.5
2001.55660679023	2292.5
2003.87017333608	2298.25
2006.18305889143	2296.25
2008.49526376413	2296.75
2010.80678826189	2328
2013.1176326923	2344.5
2015.42779736282	2329
2017.73728258075	2345
2020.04608865326	2365
2022.3542158874	2358.5
2024.66166459008	2380
2026.96843506807	2371.5
2029.274527628	2389.25
2031.57994257637	2400.75
2033.88468021957	2401.75
2036.18874086383	2411.25
2038.49212481526	2443
2040.79483237983	2429
2043.0968638634	2412.75
2045.39821957169	2462
2047.69889981028	2461.75
2049.99890488462	2447.25
2052.29823510006	2458.75
2054.59689076181	2459.5
2056.89487217492	2461.75
2059.19217964437	2428.25
2061.48881347497	2438
2063.7847739714	2496.25
2066.08006143826	2485
2068.37467618	2473.25
2070.66861850093	2498
2072.96188870527	2511
2075.25448709707	2511.75
2077.54641398031	2517.75
2079.83766965881	2494
2082.12825443629	2492.25
2084.41816861634	2503.5
2086.70741250242	2532.25
2088.99598639789	2516
2091.28389060597	2522
2093.57112542978	2540
2095.85769117232	2536.5
2098.14358813644	2509.25
2100.42881662491	2540
2102.71337694037	2578.5
2104.99726938532	2552.25
2107.28049426219	2532.5
2109.56305187325	2567.5
2111.84494252069	2557.75
2114.12616650655	2568.25
2116.40672413278	2559.25
2118.68661570121	2600.5
2120.96584151355	2619.5
2123.24440187138	2625.25
2125.52229707622	2626.75
2127.79952742943	2603
2130.07609323227	2653.5
2132.35199478588	2630.25
2134.62723239132	2650
2136.90180634949	2660.25
2139.17571696123	2671.5
2141.44896452723	2662
2143.72154934809	2664.75
2145.99347172429	2668
2148.26473195623	2674
2150.53533034415	2717
2152.80526718821	2696
2155.07454278848	2655.75
2157.3431574449	2652.5
2159.61111145728	2685.75
2161.87840512538	2699.5
2164.1450387488	2700.25
2166.41101262707	2694.25
2168.67632705959	2745
2170.94098234567	2698.5
2173.20497878451	2725.25
2175.46831667519	2726.25
2177.73099631672	2706.5
2179.99301800797	2700.5
2182.25438204772	2701
2184.51508873466	2736.5
2186.77513836735	2732.25
2189.03453124427	2748.5
2191.29326766378	2718.5
2193.55134792416	2699
2195.80877232355	2729.25
2198.06554116004	2710.5
2200.32165473157	2715.5
2202.577113336	2682
2204.83191727111	2725
2207.08606683453	2700
2209.33956232384	2707
2211.59240403648	2694.25
2213.84459226982	2693.5
2216.09612732112	2711.5
2218.34700948753	2690.5
2220.59723906612	2755.5
2222.84681635385	2692.75
2225.09574164758	2701
2227.34401524408	2687.75
2229.59163744002	2689
2231.83860853197	2681
2234.08492881639	2664.25
2236.33059858968	2657.25
2238.5756181481	2691.5
2240.81998778784	2699
2243.06370780499	2673
2245.30677849555	2691
2247.54920015539	2665.5
2249.79097308033	2692
2252.03209756607	2651
2254.27257390822	2669
2256.51240240228	2669.75
2258.75158334369	2653
2260.99011702777	2670.25
2263.22800374976	2670.25
2265.46524380477	2664
2267.70183748786	2675
2269.93778509399	2640.75
2272.17308691801	2624
2274.40774325467	2655
2276.64175439866	2613.5
2278.87512064454	2652.25
2281.10784228682	2653
2283.33991961987	2628.5
2285.571352938	2624.5
2287.80214253541	2612
2290.03228870623	2617.75
2292.26179174449	2604.25
2294.4906519441	2601.5
2296.71886959892	2639.75
2298.9464450027	2626.75
2301.1733784491	2616
2303.39967023169	2606.75
2305.62532064395	2607.25
2307.85032997926	2627.5
2310.07469853093	2603.25
2312.29842659216	2562
2314.52151445608	2598.75
2316.7439624157	2596.5
2318.96577076397	2568.5
2321.18693979374	2571
2323.40746979777	2576.75
2325.62736106873	2577
2327.8466138992	2570
2330.06522858166	2545.5
2332.28320540853	2561.25
2334.50054467212	2538
2336.71724666465	2571.25
2338.93331167827	2534
2341.14874000501	2543
2343.36353193685	2540.25
2345.57768776564	2519.75
2347.79120778319	2525
2350.00409228117	2506.5
2352.21634155121	2521.75
2354.42795588482	2497
2356.63893557342	2518.25
2358.84928090838	2514.75
2361.05899218094	2492.25
2363.26806968228	2499
2365.47651370347	2496.25
2367.68432453552	2512.75
2369.89150246933	2459.25
2372.09804779571	2451.25
2374.30396080541	2485
2376.50924178907	2474.5
2378.71389103725	2457.25
2380.91790884042	2474.25
2383.12129548897	2448.5
2385.3240512732	2446.25
2387.52617648332	2423.75
2389.72767140946	2460.5
2391.92853634165	2435.75
2394.12877156985	2417.75
2396.32837738392	2446
2398.52735407365	2417.5
2400.72570192873	2397
2402.92342123875	2398
2405.12051229325	2421.25
2407.31697538167	2419.75
2409.51281079333	2408.5
2411.70801881751	2392
2413.90259974339	2384.25
2416.09655386004	2390.5
2418.28988145648	2387
2420.48258282162	2359
2422.6746582443	2368.5
2424.86610801325	2358.5
2427.05693241713	2351.5
2429.24713174452	2349.25
2431.43670628389	2355.75
2433.62565632365	2356.75
2435.81398215212	2324.5
2438.00168405752	2347.5
2440.18876232799	2337.5
2442.37521725158	2326
2444.56104911628	2327.5
2446.74625820994	2325
2448.93084482038	2299.5
2451.1148092353	2314.25
2453.29815174233	2303.5
2455.480872629	2318.5
2457.66297218275	2304.25
2459.84445069097	2274
2462.02530844092	2268.75
2464.2055457198	2245.25
2466.38516281471	2275.75
2468.56416001267	2280.25
2470.74253760061	2253
2472.92029586537	2260.5
2475.09743509372	2252
2477.27395557232	2242.25
2479.44985758777	2258.5
2481.62514142655	2244.25
2483.79980737508	2243
2485.97385571969	2227.5
2488.14728674661	2230.75
2490.32010074198	2235.75
2492.49229799188	2210.5
2494.66387878228	2210.25
2496.83484339905	2223
2499.00519212802	2220
2501.17492525488	2213.25
2503.34404306528	2209.25
2505.51254584473	2221
2507.6804338787	2218
2509.84770745254	2170
2512.01436685153	2191
2514.18041236085	2188
2516.34584426561	2204.5
2518.51066285081	2181.75
2520.67486840138	2205
2522.83846120214	2185.25
2525.00144153784	2192.5
2527.16380969314	2197.25
2529.32556595261	2224.25
2531.48671060072	2195
2533.64724392186	2186.25
2535.80716620033	2202.25
2537.96647772034	2168.5
2540.12517876602	2169.5
2542.2832696214	2165.75
2544.44075057041	2144.5
2546.59762189691	2124.5
2548.75388388466	2129
2550.90953681735	2146
2553.06458097853	2149
2555.21901665172	2152.25
2557.37284412031	2155.5
2559.5260636676	2136.5
2561.67867557684	2133
2563.83068013113	2122.75
2565.98207761351	2123.75
2568.13286830695	2111.25
2570.28305249429	2100
2572.43263045829	2124.75
2574.58160248163	2074
2576.72996884689	2089.5
2578.87772983655	2092.5
2581.02488573303	2091.25
2583.1714368186	2072.25
2585.31738337549	2060
2587.46272568582	2068.5
2589.60746403161	2075.25
2591.75159869479	2071.25
2593.89512995722	2036.5
2596.03805810061	2044.5
2598.18038340665	2072.5
2600.32210615686	2058.5
2602.46322663274	2048.5
2604.60374511563	2073.75
2606.74366188683	2050.5
2608.88297722751	2037.25
2611.02169141875	2051.5
2613.15980474156	2051
2615.29731747681	2026.75
2617.43422990532	2051.25
2619.57054230779	2018.5
2621.70625496483	2034
2623.84136815694	1998.25
2625.97588216456	2041.25
2628.10979726799	2023.5
2630.24311374746	2024.5
2632.3758318831	2002.25
2634.50795195493	1998
2636.6394742429	2008.5
2638.77039902682	2006
2640.90072658645	2015.5
2643.0304572014	2022
2645.15959115123	2022.5
2647.28812871538	2010
2649.41607017319	2003.5
2651.5434158039	2008.75
2653.67016588665	1978.5
2655.79632070049	2001
2657.92188052436	2011.5
2660.04684563711	2000.25
2662.17121631749	1988.25
2664.29499284413	2009.75
2666.41817549558	2005.25
2668.54076455027	1974.75
2670.66276028656	1986.75
2672.78416298267	1987.75
2674.90497291675	1979.75
2677.02519036682	1961.25
2679.14481561082	2011.25
2681.26384892658	2002
2683.38229059182	1984
2685.50014088417	1952.25
2687.61740008114	1987
2689.73406846017	1955
2691.85014629854	1983
2693.96563387347	1985
2696.08053146206	1994.5
2698.1948393413	1960.5
2700.3085577881	1953.5
2702.42168707924	1978.5
2704.53422749139	1964.75
2706.64617930112	1968.25
2708.75754278492	1968.75
2710.86831821913	1950.5
2712.97850588002	1947.75
2715.08810604372	1980.25
2717.19711898628	1981.25
2719.30554498363	1959.25
2721.41338431158	1967.25
2723.52063724586	1965.75
2725.62730406206	1946
2727.73338503569	1955.25
2729.83888044213	1957.75
2731.94379055664	1936.25
2734.04811565441	1937.25
2736.15185601048	1950.25
2738.25501189979	1941.5
2740.35758359718	1923
2742.45957137738	1956
2744.56097551499	1932.5
2746.6617962845	1916.75
2748.7620339603	1924.25
2750.86168881666	1930.25
2752.96076112774	1935.5
2755.05925116758	1934.75
2757.15715921012	1924
2759.25448552917	1913.5
2761.35123039843	1902.25
2763.44739409148	1915.25
2765.5429768818	1908
2767.63797904275	1910.75
2769.73240084756	1915.5
2771.82624256934	1942.25
2773.91950448113	1901
2776.01218685579	1917.25
2778.10428996609	1907.5
2780.19581408469	1914.75
2782.28675948414	1906
2784.37712643683	1923.5
2786.46691521507	1915.25
2788.55612609104	1896.25
2790.64475933678	1905.5
2792.73281522425	1915.75
2794.82029402525	1936.5
2796.90719601149	1895.75
2798.99352145453	1862.5
2801.07927062583	1903.25
2803.16444379672	1886.25
2805.24904123841	1913.75
2807.33306322197	1907
2809.41651001838	1917.75
2811.49938189847	1897.25
2813.58167913296	1920
2815.66340199243	1915
2817.74455074734	1914
2819.82512566805	1890.5
2821.90512702475	1919.75
2823.98455508754	1908.75
2826.06341012637	1928
2828.14169241109	1932.75
2830.2194022114	1971.5
2832.29653979686	1959.25
2834.37310543694	2040
2836.44909940096	2117.5
2838.5245219581	2160.5
2840.59937337744	2261.5
2842.67365392791	2321.75
2844.74736387829	2394.5
2846.82050349727	2409.75
2848.8930730534	2411
2850.96507281506	2370
2853.03650305056	2310.5
2855.10736402802	2282.75
2857.17765601545	2266
2859.24737928074	2216
2861.31653409164	2209.25
2863.38512071574	2192
2865.45313942054	2209.75
2867.52059047335	2173
2869.58747414139	2185.5
2871.65379069173	2217
2873.7195403913	2224
2875.78472350688	2291.5
2877.84934030515	2398.25
2879.91339105262	2515
2881.97687601567	2498.25
2884.03979546053	2380.75
2886.10214965332	2279
2888.16393886	2266
2890.22516334639	2238.75
2892.28582337816	2217.5
2894.34591922087	2238
2896.40545113992	2220
2898.46441940054	2219.5
2900.52282426787	2179.75
2902.58066600687	2203
2904.63794488237	2199.25
2906.69466115906	2157.25
2908.75081510147	2140.5
2910.806406974	2132
2912.8614370409	2120.5
2914.91590556626	2101.75
2916.96981281404	2117.5
2919.02315904807	2127.5
2921.07594453199	2110.25
2923.12816952932	2095.5
2925.17983430343	2120
2927.23093911753	2123.5
2929.28148423469	2104
2931.33146991782	2104.5
2933.3808964297	2084.5
2935.42976403294	2065.25
2937.47807299	2042.25
2939.5258235632	2034.75
2941.57301601469	2026.25
2943.61965060648	1992.5
2945.66572760042	1976.25
2947.71124725823	1983.5
2949.75620984143	1967.5
2951.80061561143	1954.5
2953.84446482945	1949.75
2955.88775775656	1946.75
2957.9304946537	1952
2959.97267578162	1934.75
2962.01430140095	1945
2964.05537177211	1954.25
2966.09588715541	1937.25
2968.13584781097	1960
2970.17525399875	1959.25
2972.21410597859	1931.25
2974.25240401011	1942.75
2976.29014835283	1943
2978.32733926604	1957
2980.36397700892	1934.75
2982.40006184049	1939.25
2984.43559401955	1946.75
2986.4705738048	1935.75
2988.50500145473	1956.75
2990.53887722771	1970.25
2992.57220138189	1959.5
2994.6049741753	1975.25
2996.63719586576	1979
2998.66886671097	1963
3000.69998696843	1989
3002.73055689549	2000
3004.7605767493	2002.75
3006.79004678688	1977.75
3008.81896726505	1990.25
3010.84733844048	1958
3012.87516056966	1986
3014.9024339089	1989.25
3016.92915871433	1990.5
3018.95533524196	1997.5
3020.98096374756	2014.75
3023.00604448675	2000.25
3025.030577715	2016.5
3027.05456368757	2020
3029.07800265956	2010.5
3031.10089488589	2032
3033.12324062131	1999
3035.14504012038	2028.25
3037.16629363749	2001.25
3039.18700142685	2037.5
3041.20716374249	2023
3043.22678083826	2017.25
3045.24585296782	2029.75
3047.26438038468	2028.25
3049.28236334212	2029.75
3051.29980209329	2055.5
3053.31669689111	2011
3055.33304798835	2015.5
3057.34885563757	2041.25
3059.36412009117	2023.5
3061.37884160134	2036
3063.39302042011	2040.25
3065.40665679931	2054.5
3067.41975099058	2034
3069.43230324538	2048.75
3071.44431381495	2021.75
3073.45578295041	2030
3075.46671090261	2032.25
3077.47709792227	1996.75
3079.48694425989	2039
3081.49625016578	2062.5
3083.50501589008	2034.25
3085.5132416827	2016.75
3087.5209277934	2047.25
3089.52807447169	2019.75
3091.53468196695	2027.5
3093.54075052832	2027
3095.54628040476	2042
3097.55127184503	2051.75
3099.55572509769	2010.25
3101.55964041111	2051.75
3103.56301803346	2026
3105.5658582127	2025.75
3107.56816119661	2055.5
3109.56992723275	2034.25
3111.57115656849	2066.25
3113.571849451	2036.5
3115.57200612724	2060
3117.57162684397	2048.5
3119.57071184775	2068.75
3121.56926138493	2047.5
3123.56727570166	2062
3125.56475504389	2052.75
3127.56169965735	2080
3129.55810978757	2044
3131.55398567987	2082
3133.54932757937	2058.5
3135.54413573099	2089
3137.53841037939	2071.5
3139.53215176909	2077
3141.52536014435	2084.25
3143.51803574924	2080.25
3145.51017882762	2091.5
3147.50178962311	2090.25
3149.49286837916	2084.5
3151.48341533897	2103.25
3153.47343074553	2118.25
3155.46291484164	2115.5
3157.45186786985	2113.75
3159.44029007252	2109.75
3161.42818169179	2100.75
3163.41554296955	2119.5
3165.40237414753	2111.25
3167.38867546718	2121.25
3169.37444716975	2071.75
3171.35968949631	2120
3173.34440268764	2116.75
3175.32858698436	2120.5
3177.31224262682	2115.25
3179.29536985517	2106
3181.27796890934	2094.75
3183.26004002902	2106.5
3185.24158345368	2135
3187.22259942256	2123
3189.2030881747	2119.75
3191.18304994886	2128.25
3193.16248498363	2115.75
3195.14139351733	2147.75
3197.11977578807	2125.75
3199.09763203371	2123.5
3201.07496249191	2119.75
3203.05176740007	2139.25
3205.02804699537	2149
3207.00380151475	2161.25
3208.97903119493	2155.75
3210.95373627238	2177.5
3212.92791698335	2173
3214.90157356383	2147.75
3216.8747062496	2184.75
3218.84731527619	2144.75
3220.81940087889	2179.75
3222.79096329275	2183.5
3224.76200275259	2194.75
3226.73251949298	2205.5
3228.70251374825	2171.25
3230.67198575251	2186
3232.64093573959	2196.75
3234.6093639431	2211.5
3236.57727059641	2192.75
3238.54465593261	2221.5
3240.51152018461	2202.25
3242.47786358502	2219.5
3244.44368636621	2236.25
3246.40898876031	2213.25
3248.37377099923	2208.75
3250.33803331458	2224.75
3252.30177593775	2217
3254.26499909987	2252.25
3256.22770303184	2238
3258.18988796427	2224.75
3260.15155412755	2255.5
3262.1127017518	2219.75
3264.0733310669	2241.5
3266.03344230246	2221.25
3267.99303568784	2232
3269.95211145215	2212
3271.91066982422	2276.5
3273.86871103267	2237.25
3275.82623530581	2280
3277.7832428717	2279.75
3279.73973395818	2265.5
3281.69570879278	2226
3283.6511676028	2270.25
3285.60611061527	2249.75
3287.56053805694	2250.25
3289.51445015432	2259
3291.46784713364	2226.75
3293.42072922088	2256.75
3295.37309664173	2266.75
3297.32494962163	2270.25
3299.27628838575	2237
3301.227113159	2275.75
3303.17742416601	2264.5
3305.12722163114	2259
3307.07650577848	2263.75
3309.02527683185	2247
3310.9735350148	2268.25
3312.9212805506	2278.5
3314.86851366225	2274.75
3316.81523457249	2269.75
3318.76144350377	2278.25
3320.70714067825	2258.75
3322.65232631783	2285.25
3324.59700064415	2280
3326.54116387854	2243.75
3328.48481624207	2269
3330.42795795551	2282.5
3332.37058923938	2237.5
3334.31271031389	2274.75
3336.25432139898	2257.5
3338.19542271432	2254.75
3340.13601447927	2244
3342.07609691292	2247.75
3344.01567023407	2241.25
3345.95473466124	2277
3347.89329041266	2278.75
3349.83133770627	2268.5
3351.76887675973	2257.75
3353.70590779039	2237
3355.64243101534	2266.5
3357.57844665135	2259.75
3359.51395491492	2305.25
3361.44895602224	2268.5
3363.38345018922	2266.75
3365.31743763148	2266.75
3367.25091856432	2275.75
3369.18389320278	2268.75
3371.11636176156	2279.5
3373.0483244551	2288.75
3374.97978149754	2296
3376.91073310269	2293.25
3378.84117948409	2300
3380.77112085498	2302.25
3382.70055742826	2292.5
3384.62948941659	2287.5
3386.55791703227	2285
3388.48584048733	2282.25
3390.41325999348	2277.75
3392.34017576214	2314.75
3394.2665880044	2304.75
3396.19249693107	2312
3398.11790275263	2276.25
3400.04280567926	2317.75
3401.96720592084	2319.25
3403.89110368692	2293.25
3405.81449918675	2294.5
3407.73739262928	2311.75
3409.65978422311	2296.25
3411.58167417658	2319.75
3413.50306269768	2323.25
3415.42394999408	2321.5
3417.34433627316	2307.5
3419.26422174195	2284.5
3421.18360660721	2304.25
3423.10249107532	2307.75
3425.02087535239	2296
3426.93875964421	2291
3428.8561441562	2311.5
3430.77302909353	2297
3432.68941466097	2308
3434.60530106301	2311.75
3436.52068850383	2301.75
3438.43557718726	2319.25
3440.34996731681	2284.5
3442.26385909565	2305.75
3444.17725272664	2279
3446.09014841231	2293.25
3448.00254635486	2303.5
3449.91444675614	2319.5
3451.82584981771	2292.5
3453.73675574076	2253.25
3455.64716472616	2288.75
3457.55707697445	2296
3459.46649268584	2276.25
3461.37541206018	2293.75
3463.28383529703	2284.75
3465.19176259555	2279.5
3467.09919415464	2281
3469.00613017278	2259.5
3470.91257084817	2286.25
3472.81851637863	2279.25
3474.72396696168	2260.75
3476.62892279446	2292.75
3478.53338407379	2283.75
3480.43735099614	2293.25
3482.34082375764	2262
3484.24380255404	2312.25
3486.1462875808	2293.25
3488.048279033	2282.25
3489.94977710537	2276.5
3491.85078199231	2281
3493.75129388783	2261.25
3495.65131298566	2264.5
3497.5508394791	2285
3499.44987356115	2282.75