201.866871357051	1858
204.754250281454	1854
207.640596790938	1853.75
210.525911876299	1874
213.410196525689	1865.5
216.293451724508	1847.25
219.175678455485	1872
222.056877698662	1868
224.937050431388	1858.5
227.816197628363	1873.75
230.694320261602	1887.75
233.571419300504	1910.5
236.447495711764	1919
239.322550459507	1919.5
242.196584505182	1936.5
245.069598807626	1958.25
247.941594323078	1959.5
250.812572005154	1950.5
253.682532804884	1973.5
256.551477670699	1988
259.419407548456	1995.75
262.286323381439	2028.5
265.152226110364	2057.75
268.017116673389	2115.5
270.880996006115	2176
273.743865041622	2262.75
276.605724710436	2327.25
279.466575940562	2391.75
282.326419657496	2379.75
285.1852567842	2253
288.043088241157	2161
290.899914946349	2099.75
293.75573781526	2050.75
296.610557760898	1999
299.464375693817	1998.75
302.317192522078	2013
305.169009151297	1980.5
308.019826484655	1977.25
310.86964542287	1984.5
313.718466864233	1978.25
316.566291704614	1975.25
319.413120837457	1987
322.258955153804	1977.75
325.103795542291	1957.5
327.947642889128	1969
330.79049807819	1962.75
333.632361990927	1941.25
336.473235506444	1964
339.31311950145	1958.5
342.152014850322	1940.75
344.989922425062	1965.25
347.826843095354	1959.25
350.662777728528	1959
353.497727189577	1965
356.331692341195	1994.5
359.164674043732	1982.5
361.996673155267	1978.75
364.827690531536	1969.5
367.65772702602	1965.25
370.486783489887	1987.25
373.314860772047	2004
376.14195971912	1983.5
378.968081175466	1994.5
381.793225983212	2006
384.617394982201	2025.25
387.44058901005	2040
390.262808902131	2049.25
393.08405549161	2101.5
395.904329609395	2125.25
398.723632084213	2140.5
401.541963742569	2146.75
404.359325408779	2080.25
407.175717904938	2048.5
409.991142050982	2039.5
412.805598664665	2023
415.619088561551	2022
418.43161255505	1992.75
421.243171456415	1991
424.053766074758	2004
426.863397217017	1994.25
429.672065688024	2011
432.479772290455	2024.75
435.286517824879	2028.25
438.092303089736	2011.75
440.897128881359	2013
443.70099599399	2019.25
446.503905219761	2046
449.305857348711	2047
452.106853168796	2053
454.906893465919	2050.25
457.705979023885	2040
460.504110624439	2053.25
463.3012890473	2036
466.097515070087	2033.75
468.892789468424	2016
471.687113015869	1994
474.48048648395	1999.75
477.272910642198	2006.5
480.064386258109	2003.25
482.854914097159	1983.25
485.644494922839	2029.5
488.433129496636	2011.75
491.220818578047	2009.25
494.007562924584	2004.5
496.793363291785	2001
499.578220433217	2026.25
502.362135100473	2025.5
505.145108043209	2048
507.927140009098	2042.25
510.708231743909	2041.5
513.488383991433	2056.5
516.267597493556	2094
519.04587299022	2073.25
521.82321121946	2101
524.599612917398	2119.75
527.375078818233	2118.5
530.149609654287	2113.75
532.923206155967	2066.25
535.695869051804	2075.5
538.467599068448	2081.5
541.238396930665	2055.25
544.008263361364	2062.25
546.777199081578	2047
549.545204810493	2041.75
552.312281265436	2058.75
555.078429161898	2075.75
557.843649213533	2094.25
560.607942132156	2049.75
563.371308627753	2079.5
566.133749408495	2086
568.895265180756	2078.5
571.655856649064	2089.25
574.415524516189	2085.25
577.174269483075	2104.25
579.932092248884	2086.5
582.688993510994	2103.5
585.444973965023	2111.25
588.200034304795	2130.75
590.95417522237	2137.5
593.70739740807	2090.25
596.459701550433	2129
599.21108833628	2159.75
601.961558450668	2116.5
604.711112576933	2122.25
607.459751396673	2100.75
610.207475589748	2094.5
612.954285834338	2138.75
615.700182806879	2100.5
618.445167182101	2114.25
621.189239633055	2098
623.932400831087	2117.25
626.674651445839	2103.5
629.415992145303	2093.5
632.156423595745	2112.5
634.895946461813	2097
637.634561406449	2112.25
640.37226909096	2095.5
643.109070174978	2120.25
645.844965316508	2123
648.579955171888	2129.75
651.314040395846	2121.25
654.047221641456	2133.5
656.779499560176	2115.5
659.510874801828	2143.75
662.241348014642	2153.25
664.97091984524	2149.75
667.699590938606	2170.5
670.427361938164	2175.25
673.15423348573	2136.25
675.880206221526	2177.5
678.605280784206	2190.5
681.329457810829	2189.5
684.05273793692	2179.5
686.775121796389	2198.25
689.49661002163	2143.5
692.217203243454	2157
694.936902091144	2180.25
697.655707192425	2173.5
700.373619173493	2168.5
703.09063865901	2170.25
705.806766272093	2182.25
708.522002634378	2264.75
711.236348365946	2290.75
713.94980408538	2267.5
716.662370409762	2252.25
719.374047954676	2165.5
722.08483733419	2142.75
724.794739160909	2151.75
727.503754045949	2167
730.21188259892	2198.5
732.919125427998	2156.25
735.625483139855	2172.5
738.330956339723	2166
741.035545631374	2166.75
743.739251617106	2198.75
746.44207489779	2175.25
749.144016072852	2192
751.845075740272	2191.75
754.545254496603	2165.5
757.244552936976	2184.5
759.94297165508	2200.25
762.640511243222	2188
765.337172292249	2186
768.032955391649	2185.5
770.727861129482	2172.5
773.421890092413	2162.5
776.11504286572	2211.25
778.807320033298	2150.5
781.49872217765	2178
784.18924987991	2179.25
786.87890371984	2184
789.567684275826	2199
792.255592124908	2178
794.94262784276	2185
797.628792003703	2196
800.314085180715	2215.75
802.998507945427	2332.5
805.682060868145	2387.25
808.364744517821	2459
811.046559462105	2434.75
813.727506267311	2373.75
816.407585498422	2291.25
819.08679771913	2269.25
821.765143491822	2255.75
824.442623377563	2223.25
827.119237936127	2248
829.794987726003	2267.5
832.469873304377	2301.75
835.143895227167	2313.5
837.817054048985	2385.25
840.489350323205	2405.75
843.160784601892	2392.75
845.831357435894	2347.75
848.501069374739	2313.25
851.169920966753	2269.25
853.837912758987	2254.5
856.505045297232	2258.75
859.171319126071	2261.5
861.836734788823	2218
864.501292827579	2248.5
867.164993783208	2236.25
869.827838195361	2196.5
872.489826602454	2235.5
875.150959541701	2222.75
877.811237549104	2218.25
880.470661159456	2244.5
883.129230906357	2209.75
885.786947322205	2201
888.443810938206	2214.5
891.099822284385	2223.25
893.754981889586	2232
896.409290281452	2256
899.062747986485	2258.25
901.715355529999	2279.25
904.367113436154	2278.25
907.01802222793	2255.75
909.668082427172	2239.75
912.317294554574	2282.75
914.965659129659	2275.25
917.613176670835	2259.75
920.259847695364	2282
922.90567271936	2276.75
925.550652257825	2276.75
928.194786824621	2283
930.838076932512	2299.25
933.480523093109	2305.5
936.122125816953	2358.5
938.762885613447	2327
941.402802990899	2328.75
944.041878456523	2369.5
946.680112516428	2332.25
949.31750567563	2317.75
951.954058438081	2345.75
954.589771306633	2339
957.224644783048	2347.25
959.858679368044	2370.75
962.491875561238	2364.5
965.12423386121	2398.25
967.75575476545	2410.25
970.386438770423	2486.25
973.016286371501	2517.25
975.645298063046	2439.25
978.273474338355	2434.5
980.900815689674	2413
983.527322608243	2388.25
986.152995584245	2392
988.777835106834	2412
991.401841664148	2413
994.025015743307	2436
996.647357830407	2449.75
999.268868410534	2479.25
1001.88954796777	2466
1004.50939698518	2452.5
1007.12841594484	2448.25
1009.74660532783	2447.75
1012.36396561423	2447
1014.98049728314	2453.5
1017.59620081267	2473.25
1020.21107667995	2481
1022.82512536112	2483.25
1025.43834733138	2501.25
1028.05074306493	2495.75
1030.66231303501	2532.25
1033.27305771392	2541.75
1035.88297757299	2535
1038.49207308257	2558.25
1041.10034471211	2591.75
1043.70779293008	2545.25
1046.31441820402	2571.25
1048.92022100052	2590.75
1051.52520178525	2573.5
1054.12936102295	2553.5
1056.73269917742	2561.5
1059.33521671154	2572
1061.93691408729	2604.5
1064.53779176571	2591
1067.13785020694	2605.25
1069.73708987022	2596
1072.33551121386	2579.75
1074.93311469528	2610.5
1077.52990077103	2672.75
1080.12586989674	2958
1082.72102252714	3451.75
1085.31535911611	3805.75
1087.90888011663	3602.5
1090.50158598078	3105
1093.09347715979	2788.75
1095.68455410403	2663.5
1098.27481726296	2607.75
1100.86426708523	2628.75
1103.45290401857	2621.75
1106.04072850991	2610.25
1108.6277410053	2625
1111.21394194993	2617.75
1113.79933178816	2641
1116.3839109635	2616
1118.96767991862	2687
1121.55063909539	2673
1124.13278893477	2687.75
1126.71412987696	2698
1129.29466236132	2696.75
1131.87438682637	2700.5
1134.45330370982	2723.25
1137.03141344858	2722.5
1139.60871647872	2744
1142.18521323554	2773.5
1144.7609041535	2797.5
1147.33578966629	2850.5
1149.90987020676	2859
1152.48314620702	2882
1155.05561809835	2870.75
1157.62728631125	2838.5
1160.19815127545	2873.25
1162.76821341988	2877.5
1165.33747317271	2947.25
1167.90593096133	2915.75
1170.47358721235	2913.75
1173.04044235163	2838.75
1175.60649680425	2848
1178.17175099454	2827.5
1180.73620534607	2799.75
1183.29986028165	2783.25
1185.86271622336	2780.25
1188.42477359249	2780.5
1190.98603280964	2787.25
1193.54649429462	2809.25
1196.10615846653	2777.75
1198.66502574372	2798.25
1201.22309654385	2818.5
1203.78037128378	2810.25
1206.33685037971	2821.75
1208.89253424709	2868.25
1211.44742330063	2859.75
1214.00151795438	2840.5
1216.55481862163	2902.75
1219.10732571497	2908.5
1221.65903964631	2910.25
1224.20996082683	2861.5
1226.760089667	2887.75
1229.30942657664	2918.25
1231.85797196483	2935
1234.40572623998	2908
1236.95268980981	2945.25
1239.49886308136	2942.75
1242.04424646098	2925
1244.58884035435	2979
1247.13264516647	3010.25
1249.67566130166	3006.5
1252.21788916358	2994.25
1254.75932915524	3030
1257.29998167896	3082.5
1259.83984713639	3045.5
1262.37892592857	3062.25
1264.91721845586	3052.5
1267.45472511795	3080
1269.9914463139	3076.5
1272.52738244213	3158.5
1275.0625339004	3143
1277.59690108587	3174.25
1280.130484395	3188.75
1282.66328422367	3179
1285.19530096712	3234.25
1287.72653501993	3240.75
1290.25698677608	3260
1292.78665662894	3314.5
1295.31554497125	3308
1297.8436521951	3361.75
1300.37097869203	3348
1302.89752485292	3296.5
1305.42329106805	3335.5
1307.94827772713	3363
1310.47248521921	3356.75
1312.99591393279	3403.75
1315.51856425575	3421.75
1318.04043657536	3436.25
1320.56153127836	3472.25
1323.08184875083	3526
1325.6013893783	3623
1328.12015354572	3685.75
1330.63814163744	3695
1333.15535403727	3657.5
1335.67179112839	3682
1338.18745329347	3688
1340.70234091454	3696.5
1343.21645437314	3671.5
1345.72979405019	3694.25
1348.24236032607	3653
1350.75415358059	3732
1353.26517419303	3734.5
1355.7754225421	3811
1358.28489900594	3879.75
1360.79360396218	3881.25
1363.30153778787	3830
1365.80870085955	3834
1368.31509355319	3876.25
1370.82071624424	3885.75
1373.32556930762	3880.5
1375.8296531177	3913.5
1378.33296804832	3894.75
1380.83551447282	3897
1383.33729276399	3906.5
1385.83830329408	3934.25
1388.33854643489	3901
1390.83802255762	3986.75
1393.33673203301	3991.5
1395.83467523128	4016.75
1398.33185252211	4035
1400.82826427471	4055.75
1403.32391085777	4070.75
1405.81879263947	4075.25
1408.31290998752	4135.25
1410.80626326908	4156.5
1413.29885285087	4186.75
1415.79067909909	4217.25
1418.28174237944	4233.25
1420.77204305717	4301.5
1423.26158149702	4348
1425.75035806323	4382.5
1428.2383731196	4389
1430.72562702942	4501.25
1433.21212015554	4579.5
1435.69785286028	4688.75
1438.18282550555	4730.75
1440.66703845275	4725.5
1443.15049206284	4792.75
1445.6331866963	4833.5
1448.11512271316	4862
1450.59630047298	4966
1453.07672033486	5061.25
1455.55638265748	5070.75
1458.03528779902	5160.25
1460.51343611725	5178.75
1462.99082796946	5165.75
1465.46746371252	5104.25
1467.94334370285	5123
1470.41846829642	5075.5
1472.89283784878	5112.5
1475.36645271503	5155.25
1477.83931324983	5117.25
1480.31141980743	5191
1482.78277274164	5199.5
1485.25337240583	5192.5
1487.72321915297	5158
1490.19231333557	5233
1492.66065530578	5260.75
1495.12824541525	5265.75
1497.5950840153	5387.75
1500.06117145678	5270.25
1502.52650809014	5378.5
1504.99109426543	5412.5
1507.45493033227	5471.25
1509.91801663992	5465
1512.38035353717	5472.75
1514.84194137248	5532.25
1517.30278049386	5627.5
1519.76287124894	5668.75
1522.22221398497	5701.25
1524.68080904876	5805.75
1527.13865678681	5810.75
1529.59575754514	5875
1532.05211166945	5889.25
1534.50771950503	5898
1536.96258139678	5967
1539.41669768924	6036.5
1541.87006872656	5985.5
1544.32269485252	6124.5
1546.77457641051	6109.25
1549.22571374357	6200
1551.67610719434	6239.75
1554.12575710513	6250
1556.57466381785	6268.5
1559.02282767408	6353.5
1561.47024901499	6370.25
1563.91692818144	6404.75
1566.3628655139	6520.5
1568.80806135249	6482.75
1571.252516037	6536
1573.6962299068	6660.5
1576.13920330099	6665.75
1578.58143655828	6772.25
1581.02293001704	6762
1583.46368401528	6778.5
1585.90369889071	6824.25
1588.34297498065	6877.5
1590.7815126221	6980
1593.21931215173	7021.25
1595.65637390588	7064.75
1598.09269822053	7076.25
1600.52828543135	7108.25
1602.96313587367	7091.5
1605.3972498825	7065
1607.83062779252	7025.5
1610.26326993808	7099.25
1612.69517665322	7091.75
1615.12634827165	7084.25
1617.55678512676	7061
1619.98648755163	7016.5
1622.41545587902	6988.75
1624.84369044138	7012.75
1627.27119157085	7082.25
1629.69795959924	7120.5
1632.12399485808	7051.5
1634.54929767859	7106.5
1636.97386839165	7162.75
1639.39770732789	7157.5
1641.8208148176	7100.5
1644.24319119078	7132.5
1646.66483677715	7201.25
1649.0857519061	7170.25
1651.50593690677	7220.25
1653.92539210795	7244
1656.3441178382	7274
1658.76211442575	7308.25
1661.17938219855	7273.75
1663.59592148428	7275.75
1666.01173261032	7354.5
1668.42681590377	7398
1670.84117169145	7392.25
1673.25480029991	7420.5
1675.66770205541	7461
1678.07987728393	7441.5
1680.49132631119	7549.25
1682.90204946263	7603.75
1685.31204706342	7542.5
1687.72131943846	7609.25
1690.1298669124	7642.75
1692.53768980957	7707
1694.94478845411	7616.25
1697.35116316982	7656.25
1699.75681428031	7700.25
1702.16174210887	7699.5
1704.56594697858	7694.25
1706.96942921222	7743.5
1709.37218913235	7658.75
1711.77422706125	7734.25
1714.17554332098	7718.25
1716.5761382333	7799.75
1718.97601211977	7686.5
1721.37516530169	7713.75
1723.77359810006	7703.75
1726.17131083572	7689
1728.56830382922	7706.75
1730.96457740087	7714.75
1733.36013187075	7673
1735.75496755868	7760.25
1738.14908478428	7677
1740.54248386689	7702
1742.93516512565	7677.5
1745.32712887946	7713.5
1747.71837544697	7701.5
1750.10890514662	7686.75
1752.49871829661	7660.5
1754.88781521492	7710
1757.27619621929	7688.25
1759.66386162726	7715
1762.05081175612	7677.5
1764.43704692297	7767
1766.82256744465	7768.75
1769.20737363782	7871.25
1771.59146581887	7768.75
1773.97484430405	7809.25
1776.35750940932	7884.5
1778.73946145048	7773.5
1781.12070074309	7836.75
1783.50122760249	7976
1785.88104234385	7884.75
1788.26014528209	7955.75
1790.63853673196	7960.25
1793.01621700796	8001.25
1795.39318642443	8047.75
1797.76944529549	7976.25
1800.14499393503	8051.25
1802.51983265681	7973
1804.8939617743	8051
1807.26738160085	8126.25
1809.64009244957	8132.25
1812.01209463339	8035.75
1814.38338846504	8124.25
1816.75397425706	8057.5
1819.12385232181	8106.25
1821.49302297142	8171.5
1823.86148651789	8134.25
1826.22924327299	8081.25
1828.59629354831	8143
1830.96263765526	8137.5
1833.32827590507	8140
1835.69320860877	8138
1838.05743607724	8186.25
1840.42095862113	8196.75
1842.78377655097	8178.75
1845.14589017707	8159.25
1847.50729980956	8136.5
1849.86800575843	8160.25
1852.22800833346	8193.25
1854.58730784427	8191
1856.94590460032	8295
1859.30379891087	8296.25
1861.66099108503	8280.75
1864.01748143175	8325.25
1866.37327025978	8357.25
1868.72835787773	8322
1871.08274459403	8398.5
1873.43643071697	8392.75
1875.78941655464	8431.25
1878.14170241498	8425.75
1880.4932886058	8482
1882.84417543469	8531.5
1885.19436320915	8587.5
1887.54385223646	8537.75
1889.89264282378	8639.75
1892.24073527809	8601.5
1894.58812990625	8676.75
1896.93482701493	8711.25
1899.28082691067	8711.75
1901.62612989984	8748
1903.97073628868	8734.75
1906.31464638326	8801.5
1908.6578604895	8777.75
1911.00037891321	8892.25
1913.34220196	8897.25
1915.68332993537	8886.5
1918.02376314468	8963.25
1920.36350189311	8909.25
1922.70254648573	8907.25
1925.04089722744	8886.75
1927.37855442303	8961.5
1929.71551837715	8954
1932.05178939426	8945.5
1934.38736777876	8922.25
1936.72225383484	8952
1939.0564478666	9090.5
1941.38995017799	8957.25
1943.72276107283	9067.75
1946.05488085479	8982
1948.38630982744	9009
1950.71704829419	9092
1953.04709655832	9046.5
1955.376454923	9058.25
1957.70512369126	9070.25
1960.03310316599	9064.5
1962.36039364999	8990.25
1964.68699544589	9047
1967.01290885622	9133.25
1969.33813418338	9092.75
1971.66267172965	9145
1973.98652179718	9135
1976.309684688	9231.75
1978.63216070402	9201
1980.95395014705	9348
1983.27505331873	9220.75
1985.59547052063	9315.75
1987.9152020542	9333.5
1990.23424822074	9249.25
1992.55260932146	9302
1994.87028565746	9383.75
1997.18727752968	9346.75
1999.503585239	9443.5
2001.81920908618	9410.5
2004.13414937184	9451.75
2006.44840639651	9589.75
2008.7619804606	9611.25
2011.07487186442	9544
2013.38708090815	9748.75
2015.6986078919	9677
2018.00945311564	9807.75
2020.31961687923	9707.75
2022.62909948246	9823
2024.93790122498	9833
2027.24602240636	9922
2029.55346332604	9971.5
2031.86022428337	9977
2034.16630557761	10088
2036.47170750791	10071
2038.77643037331	10079
2041.08047447275	10132.75
2043.38384010509	10170.25
2045.68652756907	10170.75
2047.98853716335	10137.75
2050.28986918648	10177.25
2052.59052393692	10273
2054.89050171302	10304.25
2057.18980281306	10290
2059.4884275352	10345.5
2061.78637617753	10320
2064.08364903802	10257.25
2066.38024641457	10260.5
2068.67616860497	10311.5
2070.97141590694	10323.5
2073.26598861809	10400.5
2075.55988703595	10332.5
2077.85311145796	10334
2080.14566218145	10379.25
2082.43753950371	10371.25
2084.72874372188	10409.5
2087.01927513307	10373.25
2089.30913403428	10412.25
2091.59832072241	10431.5
2093.88683549429	10392.25
2096.17467864666	10496.25
2098.46185047619	10562.5
2100.74835127944	10540.75
2103.03418135292	10663.25
2105.31934099303	10452.75
2107.6038304961	10564.25
2109.88765015838	10628.5
2112.17080027602	10613
2114.45328114513	10738
2116.7350930617	10663
2119.01623632165	10725.75
2121.29671122085	10737
2123.57651805505	10769.25
2125.85565711996	10783.75
2128.13412871117	10811
2130.41193312424	10907.5
2132.68907065462	10801.75
2134.96554159771	10987.25
2137.24134624881	10891.5
2139.51648490317	10941.75
2141.79095785593	10947
2144.0647654022	10985.5
2146.33790783698	10965
2148.61038545524	10909
2150.88219855182	11119.25
2153.15334742154	11013.25
2155.42383235911	11189.5
2157.6936536592	11183
2159.9628116164	11043.25
2162.23130652522	11124.75
2164.49913868011	11081.25
2166.76630837544	11069
2169.03281590552	11166.25
2171.2986615646	11125
2173.56384564685	11131
2175.82836844637	11038.75
2178.0922302572	11140
2180.35543137332	11056
2182.61797208862	11115.25
2184.87985269695	11033.25
2187.14107349208	11093
2189.40163476773	11186
2191.66153681753	11018
2193.92077993507	11068.25
2196.17936441386	11034.5
2198.43729054735	11054
2200.69455862894	11022.75
2202.95116895194	11092.5
2205.20712180962	11065.75
2207.46241749519	11007
2209.71705630179	11096.5
2211.97103852248	11040.25
2214.2243644503	11004.25
2216.47703437819	10981.75
2218.72904859905	10928.25
2220.98040740571	11060
2223.23111109095	10982.5
2225.4811599475	10905
2227.73055426799	10982
2229.97929434504	10882.75
2232.22738047118	10901.75
2234.47481293889	10894.25
2236.72159204058	10909
2238.96771806864	10907.75
2241.21319131536	10772
2243.458012073	10746.25
2245.70218063374	10798.25
2247.94569728973	10813.5
2250.18856233304	10732
2252.4307760557	10594.5
2254.67233874967	10672
2256.91325070687	10689.5
2259.15351221915	10726.75
2261.39312357831	10555.25
2263.63208507611	10575.5
2265.87039700422	10571
2268.1080596543	10619
2270.34507331792	10617.25
2272.5814382866	10515.25
2274.81715485183	10513.25
2277.05222330502	10515.5
2279.28664393755	10482
2281.52041704072	10459.25
2283.75354290581	10507.5
2285.98602182401	10489.5
2288.21785408648	10445.25
2290.44903998434	10453.75
2292.67957980862	10441
2294.90947385033	10397.25
2297.1387224004	10413.75
2299.36732574975	10491.25
2301.59528418921	10399.75
2303.82259800958	10433.5
2306.04926750158	10359.25
2308.27529295593	10250
2310.50067466325	10308.25
2312.72541291412	10364.5
2314.9495079991	10304.75
2317.17296020866	10212.25
2319.39576983323	10326.5
2321.61793716322	10269.75
2323.83946248894	10210.5
2326.06034610069	10155.75
2328.28058828871	10142.75
2330.50018934317	10132.75
2332.7191495542	10139.5
2334.93746921192	10172.25
2337.15514860633	10024.25
2339.37218802743	10041
2341.58858776516	9940.75
2343.80434810941	9983.25
2346.01946935001	9933.5
2348.23395177675	9914.75
2350.44779567939	9868.25
2352.66100134759	9801.75
2354.87356907101	9855.5
2357.08549913925	9760.5
2359.29679184185	9779
2361.50744746829	9850.25
2363.71746630804	9816.25
2365.92684865048	9694.25
2368.13559478499	9699.75
2370.34370500083	9698.25
2372.55117958727	9680.25
2374.75801883352	9659.75
2376.96422302874	9580.25
2379.16979246202	9579.5
2381.37472742243	9559
2383.57902819898	9633.75
2385.78269508063	9556.5
2387.98572835629	9510.5
2390.18812831482	9500.75
2392.38989524505	9527.25
2394.59102943573	9481.75
2396.79153117559	9442.5
2398.9914007533	9486.25
2401.19063845748	9440.25
2403.38924457672	9400.5
2405.58721939951	9413
2407.78456321435	9412.25
2409.98127630966	9378
2412.17735897382	9371.75
2414.37281149517	9366.25
2416.56763416198	9284.25
2418.76182726249	9325.75
2420.95539108487	9321.5
2423.14832591726	9249.25
2425.34063204776	9258.5
2427.53230976439	9217
2429.72335935513	9244.75
2431.91378110795	9169.75
2434.10357531071	9169
2436.29274225125	9199
2438.48128221739	9091
2440.66919549683	9103
2442.8564823773	9150.25
2445.04314314641	9110.25
2447.22917809176	9105
2449.4145875009	9138.5
2451.59937166131	9041.5
2453.78353086044	9102
2455.96706538568	9056
2458.14997552436	9056.75
2460.33226156379	9025.5
2462.51392379119	9037
2464.69496249376	8971.5
2466.87537795862	8977.5
2469.05517047288	8948.5
2471.23434032357	8915.25
2473.41288779767	8964.75
2475.59081318211	8892.75
2477.76811676378	8930.75
2479.9447988295	8865
2482.12085966605	8820.75
2484.29629956016	8888.25
2486.4711187985	8801.75
2488.64531766769	8857.25
2490.8188964543	8867.5
2492.99185544484	8791.5
2495.16419492579	8790.75
2497.33591518353	8857.75
2499.50701650444	8822
2501.67749917482	8765
2503.84736348091	8812
2506.01660970891	8753.5
2508.18523814496	8716.5
2510.35324907514	8780.75
2512.52064278551	8729
2514.68741956201	8742
2516.85357969058	8843.25
2519.01912345709	8824.25
2521.18405114735	8781.75
2523.34836304711	8775.75
2525.51205944208	8784.75
2527.6751406179	8768.5
2529.83760686016	8827
2531.99945845439	8809.5
2534.16069568606	8794
2536.3213188406	8843.75
2538.48132820336	8788.75
2540.64072405965	8821
2542.79950669471	8760.25
2544.95767639373	8828.75
2547.11523344184	8760.5
2549.27217812411	8799.5
2551.42851072555	8816.75
2553.58423153111	8841.75
2555.73934082569	8771.75
2557.89383889412	8794.25
2560.04772602118	8787.25
2562.20100249158	8766.25
2564.35366858996	8771.75
2566.50572460093	8810.75
2568.65717080901	8724.75
2570.80800749867	8761
2572.95823495433	8766.75
2575.10785346031	8740.25
2577.25686330093	8658.5
2579.40526476038	8598.25
2581.55305812282	8633.5
2583.70024367237	8621
2585.84682169303	8624.25
2587.99279246879	8580.25
2590.13815628354	8561.75
2592.28291342112	8569.75
2594.42706416531	8565
2596.5706087998	8599.25
2598.71354760826	8647.25
2600.85588087425	8619.75
2602.99760888127	8581.75
2605.13873191278	8545.5
2607.27925025214	8506
2609.41916418269	8564.25
2611.55847398764	8546.75
2613.69717995017	8494.5
2615.83528235339	8602.75
2617.97278148034	8586.25
2620.10967761398	8614.5
2622.2459710372	8659.5
2624.38166203284	8585.5
2626.51675088365	8600
2628.65123787231	8579
2630.78512328145	8582.5
2632.9184073936	8597.75
2635.05109049124	8636.75
2637.18317285676	8696.25
2639.31465477248	8658.75
2641.44553652067	8701
2643.5758183835	8649.5
2645.70550064309	8710
2647.83458358144	8677
2649.96306748053	8711.75
2652.09095262223	8706.5
2654.21823928836	8756.25
2656.34492776063	8695.5
2658.47101832071	8688.25
2660.59651125015	8693
2662.72140683047	8676.5
2664.84570534309	8700.5
2666.96940706934	8701.25
2669.0925122905	8659.5
2671.21502128773	8706
2673.33693434215	8655
2675.45825173479	8758
2677.57897374658	8736
2679.69910065839	8765.75
2681.818632751	8674.75
2683.93757030511	8708.5
2686.05591360133	8679.75
2688.17366292021	8651
2690.29081854218	8680.75
2692.40738074762	8645
2694.52334981681	8720.25
2696.63872602995	8635.75
2698.75350966713	8714
2700.86770100841	8777.75
2702.98130033371	8726
2705.09430792289	8720
2707.20672405571	8672.5
2709.31854901185	8814.25
2711.42978307091	8753.25
2713.54042651238	8807.25
2715.65047961567	8839.5
2717.7599426601	8860.5
2719.86881592491	8896
2721.97709968924	8903.25
2724.08479423213	8879.75
2726.19189983255	8909
2728.29841676934	8846.5
2730.4043453213	8944.75
2732.5096857671	8969
2734.61443838532	8880.25
2736.71860345444	8847
2738.82218125286	8909.25
2740.92517205889	8933.5
2743.02757615072	8904.75
2745.12939380646	8851.25
2747.23062530411	8812.75
2749.33127092159	8910
2751.4313309367	8890.25
2753.53080562716	8873
2755.62969527058	8988.5
2757.72800014448	8892
2759.82572052625	8896.5
2761.92285669323	8892
2764.0194089226	8970.75
2766.11537749147	8947
2768.21076267686	8957.75
2770.30556475566	8885
2772.39978400465	8969.5
2774.49342070054	8922.25
2776.58647511991	8955.25
2778.67894753923	8984.5
2780.77083823487	9053.5
2782.8621474831	8910
2784.95287556007	8944.25
2787.04302274184	8997.5
2789.13258930433	9042.5
2791.22157552338	8960
2793.30998167471	9019
2795.39780803392	9100.75
2797.4850548765	9053.5
2799.57172247786	9038.75
2801.65781111324	9081.25
2803.74332105781	9147.75
2805.82825258661	9136.75
2807.91260597457	9120.25
2809.9963814965	9099
2812.07957942711	9248.5
2814.16220004096	9139.5
2816.24424361252	9202
2818.32571041614	9225.5
2820.40660072604	9231.25
2822.48691481631	9318.25
2824.56665296098	9303
2826.64581543388	9266.75
2828.72440250876	9437.75
2830.80241445925	9517.5
2832.87985155885	9814
2834.95671408093	9970.25
2837.03300229875	10220
2839.10871648544	10279.5
2841.18385691399	10391.25
2843.25842385729	10388.5
2845.33241758808	10268.75
2847.40583837898	10262.75
2849.4786865025	10224
2851.550962231	10208.25
2853.6226658367	10220.25
2855.69379759173	10215.25
2857.76435776806	10278.75
2859.83434663753	10362.25
2861.90376447184	10551.5
2863.97261154259	10825
2866.0408881212	11033.75
2868.10859447901	11106.5
2870.17573088717	11172.5
2872.24229761673	11207
2874.30829493859	11244.75
2876.37372312352	11420.25
2878.43858244215	11740.75
2880.50287316496	11832.25
2882.56659556231	12017.75
2884.62974990439	12030
2886.69233646129	11960.75
2888.75435550293	11756.25
2890.81580729909	11724.75
2892.87669211941	11565.75
2894.93701023339	11533.25
2896.99676191039	11502.75
2899.05594741961	11577.25
2901.1145670301	11609.25
2903.1726210108	11642.25
2905.23010963045	11785.25
2907.28703315768	11685.75
2909.34339186096	11603.75
2911.39918600861	11454.5
2913.45441586879	11334.5
2915.50908170952	11312.75
2917.56318379867	11283.75
2919.61672240395	11358.25
2921.66969779291	11381.5
2923.72211023295	11370.25
2925.77395999134	11419
2927.82524733515	11370.5
2929.87597253132	11205.25
2931.92613584663	11001.75
2933.97573754769	10893.25
2936.02477790097	10757.75
2938.07325717276	10638
2940.1211756292	10689.25
2942.16853353626	10663.25
2944.21533115976	10749.25
2946.26156876536	10763.75
2948.30724661853	10927.5
2950.3523649846	11153.75
2952.39692412872	11197.75
2954.44092431587	11264.5
2956.48436581089	11227
2958.52724887843	11282
2960.56957378296	11431.75
2962.6113407888	11423.25
2964.65255016011	11277
2966.69320216083	11155.5
2968.73329705479	10973.25
2970.77283510559	10791
2972.81181657671	10642.25
2974.8502417314	10549.75
2976.88811083279	10493.5
2978.92542414378	10500
2980.96218192713	10443
2982.99838444541	10451.5
2985.034031961	10360.25
2987.06912473612	10440.25
2989.1036630328	10392
2991.13764711288	10421.75
2993.17107723804	10415.5
2995.20395366974	10476.25
2997.23627666931	10467.75
2999.26804649782	10484.5
3001.29926341624	10547.75
3003.32992768528	10513
3005.3600395655	10519.5
3007.38959931726	10516.75
3009.41860720076	10537
3011.44706347595	10566.75
3013.47496840263	10566.75
3015.50232224041	10587
3017.5291252487	10680
3019.5553776867	10517.25
3021.58107981344	10612.75
3023.60623188773	10676.75
3025.63083416822	10689.25
3027.65488691331	10687.25
3029.67839038125	10647.75
3031.70134483007	10665.5
3033.72375051759	10750.5
3035.74560770144	10667.25
3037.76691663907	10718.25
3039.78767758768	10796
3041.80789080431	10702
3043.82755654577	10740.25
3045.84667506867	10668.25
3047.8652466294	10704.25
3049.88327148418	10718.75
3051.90074988899	10684.5
3053.91768209961	10757.75
3055.9340683716	10710.75
3057.94990896033	10732
3059.96520412095	10777.5
3061.97995410838	10724.75
3063.99415917734	10740.75
3066.00781958234	10733.75
3068.02093557766	10701
3070.03350741738	10604.5
3072.04553535535	10696.5
3074.05701964521	10661.75
3076.06796054036	10672
3078.078358294	10602.5
3080.08821315912	10669.25
3082.09752538846	10782.25
3084.10629523454	10574
3086.11452294967	10671
3088.12220878592	10641
3090.12935299515	10664
3092.13595582898	10658
3094.1420175388	10612
3096.14753837579	10592.25
3098.15251859088	10660
3100.15695843477	10615.5
3102.16085815793	10616.5
3104.16421801061	10529
3106.16703824282	10528.25
3108.16931910432	10572.75
3110.17106084464	10587.75
3112.17226371308	10575
3114.17292795872	10609.75
3116.17305383034	10628
3118.17264157657	10611.5
3120.17169144571	10673.75
3122.17020368587	10597.5
3124.16817854492	10618
3126.16561627044	10624
3128.16251710982	10778.25
3130.15888131017	10740.5
3132.15470911837	10772.5
3134.15000078104	10784.25
3136.14475654455	10733.25
3138.13897665502	10740.5
3140.13266135835	10821
3142.12581090014	10789.25
3144.11842552577	10774
3146.11050548036	10862.5
3148.10205100875	10859
3150.09306235557	10828
3152.08353976515	10753
3154.07348348158	10715.25
3156.06289374869	10831
3158.05177081006	10713.75
3160.04011490899	10803.25
3162.02792628852	10859.75
3164.01520519145	10689.75
3166.00195186029	10772
3167.98816653728	10831
3169.97384946442	10785.25
3171.95900088344	10700.5
3173.94362103577	10794.5
3175.92771016259	10772
3177.91126850484	10762.5
3179.89429630312	10764.5
3181.87679379782	10644.25
3183.85876122903	10724
3185.84019883657	10776
3187.82110685997	10675
3189.80148553851	10642.75
3191.78133511116	10768.5
3193.76065581664	10800.5
3195.73944789337	10706.75
3197.7177115795	10698
3199.6954471129	10663.75
3201.67265473114	10730.75
3203.64933467153	10726.5
3205.62548717107	10737.5
3207.60111246648	10711.75
3209.57621079421	10735
3211.55078239041	10738
3213.52482749093	10730.5
3215.49834633133	10786
3217.4713391469	10857.25
3219.44380617262	10743.25
3221.41574764317	10837.25
3223.38716379296	10756.5
3225.35805485607	10897.5
3227.32842106631	10865.5
3229.29826265718	10966.5
3231.26757986187	10886
3233.2363729133	10891.25
3235.20464204405	10981
3237.17238748643	10935.75
3239.13960947243	10945
3241.10630823374	11023.5
3243.07248400174	11008
3245.03813700748	11137
3247.00326748177	11022.5
3248.96787565503	10954.75
3250.93196175742	11100
3252.89552601877	11052.25
3254.8585686686	11021.75
3256.82108993612	11062
3258.78309005022	11040.5
3260.74456923948	11045
3262.70552773215	11072.75
3264.66596575617	11091.5
3266.62588353916	11070.25
3268.58528130843	11011.5
3270.54415929094	11013.75
3272.50251771336	11059.25
3274.46035680201	11043.5
3276.4176767829	11101.25
3278.37447788171	11027.5
3280.33076032379	10981.5
3282.28652433416	11024.75
3284.24177013751	11074
3286.1964979582	11093.5
3288.15070802027	11093
3290.10440054741	11050.75
3292.05757576298	10981.75
3294.01023389001	11078.5
3295.96237515119	11116.5
3297.91399976887	11131.5
3299.86510796506	11084.5
3301.81569996142	11113.5
3303.76577597932	11066.75
3305.7153362397	11131.25
3307.66438096324	11141.25
3309.61291037024	11134.75
3311.56092468064	11198.25
3313.50842411404	11046.25
3315.45540888971	11127.25
3317.40187922656	11039.75
3319.34783534315	11109.75
3321.29327745768	11077
3323.23820578801	10966.5
3325.18262055164	11090.75
3327.1265219657	11100.5
3329.06991024699	11093.25
3331.01278561194	11054.5
3332.95514827662	11005
3334.89699845674	11093.75
3336.83833636766	11149.5
3338.77916222434	10995.75
3340.71947624143	11033.5
3342.65927863317	11083.5
3344.59856961346	10982.25
3346.53734939584	11079
3348.47561819344	11003.75
3350.41337621906	10956.75
3352.35062368513	11031
3354.28736080368	11014
3356.22358778637	10971.5
3358.15930484452	11007.75
3360.09451218904	11054
3362.02921003047	11024.25
3363.96339857898	10933.75
3365.89707804436	10975.25
3367.83024863602	10995.75
3369.76291056299	10990
3371.69506403389	10915.25
3373.62670925699	10984.75
3375.55784644016	11034.75
3377.4884757909	10993.5
3379.41859751629	11077.5
3381.34821182305	11042.75
3383.27731891749	11056.5
3385.20591900555	11158
3387.13401229276	11117.25
3389.06159898426	11133.75
3390.9886792848	11163
3392.91525339872	11164.25
3394.84132152998	11180.75
3396.76688388213	11163
3398.69194065833	11167
3400.61649206133	11131.5
3402.54053829348	11264.25
3404.46407955672	11163.75
3406.3871160526	11179.25
3408.30964798225	11210.5
3410.23167554639	11234.25
3412.15319894535	11189.5
3414.07421837904	11183
3415.99473404695	11228
3417.91474614817	11276.5
3419.83425488136	11266
3421.75326044479	11282.75
3423.67176303631	11215.5
3425.58976285332	11296.5
3427.50726009282	11192.75
3429.42425495143	11184.75
3431.34074762528	11224.25
3433.25673831012	11191.5
3435.17222720127	11147.5
3437.08721449362	11140.75
3439.00170038164	11099.25
3440.91568505936	11113.5
3442.82916872039	11043.75
3444.74215155791	11060.75
3446.65463376468	11000.25
3448.566615533	11018.5
3450.47809705476	10999
3452.3890785214	11025
3454.29956012393	11016.75
3456.20954205293	11068.5
3458.11902449853	11025.5
3460.02800765041	10946
3461.93649169784	10998.75
3463.84447682962	11024.5
3465.75196323412	10964.5
3467.65895109925	10867.5
3469.56544061249	10890
3471.47143196086	10947.5
3473.37692533093	10918.25
3475.28192090884	10868.25
3477.18641888026	10946.5
3479.09041943039	10932.25
3480.99392274402	10899.25
3482.89692900545	10909
3484.79943839853	10850.75
3486.70145110666	10873.5
3488.60296731277	10907.75
3490.50398719933	10832.25
3492.40451094836	10833.25
3494.30453874141	10820
3496.20407075956	10855.5
3498.10310718342	10863
3500.00164819315	10851.75