201.866871357051	1599.75
204.754250281454	1616
207.640596790938	1636
210.525911876299	1614.75
213.410196525689	1636.75
216.293451724508	1629.5
219.175678455485	1617.75
222.056877698662	1647.5
224.937050431388	1628
227.816197628363	1633.25
230.694320261602	1642.5
233.571419300504	1642.5
236.447495711764	1653.25
239.322550459507	1658.25
242.196584505182	1675.75
245.069598807626	1659.25
247.941594323078	1669
250.812572005154	1697
253.682532804884	1704.75
256.551477670699	1690
259.419407548456	1697
262.286323381439	1704.25
265.152226110364	1680.75
268.017116673389	1693.5
270.880996006115	1688.75
273.743865041622	1678.5
276.605724710436	1697.5
279.466575940562	1699
282.326419657496	1703.25
285.1852567842	1697.25
288.043088241157	1711
290.899914946349	1712.25
293.75573781526	1705.5
296.610557760898	1724.75
299.464375693817	1720
302.317192522078	1729
305.169009151297	1726.75
308.019826484655	1721
310.86964542287	1729
313.718466864233	1725
316.566291704614	1728.75
319.413120837457	1731.5
322.258955153804	1721.5
325.103795542291	1726
327.947642889128	1734.25
330.79049807819	1742.5
333.632361990927	1731
336.473235506444	1736.5
339.31311950145	1745.75
342.152014850322	1738
344.989922425062	1741.25
347.826843095354	1761
350.662777728528	1751.25
353.497727189577	1752.25
356.331692341195	1753.75
359.164674043732	1788.25
361.996673155267	1773
364.827690531536	1770.5
367.65772702602	1780.5
370.486783489887	1785.25
373.314860772047	1784
376.14195971912	1794.25
378.968081175466	1799.75
381.793225983212	1785.25
384.617394982201	1770.75
387.44058901005	1788.75
390.262808902131	1820.5
393.08405549161	1798
395.904329609395	1812
398.723632084213	1795.5
401.541963742569	1816.5
404.359325408779	1833.75
407.175717904938	1801.25
409.991142050982	1811.5
412.805598664665	1787.5
415.619088561551	1823.25
418.43161255505	1815.75
421.243171456415	1813.25
424.053766074758	1807.25
426.863397217017	1825
429.672065688024	1830
432.479772290455	1835.5
435.286517824879	1829.75
438.092303089736	1816.5
440.897128881359	1836.75
443.70099599399	1862.25
446.503905219761	1849.75
449.305857348711	1842.5
452.106853168796	1853
454.906893465919	1848
457.705979023885	1846.5
460.504110624439	1837.75
463.3012890473	1836.25
466.097515070087	1835.75
468.892789468424	1834
471.687113015869	1830.75
474.48048648395	1829.25
477.272910642198	1821.5
480.064386258109	1838.25
482.854914097159	1842
485.644494922839	1855
488.433129496636	1854.75
491.220818578047	1853
494.007562924584	1862
496.793363291785	1863
499.578220433217	1876
502.362135100473	1877.5
505.145108043209	1870.25
507.927140009098	1886
510.708231743909	1877.5
513.488383991433	1893.25
516.267597493556	1904.25
519.04587299022	1884.5
521.82321121946	1913.25
524.599612917398	1891.5
527.375078818233	1894.5
530.149609654287	1908.75
532.923206155967	1884.5
535.695869051804	1918.75
538.467599068448	1902.5
541.238396930665	1911
544.008263361364	1895.25
546.777199081578	1905
549.545204810493	1871.75
552.312281265436	1887.25
555.078429161898	1894.5
557.843649213533	1877.5
560.607942132156	1886.25
563.371308627753	1895
566.133749408495	1903.25
568.895265180756	1913.25
571.655856649064	1902.25
574.415524516189	1928
577.174269483075	1924.75
579.932092248884	1900.5
582.688993510994	1930.25
585.444973965023	1939
588.200034304795	1926.75
590.95417522237	1945.25
593.70739740807	1945.5
596.459701550433	1950
599.21108833628	1919.75
601.961558450668	1932.75
604.711112576933	1950.25
607.459751396673	1942.75
610.207475589748	1932.5
612.954285834338	1968.5
615.700182806879	1927.75
618.445167182101	1957.5
621.189239633055	1910.5
623.932400831087	1923.25
626.674651445839	1907.75
629.415992145303	1915.5
632.156423595745	1924.5
634.895946461813	1900
637.634561406449	1906.5
640.37226909096	1917.75
643.109070174978	1921.25
645.844965316508	1921.25
648.579955171888	1933
651.314040395846	1917.5
654.047221641456	1918.5
656.779499560176	1937.5
659.510874801828	1957.5
662.241348014642	1942.75
664.97091984524	1964
667.699590938606	1963.75
670.427361938164	1964.5
673.15423348573	1942.75
675.880206221526	1974
678.605280784206	1961.5
681.329457810829	1980
684.05273793692	1971.75
686.775121796389	1984.5
689.49661002163	1957
692.217203243454	1970.5
694.936902091144	1947.25
697.655707192425	1976
700.373619173493	1943
703.09063865901	1946
705.806766272093	1953.75
708.522002634378	1937.25
711.236348365946	1960.25
713.94980408538	1932.75
716.662370409762	1951
719.374047954676	1974.75
722.08483733419	1948.5
724.794739160909	1950
727.503754045949	1964.75
730.21188259892	1958.25
732.919125427998	1980.25
735.625483139855	1959.5
738.330956339723	1967
741.035545631374	1982.75
743.739251617106	1982.5
746.44207489779	1994.75
749.144016072852	1976.75
751.845075740272	2007
754.545254496603	1996.75
757.244552936976	1998.25
759.94297165508	1998
762.640511243222	1999.5
765.337172292249	2008.75
768.032955391649	1995.75
770.727861129482	1992
773.421890092413	1995.5
776.11504286572	2030.5
778.807320033298	1991
781.49872217765	2019.75
784.18924987991	1974.5
786.87890371984	1988.75
789.567684275826	1989.75
792.255592124908	2001.5
794.94262784276	1975.75
797.628792003703	2030.75
800.314085180715	1997.25
802.998507945427	2025
805.682060868145	2034
808.364744517821	2066
811.046559462105	2079.25
813.727506267311	2054
816.407585498422	2038.5
819.08679771913	2036.25
821.765143491822	2036.5
824.442623377563	2040.25
827.119237936127	2044
829.794987726003	2027
832.469873304377	2061.5
835.143895227167	2059.5
837.817054048985	2052.75
840.489350323205	2079.75
843.160784601892	2074.5
845.831357435894	2061.75
848.501069374739	2060.75
851.169920966753	2053.75
853.837912758987	2063.25
856.505045297232	2063.75
859.171319126071	2072
861.836734788823	2052.5
864.501292827579	2066
867.164993783208	2074.5
869.827838195361	2072
872.489826602454	2062
875.150959541701	2096.75
877.811237549104	2061
880.470661159456	2080.75
883.129230906357	2072.25
885.786947322205	2055
888.443810938206	2081.75
891.099822284385	2060.5
893.754981889586	2078.25
896.409290281452	2088.25
899.062747986485	2112.5
901.715355529999	2113.5
904.367113436154	2101.75
907.01802222793	2134.5
909.668082427172	2111
912.317294554574	2091.5
914.965659129659	2135.75
917.613176670835	2118.75
920.259847695364	2109.25
922.90567271936	2106.5
925.550652257825	2105.5
928.194786824621	2132.75
930.838076932512	2142
933.480523093109	2120.5
936.122125816953	2148
938.762885613447	2136.25
941.402802990899	2166
944.041878456523	2164.75
946.680112516428	2169
949.31750567563	2146.25
951.954058438081	2207.75
954.589771306633	2173.5
957.224644783048	2191.25
959.858679368044	2177.5
962.491875561238	2165.5
965.12423386121	2202.25
967.75575476545	2229.25
970.386438770423	2225
973.016286371501	2222
975.645298063046	2209
978.273474338355	2197.25
980.900815689674	2197.25
983.527322608243	2170
986.152995584245	2214
988.777835106834	2231
991.401841664148	2240.5
994.025015743307	2204.5
996.647357830407	2217
999.268868410534	2206
1001.88954796777	2225.5
1004.50939698518	2234.75
1007.12841594484	2245
1009.74660532783	2277.25
1012.36396561423	2273
1014.98049728314	2242.5
1017.59620081267	2267
1020.21107667995	2246.75
1022.82512536112	2274
1025.43834733138	2296.5
1028.05074306493	2300.5
1030.66231303501	2301
1033.27305771392	2310.25
1035.88297757299	2314.5
1038.49207308257	2330.75
1041.10034471211	2302
1043.70779293008	2346.75
1046.31441820402	2349
1048.92022100052	2340.5
1051.52520178525	2366.5
1054.12936102295	2358.25
1056.73269917742	2357.25
1059.33521671154	2371.75
1061.93691408729	2364.5
1064.53779176571	2374.5
1067.13785020694	2371.75
1069.73708987022	2369.25
1072.33551121386	2390.5
1074.93311469528	2365.5
1077.52990077103	2365.75
1080.12586989674	2390.25
1082.72102252714	2373.5
1085.31535911611	2410.25
1087.90888011663	2411
1090.50158598078	2428.25
1093.09347715979	2448.25
1095.68455410403	2420.5
1098.27481726296	2420.25
1100.86426708523	2449.25
1103.45290401857	2432.5
1106.04072850991	2465
1108.6277410053	2459.75
1111.21394194993	2456.5
1113.79933178816	2482.5
1116.3839109635	2476.25
1118.96767991862	2503.5
1121.55063909539	2524.75
1124.13278893477	2518.25
1126.71412987696	2522.5
1129.29466236132	2542.75
1131.87438682637	2551.25
1134.45330370982	2568.5
1137.03141344858	2552
1139.60871647872	2588.5
1142.18521323554	2599.25
1144.7609041535	2590
1147.33578966629	2631.5
1149.90987020676	2598.25
1152.48314620702	2658.5
1155.05561809835	2645.75
1157.62728631125	2676
1160.19815127545	2694
1162.76821341988	2689.5
1165.33747317271	2703
1167.90593096133	2717.75
1170.47358721235	2706.5
1173.04044235163	2724.25
1175.60649680425	2709.75
1178.17175099454	2740
1180.73620534607	2715.25
1183.29986028165	2731
1185.86271622336	2745.25
1188.42477359249	2725
1190.98603280964	2762.25
1193.54649429462	2767.75
1196.10615846653	2780.5
1198.66502574372	2771
1201.22309654385	2763.5
1203.78037128378	2778.5
1206.33685037971	2829.25
1208.89253424709	2831.75
1211.44742330063	2812.5
1214.00151795438	2838.75
1216.55481862163	2871.75
1219.10732571497	2884.75
1221.65903964631	2909.5
1224.20996082683	2889.75
1226.760089667	2911
1229.30942657664	2930.25
1231.85797196483	2962.25
1234.40572623998	2972.25
1236.95268980981	2995.25
1239.49886308136	2995
1242.04424646098	3008.25
1244.58884035435	3042.25
1247.13264516647	3105
1249.67566130166	3093
1252.21788916358	3121.75
1254.75932915524	3138
1257.29998167896	3165.5
1259.83984713639	3166.75
1262.37892592857	3213.5
1264.91721845586	3225.5
1267.45472511795	3245.5
1269.9914463139	3274.5
1272.52738244213	3324.5
1275.0625339004	3308.75
1277.59690108587	3318.5
1280.130484395	3375.5
1282.66328422367	3396.75
1285.19530096712	3393.75
1287.72653501993	3451.75
1290.25698677608	3469.75
1292.78665662894	3530
1295.31554497125	3497.25
1297.8436521951	3541
1300.37097869203	3557.75
1302.89752485292	3581.5
1305.42329106805	3578.75
1307.94827772713	3645.25
1310.47248521921	3655.25
1312.99591393279	3683.75
1315.51856425575	3692.5
1318.04043657536	3712.25
1320.56153127836	3771.75
1323.08184875083	3794
1325.6013893783	3782.25
1328.12015354572	3893.25
1330.63814163744	3908.25
1333.15535403727	3938.75
1335.67179112839	4011.75
1338.18745329347	3995.75
1340.70234091454	4042.25
1343.21645437314	4036.25
1345.72979405019	4114.5
1348.24236032607	4155.25
1350.75415358059	4221.25
1353.26517419303	4203.75
1355.7754225421	4240.75
1358.28489900594	4365.75
1360.79360396218	4336
1363.30153778787	4391.5
1365.80870085955	4406.25
1368.31509355319	4404.5
1370.82071624424	4442.75
1373.32556930762	4507.25
1375.8296531177	4490
1378.33296804832	4545.5
1380.83551447282	4550.25
1383.33729276399	4590
1385.83830329408	4612.75
1388.33854643489	4671.75
1390.83802255762	4706.75
1393.33673203301	4762.75
1395.83467523128	4729.25
1398.33185252211	4771.75
1400.82826427471	4818
1403.32391085777	4830.5
1405.81879263947	4869
1408.31290998752	4973
1410.80626326908	4953.25
1413.29885285087	4971.75
1415.79067909909	5029.75
1418.28174237944	5109
1420.77204305717	5169.75
1423.26158149702	5193.75
1425.75035806323	5256.75
1428.2383731196	5327.5
1430.72562702942	5397
1433.21212015554	5474.25
1435.69785286028	5520
1438.18282550555	5604
1440.66703845275	5686.5
1443.15049206284	5724.5
1445.6331866963	5817.5
1448.11512271316	5867.25
1450.59630047298	5918.75
1453.07672033486	5947
1455.55638265748	6060
1458.03528779902	6099.75
1460.51343611725	6171
1462.99082796946	6186.25
1465.46746371252	6299
1467.94334370285	6339.25
1470.41846829642	6338.25
1472.89283784878	6486.75
1475.36645271503	6475.5
1477.83931324983	6523
1480.31141980743	6596.75
1482.78277274164	6639
1485.25337240583	6674
1487.72321915297	6716
1490.19231333557	6758
1492.66065530578	6839
1495.12824541525	6879.75
1497.5950840153	6951
1500.06117145678	6962.25
1502.52650809014	7108.5
1504.99109426543	7119.5
1507.45493033227	7207.75
1509.91801663992	7246
1512.38035353717	7357.75
1514.84194137248	7355.75
1517.30278049386	7469.25
1519.76287124894	7541
1522.22221398497	7572.25
1524.68080904876	7617.5
1527.13865678681	7681
1529.59575754514	7802.75
1532.05211166945	7881.75
1534.50771950503	7980
1536.96258139678	8061.75
1539.41669768924	8162.5
1541.87006872656	8257.5
1544.32269485252	8349.5
1546.77457641051	8418
1549.22571374357	8544
1551.67610719434	8604.5
1554.12575710513	8679
1556.57466381785	8798.25
1559.02282767408	8832.25
1561.47024901499	8927.25
1563.91692818144	9059
1566.3628655139	9134.5
1568.80806135249	9212.25
1571.252516037	9255.75
1573.6962299068	9497.25
1576.13920330099	9451.25
1578.58143655828	9551.75
1581.02293001704	9670
1583.46368401528	9720
1585.90369889071	9753.5
1588.34297498065	9871
1590.7815126221	9950.25
1593.21931215173	10028.5
1595.65637390588	10140.75
1598.09269822053	10111.5
1600.52828543135	10204.5
1602.96313587367	10256
1605.3972498825	10253.5
1607.83062779252	10234.25
1610.26326993808	10370.5
1612.69517665322	10469.25
1615.12634827165	10485.75
1617.55678512676	10483.75
1619.98648755163	10484.25
1622.41545587902	10565.75
1624.84369044138	10623.5
1627.27119157085	10838
1629.69795959924	10828.5
1632.12399485808	10824.5
1634.54929767859	10975.25
1636.97386839165	10987.75
1639.39770732789	11032.75
1641.8208148176	11124.5
1644.24319119078	11162.25
1646.66483677715	11286
1649.0857519061	11322.25
1651.50593690677	11448.25
1653.92539210795	11533.5
1656.3441178382	11454.25
1658.76211442575	11656.25
1661.17938219855	11734
1663.59592148428	11857.75
1666.01173261032	11892.75
1668.42681590377	12061.75
1670.84117169145	12087.25
1673.25480029991	12153
1675.66770205541	12147.75
1678.07987728393	12384.5
1680.49132631119	12455.75
1682.90204946263	12468.25
1685.31204706342	12655.5
1687.72131943846	12727.5
1690.1298669124	12800.5
1692.53768980957	12963.5
1694.94478845411	12933.5
1697.35116316982	12911.75
1699.75681428031	13048.25
1702.16174210887	13028.75
1704.56594697858	13171.75
1706.96942921222	13397.5
1709.37218913235	13278.5
1711.77422706125	13329
1714.17554332098	13348.75
1716.5761382333	13574
1718.97601211977	13429.75
1721.37516530169	13501
1723.77359810006	13596.25
1726.17131083572	13548.25
1728.56830382922	13762.25
1730.96457740087	13784.25
1733.36013187075	13667.75
1735.75496755868	13780.25
1738.14908478428	13855.5
1740.54248386689	13920.5
1742.93516512565	14060.75
1745.32712887946	14064.5
1747.71837544697	14117.75
1750.10890514662	14287.25
1752.49871829661	14298.25
1754.88781521492	14443.25
1757.27619621929	14462
1759.66386162726	14496.25
1762.05081175612	14693.5
1764.43704692297	14728.5
1766.82256744465	14771.75
1769.20737363782	14931
1771.59146581887	14928.5
1773.97484430405	15082.5
1776.35750940932	15210.25
1778.73946145048	15255.5
1781.12070074309	15226.75
1783.50122760249	15554.75
1785.88104234385	15569.5
1788.26014528209	15653.5
1790.63853673196	15756
1793.01621700796	15951.25
1795.39318642443	16022.75
1797.76944529549	16089.75
1800.14499393503	16137.5
1802.51983265681	16069
1804.8939617743	16299
1807.26738160085	16553.25
1809.64009244957	16449.75
1812.01209463339	16508.25
1814.38338846504	16757.75
1816.75397425706	16707.75
1819.12385232181	16772.75
1821.49302297142	16898.5
1823.86148651789	16900.25
1826.22924327299	16949.25
1828.59629354831	17178.75
1830.96263765526	17076
1833.32827590507	17233.25
1835.69320860877	17324.5
1838.05743607724	17415
1840.42095862113	17358.25
1842.78377655097	17571.25
1845.14589017707	17599.75
1847.50729980956	17600.75
1849.86800575843	17730
1852.22800833346	17750.75
1854.58730784427	17912.25
1856.94590460032	18021.5
1859.30379891087	18200.25
1861.66099108503	18208
1864.01748143175	18394.75
1866.37327025978	18512.25
1868.72835787773	18417.25
1871.08274459403	18596.75
1873.43643071697	18676.75
1875.78941655464	18914.75
1878.14170241498	18879.25
1880.4932886058	19047.75
1882.84417543469	19240.25
1885.19436320915	19269
1887.54385223646	19351.25
1889.89264282378	19607.5
1892.24073527809	19668.75
1894.58812990625	19670.5
1896.93482701493	20122
1899.28082691067	20007.25
1901.62612989984	20234.5
1903.97073628868	20272.5
1906.31464638326	20456.75
1908.6578604895	20582
1911.00037891321	20790.75
1913.34220196	21055.5
1915.68332993537	20964
1918.02376314468	21019
1920.36350189311	21112.25
1922.70254648573	21280
1925.04089722744	21239.75
1927.37855442303	21394.75
1929.71551837715	21503.25
1932.05178939426	21549
1934.38736777876	21543.25
1936.72225383484	21645.5
1939.0564478666	21966
1941.38995017799	21749.25
1943.72276107283	22116.25
1946.05488085479	21861.75
1948.38630982744	21889
1950.71704829419	22222.5
1953.04709655832	22138.25
1955.376454923	22215.25
1957.70512369126	22358
1960.03310316599	22353
1962.36039364999	22252
1964.68699544589	22359.5
1967.01290885622	22694
1969.33813418338	22714.5
1971.66267172965	22801.25
1973.98652179718	22909
1976.309684688	23173
1978.63216070402	23168.5
1980.95395014705	23541.75
1983.27505331873	23175.25
1985.59547052063	23469
1987.9152020542	23611.25
1990.23424822074	23682.25
1992.55260932146	23712.75
1994.87028565746	23959
1997.18727752968	24025.5
1999.503585239	24328.25
2001.81920908618	24312
2004.13414937184	24506.5
2006.44840639651	24932
2008.7619804606	25030.5
2011.07487186442	25122
2013.38708090815	25347.25
2015.6986078919	25451
2018.00945311564	25603.25
2020.31961687923	25639
2022.62909948246	25983.25
2024.93790122498	26005.25
2027.24602240636	26195.75
2029.55346332604	26375.5
2031.86022428337	26366.25
2034.16630557761	26640.5
2036.47170750791	26641.25
2038.77643037331	26746.5
2041.08047447275	26938
2043.38384010509	26738.5
2045.68652756907	27145
2047.98853716335	27131.75
2050.28986918648	27172
2052.59052393692	27377.5
2054.89050171302	27480
2057.18980281306	27578.75
2059.4884275352	27667.75
2061.78637617753	27649
2064.08364903802	27645.5
2066.38024641457	27630
2068.67616860497	27932
2070.97141590694	27870.5
2073.26598861809	27775
2075.55988703595	27830.75
2077.85311145796	28014.5
2080.14566218145	28196.5
2082.43753950371	28226.25
2084.72874372188	28235.75
2087.01927513307	28215.5
2089.30913403428	28233.75
2091.59832072241	28361.75
2093.88683549429	28377.25
2096.17467864666	28569.75
2098.46185047619	28676.5
2100.74835127944	28909.75
2103.03418135292	28894
2105.31934099303	28796.25
2107.6038304961	28875
2109.88765015838	29066.25
2112.17080027602	28982.25
2114.45328114513	29347
2116.7350930617	29301.5
2119.01623632165	29307.5
2121.29671122085	29186.75
2123.57651805505	29430.5
2125.85565711996	29429.5
2128.13412871117	29591.75
2130.41193312424	29593.75
2132.68907065462	29714
2134.96554159771	29689.25
2137.24134624881	29683.75
2139.51648490317	29861.5
2141.79095785593	29743
2144.0647654022	29851
2146.33790783698	29937
2148.61038545524	29799
2150.88219855182	30221
2153.15334742154	29960.5
2155.42383235911	30160.25
2157.6936536592	30200.25
2159.9628116164	29952.75
2162.23130652522	29993
2164.49913868011	29963.25
2166.76630837544	29902.5
2169.03281590552	30021
2171.2986615646	29948.5
2173.56384564685	29799.5
2175.82836844637	29743.25
2178.0922302572	29795.25
2180.35543137332	29815.5
2182.61797208862	29671.25
2184.87985269695	29530.75
2187.14107349208	29501.5
2189.40163476773	29578.75
2191.66153681753	29575.25
2193.92077993507	29217
2196.17936441386	29200
2198.43729054735	29211
2200.69455862894	29049
2202.95116895194	29062.5
2205.20712180962	28796.5
2207.46241749519	28886.75
2209.71705630179	28860
2211.97103852248	28879.25
2214.2243644503	28662
2216.47703437819	28588.25
2218.72904859905	28383.25
2220.98040740571	28394.5
2223.23111109095	28335.75
2225.4811599475	28124.5
2227.73055426799	28223
2229.97929434504	28061
2232.22738047118	27869.75
2234.47481293889	27949.75
2236.72159204058	27948.5
2238.96771806864	27749.5
2241.21319131536	27499.25
2243.458012073	27258.25
2245.70218063374	27437.75
2247.94569728973	27455.75
2250.18856233304	27171
2252.4307760557	26978.25
2254.67233874967	27044.25
2256.91325070687	26979.5
2259.15351221915	26782.75
2261.39312357831	26630.75
2263.63208507611	26374
2265.87039700422	26436.75
2268.1080596543	26361.75
2270.34507331792	26387.5
2272.5814382866	26124
2274.81715485183	26094.25
2277.05222330502	26036.25
2279.28664393755	25901.75
2281.52041704072	25647.75
2283.75354290581	25844.5
2285.98602182401	25682.25
2288.21785408648	25411
2290.44903998434	25478.25
2292.67957980862	25454.5
2294.90947385033	25055.25
2297.1387224004	25174.75
2299.36732574975	25197.25
2301.59528418921	24916.5
2303.82259800958	24868.5
2306.04926750158	24759.25
2308.27529295593	24629.25
2310.50067466325	24627.25
2312.72541291412	24554
2314.9495079991	24422.75
2317.17296020866	24228.75
2319.39576983323	24289.25
2321.61793716322	24185.5
2323.83946248894	23888
2326.06034610069	23841.25
2328.28058828871	23747.5
2330.50018934317	23733.75
2332.7191495542	23566
2334.93746921192	23510.75
2337.15514860633	23295.5
2339.37218802743	23265.75
2341.58858776516	23124.25
2343.80434810941	22969
2346.01946935001	23033.5
2348.23395177675	22898.75
2350.44779567939	22817.75
2352.66100134759	22616.75
2354.87356907101	22601.5
2357.08549913925	22482
2359.29679184185	22333.25
2361.50744746829	22464.25
2363.71746630804	22307.25
2365.92684865048	22110.25
2368.13559478499	21958.25
2370.34370500083	22001.75
2372.55117958727	21902.75
2374.75801883352	21711.75
2376.96422302874	21664.5
2379.16979246202	21486.25
2381.37472742243	21402.5
2383.57902819898	21429.25
2385.78269508063	21244.75
2387.98572835629	21086.5
2390.18812831482	21002.75
2392.38989524505	21019.25
2394.59102943573	20915.5
2396.79153117559	20818.75
2398.9914007533	20736
2401.19063845748	20706
2403.38924457672	20480
2405.58721939951	20477.5
2407.78456321435	20460.75
2409.98127630966	20291.5
2412.17735897382	20369.75
2414.37281149517	20164.75
2416.56763416198	20107
2418.76182726249	20123.5
2420.95539108487	20038.25
2423.14832591726	19928.75
2425.34063204776	19808.25
2427.53230976439	19742.75
2429.72335935513	19657
2431.91378110795	19533.5
2434.10357531071	19467.5
2436.29274225125	19497.25
2438.48128221739	19280
2440.66919549683	19319
2442.8564823773	19228
2445.04314314641	19246
2447.22917809176	19024.75
2449.4145875009	19175.25
2451.59937166131	18900.75
2453.78353086044	18872.5
2455.96706538568	18846.75
2458.14997552436	18709.25
2460.33226156379	18656.25
2462.51392379119	18639.5
2464.69496249376	18316.25
2466.87537795862	18284.5
2469.05517047288	18310.75
2471.23434032357	18202.75
2473.41288779767	18213.25
2475.59081318211	18029.5
2477.76811676378	17961
2479.9447988295	17907.5
2482.12085966605	17778.25
2484.29629956016	17807.5
2486.4711187985	17726.25
2488.64531766769	17725.25
2490.8188964543	17679.75
2492.99185544484	17576.5
2495.16419492579	17614
2497.33591518353	17490
2499.50701650444	17425.5
2501.67749917482	17418.25
2503.84736348091	17348.25
2506.01660970891	17290.75
2508.18523814496	17112
2510.35324907514	17152
2512.52064278551	17189.5
2514.68741956201	17092
2516.85357969058	17312
2519.01912345709	17130
2521.18405114735	16987.25
2523.34836304711	16915.5
2525.51205944208	16948.5
2527.6751406179	16881
2529.83760686016	16919.75
2531.99945845439	16753.75
2534.16069568606	16865.75
2536.3213188406	16762.5
2538.48132820336	16601
2540.64072405965	16681.75
2542.79950669471	16528.25
2544.95767639373	16656.5
2547.11523344184	16572.75
2549.27217812411	16491.5
2551.42851072555	16465
2553.58423153111	16329.25
2555.73934082569	16308.5
2557.89383889412	16229.5
2560.04772602118	16164.25
2562.20100249158	16009.75
2564.35366858996	16018
2566.50572460093	15969.75
2568.65717080901	15831.75
2570.80800749867	15839
2572.95823495433	15813
2575.10785346031	15666
2577.25686330093	15603.5
2579.40526476038	15456
2581.55305812282	15434
2583.70024367237	15303.75
2585.84682169303	15398
2587.99279246879	15220.5
2590.13815628354	15200.25
2592.28291342112	15093
2594.42706416531	15128.5
2596.5706087998	15114.5
2598.71354760826	15132.5
2600.85588087425	15059.25
2602.99760888127	15016.25
2605.13873191278	14884.75
2607.27925025214	14959.25
2609.41916418269	14913
2611.55847398764	14859.75
2613.69717995017	14757.5
2615.83528235339	14918
2617.97278148034	14861.75
2620.10967761398	14796.25
2622.2459710372	14822.25
2624.38166203284	14747.75
2626.51675088365	14691.25
2628.65123787231	14654
2630.78512328145	14653.25
2632.9184073936	14564.25
2635.05109049124	14650.5
2637.18317285676	14517
2639.31465477248	14599.5
2641.44553652067	14571.5
2643.5758183835	14480.5
2645.70550064309	14510.75
2647.83458358144	14452.75
2649.96306748053	14497
2652.09095262223	14527.75
2654.21823928836	14439.25
2656.34492776063	14371.5
2658.47101832071	14358.25
2660.59651125015	14423.25
2662.72140683047	14339.5
2664.84570534309	14264.25
2666.96940706934	14278
2669.0925122905	14134
2671.21502128773	14374.25
2673.33693434215	14266
2675.45825173479	14219
2677.57897374658	14167
2679.69910065839	14294.75
2681.818632751	14162.25
2683.93757030511	14122.5
2686.05591360133	14097.5
2688.17366292021	14131.75
2690.29081854218	14110.25
2692.40738074762	13936
2694.52334981681	14035
2696.63872602995	13883.75
2698.75350966713	14004.75
2700.86770100841	14012.75
2702.98130033371	13852.25
2705.09430792289	13902.75
2707.20672405571	13945.5
2709.31854901185	13928.25
2711.42978307091	13916.5
2713.54042651238	13794.25
2715.65047961567	13927.75
2717.7599426601	13888.25
2719.86881592491	13865.25
2721.97709968924	13906.5
2724.08479423213	13806.25
2726.19189983255	13851.5
2728.29841676934	13755.25
2730.4043453213	13934.75
2732.5096857671	13917
2734.61443838532	13824
2736.71860345444	13725.5
2738.82218125286	13688.75
2740.92517205889	13775.25
2743.02757615072	13863.5
2745.12939380646	13737.5
2747.23062530411	13794.5
2749.33127092159	13884.5
2751.4313309367	13667.25
2753.53080562716	13759.75
2755.62969527058	13799.25
2757.72800014448	13644.75
2759.82572052625	13691.25
2761.92285669323	13633
2764.0194089226	13650
2766.11537749147	13711.75
2768.21076267686	13774.5
2770.30556475566	13650.5
2772.39978400465	13675.25
2774.49342070054	13662.5
2776.58647511991	13751.75
2778.67894753923	13622.25
2780.77083823487	13676.5
2782.8621474831	13601.25
2784.95287556007	13656
2787.04302274184	13546
2789.13258930433	13681.25
2791.22157552338	13530
2793.30998167471	13548.25
2795.39780803392	13709.25
2797.4850548765	13616.5
2799.57172247786	13539.75
2801.65781111324	13476.5
2803.74332105781	13417.75
2805.82825258661	13535.25
2807.91260597457	13619
2809.9963814965	13527.5
2812.07957942711	13563.75
2814.16220004096	13467
2816.24424361252	13430
2818.32571041614	13609.5
2820.40660072604	13565.75
2822.48691481631	13577
2824.56665296098	13543.75
2826.64581543388	13468.25
2828.72440250876	13644
2830.80241445925	13591.75
2832.87985155885	13596.5
2834.95671408093	13734.75
2837.03300229875	13632
2839.10871648544	13620.5
2841.18385691399	13738.5
2843.25842385729	13741.5
2845.33241758808	13712
2847.40583837898	13776.5
2849.4786865025	13812.5
2851.550962231	13796
2853.6226658367	13822.25
2855.69379759173	13800.25
2857.76435776806	13841.5
2859.83434663753	13809.25
2861.90376447184	13851.25
2863.97261154259	13914.5
2866.0408881212	13994.25
2868.10859447901	14037
2870.17573088717	13982
2872.24229761673	14043.25
2874.30829493859	14096.25
2876.37372312352	13976.5
2878.43858244215	14174
2880.50287316496	14170.25
2882.56659556231	14125
2884.62974990439	14241.75
2886.69233646129	14200.75
2888.75435550293	14240.75
2890.81580729909	14277.25
2892.87669211941	14203.25
2894.93701023339	14214
2896.99676191039	14217.75
2899.05594741961	14379.75
2901.1145670301	14201.5
2903.1726210108	14180
2905.23010963045	14335
2907.28703315768	14232.5
2909.34339186096	14273
2911.39918600861	14301
2913.45441586879	14262
2915.50908170952	14219.25
2917.56318379867	14274
2919.61672240395	14333.75
2921.66969779291	14329.75
2923.72211023295	14419.25
2925.77395999134	14356.5
2927.82524733515	14477.5
2929.87597253132	14414.75
2931.92613584663	14357
2933.97573754769	14335.25
2936.02477790097	14147.5
2938.07325717276	14166
2940.1211756292	14262.5
2942.16853353626	14266.5
2944.21533115976	14302.75
2946.26156876536	14269.75
2948.30724661853	14288
2950.3523649846	14418
2952.39692412872	14335.25
2954.44092431587	14330.75
2956.48436581089	14313
2958.52724887843	14303.25
2960.56957378296	14432.75
2962.6113407888	14486.75
2964.65255016011	14512.25
2966.69320216083	14593
2968.73329705479	14415.25
2970.77283510559	14457
2972.81181657671	14414
2974.8502417314	14440
2976.88811083279	14496.5
2978.92542414378	14554.75
2980.96218192713	14601.5
2982.99838444541	14579.25
2985.034031961	14672.25
2987.06912473612	14792
2989.1036630328	14753.5
2991.13764711288	14757.5
2993.17107723804	14734
2995.20395366974	14822
2997.23627666931	14924.75
2999.26804649782	14961.25
3001.29926341624	15003.25
3003.32992768528	15026.75
3005.3600395655	15056
3007.38959931726	15095.5
3009.41860720076	15178.5
3011.44706347595	15258.75
3013.47496840263	15320.75
3015.50232224041	15338.5
3017.5291252487	15551.5
3019.5553776867	15338.75
3021.58107981344	15552.5
3023.60623188773	15606.5
3025.63083416822	15615.25
3027.65488691331	15751.75
3029.67839038125	15749.75
3031.70134483007	15600.25
3033.72375051759	15795.25
3035.74560770144	15790.75
3037.76691663907	15918.75
3039.78767758768	15936.5
3041.80789080431	15958.5
3043.82755654577	16033
3045.84667506867	16001.5
3047.8652466294	16069.25
3049.88327148418	16052.75
3051.90074988899	16051.5
3053.91768209961	16089
3055.9340683716	16079.75
3057.94990896033	16155.5
3059.96520412095	16255.75
3061.97995410838	16343.25
3063.99415917734	16350.75
3066.00781958234	16267.5
3068.02093557766	16331.25
3070.03350741738	16192
3072.04553535535	16271.75
3074.05701964521	16318
3076.06796054036	16281.25
3078.078358294	16273.25
3080.08821315912	16502
3082.09752538846	16662.75
3084.10629523454	16304.25
3086.11452294967	16466
3088.12220878592	16413
3090.12935299515	16639
3092.13595582898	16612.75
3094.1420175388	16545.5
3096.14753837579	16631.25
3098.15251859088	16608.75
3100.15695843477	16718
3102.16085815793	16621.5
3104.16421801061	16675
3106.16703824282	16719.5
3108.16931910432	16861.75
3110.17106084464	16791.75
3112.17226371308	16952.25
3114.17292795872	16920.75
3116.17305383034	17070.5
3118.17264157657	16910
3120.17169144571	17047.25
3122.17020368587	16978
3124.16817854492	17045.5
3126.16561627044	17071
3128.16251710982	17226
3130.15888131017	17270
3132.15470911837	17335.75
3134.15000078104	17402
3136.14475654455	17395.5
3138.13897665502	17473.75
3140.13266135835	17507.25
3142.12581090014	17513.5
3144.11842552577	17652.5
3146.11050548036	17690
3148.10205100875	17757.75
3150.09306235557	17769
3152.08353976515	17712.75
3154.07348348158	17566
3156.06289374869	17901
3158.05177081006	17809.25
3160.04011490899	17985.75
3162.02792628852	18073
3164.01520519145	17944
3166.00195186029	18012
3167.98816653728	18128.25
3169.97384946442	18053
3171.95900088344	18083.5
3173.94362103577	18115
3175.92771016259	18219
3177.91126850484	18248.75
3179.89429630312	18288.25
3181.87679379782	18193
3183.85876122903	18446.75
3185.84019883657	18490.25
3187.82110685997	18475.75
3189.80148553851	18400.75
3191.78133511116	18645
3193.76065581664	18630.5
3195.73944789337	18661.25
3197.7177115795	18607.75
3199.6954471129	18705.25
3201.67265473114	18802.25
3203.64933467153	18637.75
3205.62548717107	18814.25
3207.60111246648	18946.75
3209.57621079421	18878.25
3211.55078239041	19065
3213.52482749093	19019
3215.49834633133	19091
3217.4713391469	19237
3219.44380617262	19200.25
3221.41574764317	19456.25
3223.38716379296	19295.5
3225.35805485607	19438
3227.32842106631	19416.75
3229.29826265718	19590.25
3231.26757986187	19699
3233.2363729133	19721
3235.20464204405	19805.25
3237.17238748643	19727.75
3239.13960947243	19917
3241.10630823374	19955.75
3243.07248400174	19908.75
3245.03813700748	20172.5
3247.00326748177	20028.5
3248.96787565503	20073.5
3250.93196175742	20187
3252.89552601877	20185.5
3254.8585686686	20221.5
3256.82108993612	20390
3258.78309005022	20313.75
3260.74456923948	20272
3262.70552773215	20557.75
3264.66596575617	20668.5
3266.62588353916	20485.75
3268.58528130843	20456.25
3270.54415929094	20466.75
3272.50251771336	20545.25
3274.46035680201	20684.25
3276.4176767829	20731.5
3278.37447788171	20734
3280.33076032379	20855
3282.28652433416	20818.5
3284.24177013751	20853
3286.1964979582	20927.75
3288.15070802027	21036.75
3290.10440054741	20973
3292.05757576298	20956
3294.01023389001	21041.5
3295.96237515119	21112.5
3297.91399976887	21125.75
3299.86510796506	21147.75
3301.81569996142	21308.25
3303.76577597932	21217.25
3305.7153362397	21254.5
3307.66438096324	21243.5
3309.61291037024	21397.25
3311.56092468064	21307.5
3313.50842411404	21144.5
3315.45540888971	21458.75
3317.40187922656	21344.25
3319.34783534315	21546.75
3321.29327745768	21423
3323.23820578801	21288.5
3325.18262055164	21427.75
3327.1265219657	21404.25
3329.06991024699	21493.5
3331.01278561194	21497
3332.95514827662	21384
3334.89699845674	21648.5
3336.83833636766	21674.75
3338.77916222434	21420.25
3340.71947624143	21585.5
3342.65927863317	21798.25
3344.59856961346	21643.25
3346.53734939584	21799.25
3348.47561819344	21794.75
3350.41337621906	21738.75
3352.35062368513	21788.75
3354.28736080368	21724.25
3356.22358778637	21925.25
3358.15930484452	21943.5
3360.09451218904	22036
3362.02921003047	21957.5
3363.96339857898	22091.25
3365.89707804436	22116.75
3367.83024863602	22018.25
3369.76291056299	22068.75
3371.69506403389	22067.5
3373.62670925699	22282
3375.55784644016	22433.5
3377.4884757909	22255.75
3379.41859751629	22471.5
3381.34821182305	22442.5
3383.27731891749	22478.75
3385.20591900555	22605.75
3387.13401229276	22508.25
3389.06159898426	22674
3390.9886792848	22702
3392.91525339872	22841.25
3394.84132152998	22888.75
3396.76688388213	22785.5
3398.69194065833	22924
3400.61649206133	22880
3402.54053829348	23015.25
3404.46407955672	22957.75
3406.3871160526	22943.5
3408.30964798225	23062.5
3410.23167554639	23115.5
3412.15319894535	23215.5
3414.07421837904	23215.25
3415.99473404695	23226
3417.91474614817	23190.75
3419.83425488136	23268.75
3421.75326044479	23314.5
3423.67176303631	23455.25
3425.58976285332	23390.5
3427.50726009282	23398.25
3429.42425495143	23427.5
3431.34074762528	23421.25
3433.25673831012	23378.25
3435.17222720127	23357
3437.08721449362	23537.25
3439.00170038164	23416.25
3440.91568505936	23476.25
3442.82916872039	23329
3444.74215155791	23496.75
3446.65463376468	23343.5
3448.566615533	23430.5
3450.47809705476	23410.75
3452.3890785214	23445.5
3454.29956012393	23554.75
3456.20954205293	23601.75
3458.11902449853	23461
3460.02800765041	23406
3461.93649169784	23426.75
3463.84447682962	23472.5
3465.75196323412	23464.5
3467.65895109925	23426.5
3469.56544061249	23516
3471.47143196086	23356.75
3473.37692533093	23402
3475.28192090884	23418.75
3477.18641888026	23458.5
3479.09041943039	23439
3480.99392274402	23460.75
3482.89692900545	23398.25
3484.79943839853	23479
3486.70145110666	23403.25
3488.60296731277	23345.5
3490.50398719933	23352.75
3492.40451094836	23164.75
3494.30453874141	23299.75
3496.20407075956	23333.5
3498.10310718342	23393.5
3500.00164819315	23184.75