200.475549058548	2595.75
203.359249075907	2578
206.241936533635	2585.25
209.123612299129	2584.5
212.004277237673	2589.25
214.883932212466	2569
217.762578084596	2595.25
220.640215713076	2622.25
223.516845954837	2583
226.392469664723	2588.25
229.26708769552	2613.5
232.14070089794	2628.25
235.013310120656	2666.75
237.884916210263	2631.25
240.755520011335	2661.75
243.625122366404	2682.25
246.493724115942	2687.25
249.361326098424	2699
252.227929150296	2705.25
255.093534105978	2712.5
257.958141797884	2707.5
260.821753056447	2701.5
263.684368710063	2746.75
266.545989585164	2734
269.406616506196	2720.25
272.266250295612	2736.25
275.124891773896	2716.5
277.982541759568	2722.25
280.839201069171	2757.25
283.69487051732	2741.25
286.549550916647	2724.5
289.403243077853	2773.5
292.255947809714	2756
295.10766591904	2777
297.958398210747	2752.25
300.808145487801	2805.75
303.656908551278	2780.25
306.504688200319	2793.25
309.351485232171	2782.5
312.197300442189	2807
315.042134623818	2785.5
317.885988568629	2803.25
320.72886306631	2817
323.570758904654	2815.75
326.411676869615	2801.75
329.251617745253	2827
332.09058231378	2802.25
334.928571355551	2816.75
337.765585649082	2825.75
340.601625971023	2828.25
343.436693096224	2849.5
346.270787797657	2850.75
349.103910846512	2876.75
351.936063012115	2879.25
354.767245062016	2891
357.597457761927	2896.25
360.426701875771	2869.5
363.25497816566	2901.5
366.082287391928	2910.25
368.908630313104	2940.25
371.734007685947	2924.5
374.558420265435	2915
377.381868804758	2930.75
380.204354055371	2930.5
383.02587676694	2957.5
385.846437687393	2952.75
388.666037562889	2975.75
391.484677137862	2988.25
394.302357154986	3006.25
397.119078355226	3037.5
399.934841477789	3086.25
402.749647260174	3059.25
405.563496438161	3046.25
408.376389745808	3038.5
411.188327915483	3006.5
413.999311677824	2991.25
416.809341761793	3003.5
419.61841889465	3011.75
422.426543801968	3002
425.233717207637	3044
428.039939833878	3007.5
430.845212401226	3041
433.64953562856	3032.25
436.452910233093	3066.75
439.255336930382	3059.5
442.056816434335	3050
444.857349457205	3048
447.65693670962	3060.5
450.455578900554	3090.5
453.253276737363	3075.75
456.050030925759	3099.75
458.84584216986	3078.25
461.640711172138	3086.25
464.434638633487	3094.75
467.227625253163	3084.75
470.019671728842	3058
472.810778756586	3064.25
475.600947030889	3033.75
478.390177244633	3060
481.178470089144	3074.25
483.965826254145	3064
486.752246427819	3055
489.537731296754	3076.25
492.322281545992	3118.75
495.105897859008	3085.25
497.888580917748	3126
500.670331402573	3094.75
503.451149992328	3098.75
506.231037364323	3142.5
509.009994194319	3128
511.788021156572	3112.25
514.565118923787	3152.25
517.341288167165	3165
520.116529556395	3192.75
522.890843759669	3187
525.664231443643	3187.75
528.436693273514	3245.25
531.208229912947	3191.75
533.978842024138	3169.75
536.7485302678	3186.75
539.517295303154	3136
542.285137787949	3157.5
545.052058378482	3176
547.818057729542	3167.5
550.583136494504	3169.5
553.347295325253	3149.25
556.110534872227	3135.75
558.872855784437	3154
561.63425870943	3188.5
564.39474429332	3197
567.154313180785	3197
569.912966015068	3184
572.67070343802	3184.75
575.427526090021	3208.25
578.183434610073	3219
580.938429635768	3242.5
583.692511803256	3236.25
586.445681747326	3248.25
589.197940101341	3245.25
591.949287497293	3216
594.699724565755	3259.25
597.449251935952	3266.5
600.197870235697	3300.5
602.945580091462	3246.75
605.692382128313	3255.75
608.43827696997	3227.5
611.183265238786	3225.5
613.92734755576	3251
616.670524540528	3236.25
619.412796811394	3216.75
622.154164985306	3208
624.894629677859	3239
627.634191503348	3219
630.372851074691	3218.5
633.110609003535	3241.25
635.847465900133	3230.5
638.5834223735	3221.5
641.31847903127	3206.75
644.052636479799	3224.5
646.78589532413	3245.5
649.518256168005	3250.5
652.249719613883	3265.25
654.9802862629	3249.25
657.709956714938	3290.75
660.438731568556	3269.75
663.166611421075	3293.75
665.893596868511	3278.25
668.619688505609	3337
671.344886925857	3296.25
674.06919272149	3310.25
676.792606483454	3309.75
679.515128801468	3321.5
682.236760263971	3333.75
684.95750145819	3296.25
687.677352970088	3341.25
690.396315384383	3318
693.114389284579	3289
695.831575252931	3293.25
698.547873870488	3357.5
701.26328571705	3311.75
703.977811371216	3330.25
706.691451410374	3341
709.404206410691	3358
712.116076947135	3336.75
714.827063593468	3339
717.537166922259	3350.75
720.246387504871	3327.25
722.954725911495	3328.5
725.662182711119	3333.5
728.368758471555	3347.25
731.074453759451	3355
733.779269140254	3326.5
736.483205178258	3365.5
739.186262436579	3368.5
741.888441477189	3366.75
744.589742860895	3382.75
747.290167147334	3383.5
749.989714895015	3410.75
752.688386661259	3393.5
755.386183002312	3450.25
758.083104473222	3437.75
760.779151627929	3422
763.474325019226	3422.75
766.168625198792	3423.25
768.86205271717	3452
771.554608123806	3407
774.246291966996	3419.25
776.937104793953	3442.25
779.627047150767	3416
782.316119582421	3427
785.004322632802	3436.75
787.691656844701	3444.5
790.378122759819	3423
793.063720918755	3437.75
795.74845186104	3441.75
798.432316125098	3389.25
801.115314248287	3492.75
803.797446766894	3511.5
806.478714216137	3520.5
809.159117130155	3642
811.838656042029	3604.25
814.517331483774	3547
817.19514398637	3523.25
819.872094079703	3501.75
822.548182292652	3477.5
825.223409153026	3472.25
827.897775187597	3477.75
830.571280922097	3550.75
833.243926881234	3560.75
835.915713588667	3557.5
838.586641567043	3668.75
841.256711337974	3647
843.925923422052	3677.25
846.594278338864	3588.25
849.261776606963	3600.25
851.928418743908	3565
854.594205266247	3506.25
857.259136689525	3504.25
859.923213528287	3550
862.586436296082	3568
865.24880550546	3535
867.910321667994	3493.25
870.570985294264	3554.75
873.230796893869	3499.25
875.88975697543	3500
878.5478660466	3514
881.205124614036	3514.75
883.861533183448	3562.5
886.517092259586	3542.75
889.171802346213	3507.5
891.825663946165	3515.75
894.478677561296	3529.75
897.130843692517	3520.25
899.782162839801	3517.75
902.432635502166	3532.75
905.082262177682	3551.75
907.73104336351	3526
910.378979555833	3583.75
913.026071249948	3521.75
915.672318940189	3552
918.317723119977	3564.75
920.96228428181	3584.5
923.606002917288	3585
926.248879517054	3587
928.890914570882	3577
931.532108567604	3626.75
934.172461995178	3603
936.811975340628	3620.25
939.450649090111	3610.75
942.088483728854	3644.25
944.725479741231	3626.5
947.361637610698	3620.25
949.996957819825	3651.75
952.63144085032	3628.25
955.26508718299	3621.5
957.897897297789	3625.25
960.529871673774	3673.5
963.161010789143	3624.75
965.791315121223	3649.5
968.420785146496	3652.25
971.049421340547	3683.5
973.677224178144	3714
976.304194133165	3683.25
978.930331678668	3663
981.555637286841	3646.25
984.180111429039	3652.75
986.803754575769	3673
989.426567196693	3631.75
992.048549760653	3689.5
994.669702735642	3690
997.290026588849	3698
999.909521786598	3713.75
1002.52818879443	3700.5
1005.14602807703	3674.75
1007.76304009828	3669
1010.37922532126	3687.75
1012.99458420824	3667.75
1015.60911722064	3676.5
1018.22282481911	3715.25
1020.8357074635	3708.25
1023.44776561284	3702
1026.05899972539	3725.5
1028.66941025859	3730.5
1031.27899766911	3759.25
1033.8877624128	3790.75
1036.49570494477	3757.75
1039.1028257193	3788
1041.70912518995	3776.5
1044.31460380945	3797.5
1046.91926202978	3786.75
1049.52310030213	3782
1052.12611907697	3763.5
1054.72831880395	3795.25
1057.329699932	3747
1059.93026290926	3772.5
1062.53000818313	3720.25
1065.12893620026	3787.5
1067.72704740654	3808.5
1070.32434224711	3749.75
1072.92082116639	3759.5
1075.51648460802	3737.75
1078.11133301493	3762.75
1080.70536682931	3759
1083.29858649259	3795.25
1085.89099244551	3751.5
1088.48258512806	3768.75
1091.07336497949	3797.75
1093.66333243836	3811.5
1096.2524879425	3746.25
1098.84083192899	3811.25
1101.42836483425	3786
1104.01508709395	3816.5
1106.60099914306	3827.25
1109.18610141586	3818.25
1111.77039434588	3827
1114.35387836603	3774.25
1116.93655390844	3823.25
1119.51842140458	3855.5
1122.09948128525	3869.75
1124.67973398051	3867.5
1127.25917991977	3845.25
1129.83781953174	3868
1132.41565324445	3894.5
1134.99268148526	3911.5
1137.56890468084	3915
1140.14432325718	3912.5
1142.71893763963	3940.5
1145.29274825285	3924.25
1147.86575552081	3966.75
1150.43795986686	4069.5
1153.00936171367	4041.25
1155.57996148323	4035.75
1158.14975959691	3980
1160.7187564754	4034
1163.28695253876	3991.25
1165.85434820638	3998.25
1168.42094389704	3956.5
1170.98674002881	4021
1173.55173701918	3956.5
1176.11593528499	3951
1178.67933524243	3938.5
1181.24193730705	3934.5
1183.8037418938	3913
1186.36474941697	3972.5
1188.92496029025	3909.25
1191.48437492668	3912.5
1194.0429937387	3928.25
1196.60081713811	3920
1199.15784553612	3953
1201.71407934332	3976.25
1204.26951896966	3952.75
1206.82416482453	3912.75
1209.37801731668	3933
1211.93107685425	3954.75
1214.4833438448	3960.25
1217.03481869529	4009.25
1219.58550181206	3995.5
1222.13539360089	4023
1224.68449446692	3998.25
1227.23280481476	4005.5
1229.78032504839	3961
1232.32705557121	4031
1234.87299678605	3988
1237.41814909516	4030
1239.96251290019	3995
1242.50608860226	4045.5
1245.04887660185	4050
1247.59087729894	4044.75
1250.13209109286	4063.25
1252.67251838247	4063.75
1255.21215956601	4109.5
1257.75101504113	4086
1260.28908520499	4085.75
1262.82637045415	4130.75
1265.36287118461	4119.25
1267.89858779184	4114.5
1270.43352067075	4192
1272.96767021569	4193
1275.5010368205	4197
1278.03362087842	4160.25
1280.56542278221	4135.75
1283.09644292403	4170.5
1285.62668169556	4222.5
1288.1561394879	4203
1290.68481669165	4182
1293.21271369685	4188.5
1295.73983089304	4179.75
1298.2661686692	4210
1300.79172741383	4212.5
1303.31650751487	4259.5
1305.84050935976	4270.25
1308.36373333541	4209
1310.88617982822	4248.75
1313.4078492241	4227
1315.92874190839	4282.5
1318.44885826599	4302.5
1320.96819868124	4322
1323.48676353801	4361.5
1326.00455321965	4420.5
1328.521568109	4434
1331.03780858842	4447.75
1333.55327503978	4491
1336.06796784442	4434.75
1338.58188738323	4483.75
1341.09503403658	4503.25
1343.60740818437	4445.75
1346.11901020598	4448.25
1348.62984048037	4507.5
1351.13989938596	4506.75
1353.6491873007	4494.75
1356.15770460209	4537.25
1358.66545166712	4535
1361.17242887233	4589.5
1363.67863659378	4587.5
1366.18407520705	4537.75
1368.68874508726	4591
1371.19264660907	4582.5
1373.69578014668	4528.5
1376.19814607381	4487.5
1378.69974476373	4555
1381.20057658924	4511.75
1383.7006419227	4526.75
1386.19994113603	4559.25
1388.69847460065	4484.5
1391.19624268756	4510.75
1393.69324576732	4475
1396.18948421004	4502.5
1398.68495838535	4543.25
1401.17966866248	4489
1403.6736154102	4548.25
1406.16679899686	4513
1408.65921979033	4527
1411.1508781581	4512
1413.64177446718	4490.75
1416.13190908416	4529.25
1418.62128237524	4555.5
1421.10989470614	4581.75
1423.59774644217	4541
1426.08483794823	4571.25
1428.57116958879	4568.5
1431.05674172789	4636.5
1433.54155472916	4699.5
1436.02560895582	4737
1438.50890477068	4744.5
1440.99144253608	4764.75
1443.47322261404	4786.25
1445.9542453661	4806
1448.43451115342	4906.5
1450.91402033676	4870.75
1453.39277327646	4944.75
1455.87077033246	4969.5
1458.34801186431	4968.5
1460.82449823115	4986
1463.30022979173	5006
1465.77520690441	4936.5
1468.24942992714	4962
1470.72289921748	4908.5
1473.19561513262	4925
1475.66757802934	4857.75
1478.13878826404	4854.25
1480.60924619276	4874
1483.0789521711	4911.75
1485.54790655434	4904.25
1488.01610969734	4867.5
1490.48356195459	4876.5
1492.95026368022	4848.25
1495.41621522796	4926.25
1497.88141695119	4886.25
1500.3458692029	4883.75
1502.80957233573	4907
1505.27252670192	4918.25
1507.7347326534	4895
1510.19619054165	4922.5
1512.65690071788	4941.5
1515.11686353289	4973
1517.5760793371	4953
1520.0345484806	4999.25
1522.49227131314	5058.25
1524.94924818408	4956
1527.40547944245	4998
1529.86096543691	4996.75
1532.31570651578	5027.25
1534.76970302704	5014.75
1537.2229553183	5072
1539.67546373685	5095.5
1542.1272286296	5037.75
1544.57825034318	5069.5
1547.0285292238	5079.75
1549.4780656174	5128.25
1551.92685986953	5128.75
1554.37491232545	5166
1556.82222333005	5195.75
1559.26879322789	5165
1561.71462236323	5247.25
1564.15971107996	5276.75
1566.60405972167	5235.5
1569.0476686316	5239.25
1571.49053815268	5295
1573.93266862751	5282.25
1576.37406039838	5388.25
1578.81471380725	5332.5
1581.25462919573	5299.75
1583.69380690517	5324.5
1586.13224727656	5415.25
1588.56995065059	5383
1591.00691736765	5371
1593.44314776777	5368.5
1595.87864219074	5411.5
1598.31340097597	5425.5
1600.74742446261	5464.5
1603.18071298948	5379.75
1605.61326689511	5385.25
1608.04508651771	5422.5
1610.47617219521	5360
1612.90652426521	5359.75
1615.33614306503	5380.75
1617.7650289317	5361
1620.19318220193	5404
1622.62060321214	5361.75
1625.04729229848	5374.5
1627.47324979677	5441.25
1629.89847604256	5404.5
1632.32297137112	5421.25
1634.74673611742	5421.25
1637.16977061614	5394.25
1639.59207520166	5465
1642.01365020812	5397
1644.43449596933	5440.25
1646.85461281884	5434.25
1649.27400108993	5474.25
1651.69266111558	5445.5
1654.11059322849	5550.75
1656.52779776111	5525
1658.9442750456	5564.5
1661.36002541383	5501.25
1663.77504919742	5589.5
1666.18934672772	5662.75
1668.60291833579	5649
1671.01576435243	5633.5
1673.42788510819	5702
1675.83928093333	5736.25
1678.24995215785	5790.75
1680.65989911149	5735
1683.06912212375	5789.25
1685.47762152383	5878.5
1687.88539764068	5852.75
1690.29245080301	5852
1692.69878133927	5843
1695.10438957763	5849.25
1697.50927584602	5887.5
1699.91344047213	5910.25
1702.31688378338	5939.25
1704.71960610694	5972.5
1707.12160776972	5971.75
1709.52288909843	5967.75
1711.92345041946	5916.25
1714.32329205902	5950
1716.72241434301	5973
1719.12081759716	6012.25
1721.51850214689	5985.5
1723.91546831742	5963.25
1726.31171643371	5977.5
1728.70724682049	6003.75
1731.10205980225	6021.75
1733.49615570323	6042.75
1735.88953484746	6065
1738.28219755871	6051.5
1740.67414416053	6033.75
1743.06537497623	6068.75
1745.4558903289	6055.75
1747.84569054139	6094.75
1750.23477593633	6086.75
1752.6231468361	6085.5
1755.01080356288	6141.75
1757.3977464386	6067
1759.783975785	6130.5
1762.16949192355	6121.75
1764.55429517554	6148.25
1766.93838586201	6198.25
1769.32176430379	6244.75
1771.70443082149	6218.25
1774.08638573552	6293.75
1776.46762936603	6218.25
1778.84816203299	6246.5
1781.22798405614	6315
1783.60709575502	6294
1785.98549744894	6345
1788.363189457	6359
1790.74017209811	6380.5
1793.11644569094	6378.5
1795.49201055396	6364.25
1797.86686700545	6418.75
1800.24101536348	6415.5
1802.61445594588	6450.25
1804.98718907032	6446
1807.35921505424	6496.75
1809.73053421488	6493.25
1812.10114686928	6526.5
1814.47105333431	6519.25
1816.84025392657	6549.75
1819.20874896252	6557.5
1821.57653875842	6531
1823.9436236303	6576.5
1826.31000389401	6601.25
1828.67567986522	6555
1831.0406518594	6563
1833.40492019179	6580.25
1835.7684851775	6523.75
1838.1313471314	6535.25
1840.49350636819	6627.5
1842.85496320238	6566.25
1845.21571794829	6646
1847.57577092004	6623.5
1849.9351224316	6705
1852.29377279671	6682
1854.65172232894	6776
1857.00897134171	6665.5
1859.36552014821	6760.25
1861.72136906146	6741.75
1864.07651839433	6724.25
1866.43096845946	6730.25
1868.78471956935	6775
1871.13777203631	6747.75
1873.49012617247	6830.75
1875.84178228977	6778.5
1878.19274070001	6847
1880.54300171478	6870.25
1882.89256564551	6942
1885.24143280346	6928.75
1887.58960349972	7024.75
1889.93707804519	6984
1892.28385675061	7050.75
1894.62993992657	6955.5
1896.97532788346	7121
1899.32002093153	7089.25
1901.66401938082	7171.5
1904.00732354126	7180.5
1906.34993372257	7155.75
1908.69185023433	7233
1911.03307338592	7274.25
1913.37360348663	7247
1915.7134408455	7339.5
1918.05258577147	7214
1920.3910385733	7325.75
1922.72879955958	7340.75
1925.06586903876	7329.75
1927.4022473191	7372
1929.73793470875	7385.5
1932.07293151565	7400.25
1934.40723804763	7395.5
1936.74085461234	7358
1939.07378151727	7383.75
1941.40601906977	7403.75
1943.73756757704	7422.5
1946.06842734612	7468.25
1948.39859868389	7409
1950.7280818971	7359.25
1953.05687729233	7409.5
1955.38498517601	7394.25
1957.71240585444	7447.75
1960.03913963377	7379.75
1962.36518681997	7415.75
1964.69054771891	7443
1967.01522263627	7451.75
1969.33921187762	7442.5
1971.66251574837	7473.75
1973.98513455379	7543.75
1976.30706859901	7526.5
1978.62831818899	7630.25
1980.94888362858	7564.75
1983.2687652225	7603.75
1985.58796327528	7631.75
1987.90647809136	7611
1990.224309975	7652.5
1992.54145923038	7702.5
1994.85792616145	7730
1997.17371107212	7681.5
1999.4888142661	7764.5
2001.80323604699	7755.5
2004.11697671825	7879.5
2006.4300365832	7857
2008.74241594504	7863.75
2011.05411510683	7898.75
2013.36513437149	7924.75
2015.6754740418	7905
2017.98513442044	7998
2020.29411580994	7936.75
2022.60241851269	8013.5
2024.91004283098	7984
2027.21698906692	8083.5
2029.52325752256	8102.25
2031.82884849977	8157.5
2034.1337623003	8190.25
2036.4379992258	8166.5
2038.74155957777	8140.5
2041.04444365759	8185
2043.34665176652	8215.75
2045.64818420569	8240.25
2047.9490412761	8222
2050.24922327865	8282.75
2052.54873051409	8283
2054.84756328307	8321.25
2057.14572188611	8302
2059.44320662359	8327.25
2061.74001779581	8281.25
2064.03615570292	8276
2066.33162064497	8379.5
2068.62641292185	8366.5
2070.9205328334	8316.5
2073.21398067927	8327
2075.50675675905	8391
2077.79886137218	8393.25
2080.090294818	8364.25
2082.38105739572	8380
2084.67114940445	8377.5
2086.96057114319	8422.25
2089.24932291079	8433
2091.53740500603	8414
2093.82481772755	8378.25
2096.11156137388	8445.75
2098.39763624345	8467.75
2100.68304263458	8437.5
2102.96778084545	8487.5
2105.25185117417	8495.75
2107.5352539187	8490.75
2109.81798937692	8464
2112.1000578466	8606
2114.38145962537	8640.75
2116.66219501079	8651.5
2118.94226430028	8608.25
2121.22166779118	8650.75
2123.50040578071	8709.25
2125.77847856598	8737
2128.05588644399	8729.25
2130.33262971165	8718
2132.60870866575	8774.75
2134.88412360298	8801.75
2137.15887481995	8841.75
2139.43296261311	8885.5
2141.70638727887	8850.5
2143.97914911348	8868.5
2146.25124841312	8997.75
2148.52268547387	8942
2150.79346059169	8971
2153.06357406245	9040
2155.33302618192	9038
2157.60181724576	9016
2159.86994754953	9015
2162.1374173887	9085
2164.40422705864	9135.25
2166.6703768546	9060.25
2168.93586707177	9138
2171.20069800519	9212
2173.46486994985	9180.75
2175.72838320061	9168.75
2177.99123805226	9257.75
2180.25343479946	9158.75
2182.5149737368	9199.5
2184.77585515876	9249.5
2187.03607935974	9194.25
2189.295646634	9272.25
2191.55455727578	9294.75
2193.81281157915	9250.5
2196.07040983813	9197.75
2198.32735234663	9274.5
2200.58363939848	9298.75
2202.83927128737	9232.25
2205.09424830697	9266.25
2207.34857075081	9273
2209.60223891231	9311.25
2211.85525308485	9352.5
2214.10761356169	9369.5
2216.35932063598	9331.25
2218.61037460082	9433.5
2220.86077574918	9417.25
2223.11052437395	9408
2225.35962076795	9466.25
2227.60806522389	9425.5
2229.85585803439	9449.5
2232.10299949198	9418.25
2234.34948988911	9437.75
2236.59532951813	9392.5
2238.84051867131	9373.25
2241.08505764082	9551
2243.32894671876	9500
2245.57218619713	9520
2247.81477636783	9538
2250.05671752269	9493.5
2252.29800995345	9546.25
2254.53865395175	9548.25
2256.77864980916	9517.75
2259.01799781714	9553.25
2261.2566982671	9557
2263.49475145035	9622.25
2265.73215765808	9605.5
2267.96891718143	9541
2270.20503031145	9585.5
2272.44049733909	9614.25
2274.67531855524	9607.75
2276.90949425067	9658.25
2279.1430247161	9667.5
2281.37591024214	9712
2283.60815111933	9675.25
2285.83974763813	9735.5
2288.07070008888	9717.5
2290.30100876189	9733.25
2292.53067394735	9729.75
2294.75969593537	9797.75
2296.98807501599	9769
2299.21581147916	9790.75
2301.44290561476	9760.75
2303.66935771254	9791.25
2305.89516806224	9747.25
2308.12033695344	9776.25
2310.34486467572	9784.25
2312.5687515185	9810.25
2314.79199777118	9809.5
2317.01460372303	9909.75
2319.23656966327	9807.5
2321.45789588102	9830
2323.67858266534	9873
2325.89863030519	9866.75
2328.11803908946	9867.5
2330.33680930694	9881
2332.55494124637	9869.25
2334.77243519638	9924.25
2336.98929144553	9979.5
2339.20551028232	9879.25
2341.42109199514	9880
2343.63603687231	9946.75
2345.85034520207	9864
2348.0640172726	9746.75
2350.27705337195	9912.75
2352.48945378815	9899.5
2354.70121880911	9963.75
2356.91234872269	9850
2359.12284381662	9949.75
2361.33270437861	9879.5
2363.54193069626	9869.75
2365.7505230571	9949.5
2367.95848174858	9987
2370.16580705805	9953
2372.37249927281	9961.75
2374.57855868008	9924
2376.78398556699	9951.75
2378.98878022058	9890.25
2381.19294292784	9906.5
2383.39647397565	9949.5
2385.59937365084	9826.25
2387.80164224015	9838.75
2390.00328003024	9817
2392.20428730769	9896.5
2394.40466435902	9829.5
2396.60441147062	9882.75
2398.80352892888	9982.25
2401.00201702004	9920
2403.19987603033	9878.25
2405.39710624582	9925
2407.59370795257	9899.25
2409.78968143654	9850.25
2411.9850269836	9866.75
2414.17974487957	9797
2416.37383541016	9829
2418.56729886102	9958
2420.76013551771	9810
2422.95234566575	9875.5
2425.14392959054	9795.75
2427.33488757741	9924.5
2429.52521991161	9855.75
2431.71492687834	9862.75
2433.90400876269	9903.5
2436.0924658497	9853.5
2438.2802984243	9842.25
2440.46750677137	9830
2442.6540911757	9877.5
2444.840051922	9827.5
2447.0253892949	9857
2449.21010357898	9752
2451.3941950587	9736
2453.57766401846	9862
2455.7605107426	9855.25
2457.94273551536	9818
2460.12433862091	9774.25
2462.30532034333	9698.25
2464.48568096665	9721.75
2466.66542077478	9759.25
2468.8445400516	9734.25
2471.02303908088	9694.5
2473.20091814631	9698.75
2475.37817753152	9687.75
2477.55481752005	9660.25
2479.73083839537	9676.75
2481.90624044087	9794.25
2484.08102393984	9696.25
2486.25518917552	9707.5
2488.42873643105	9665.25
2490.60166598952	9718.25
2492.77397813391	9701.25
2494.94567314713	9677
2497.11675131202	9648.5
2499.28721291133	9795.5
2501.45705822775	9776
2503.62628754386	9711.75
2505.7949011422	9814.75
2507.96289930518	9767
2510.13028231518	9837.25
2512.29705045447	9789
2514.46320400525	9791.75
2516.62874324964	9763.25
2518.79366846969	9862.5
2520.95797994734	9829.25
2523.12167796448	9891.75
2525.28476280291	9806.5
2527.44723474435	9849.5
2529.60909407043	9818.75
2531.77034106272	9865.5
2533.93097600269	9899
2536.09099917173	9874.75
2538.25041085116	9910.25
2540.40921132222	9892.75
2542.56740086606	9890.25
2544.72497976374	9873.75
2546.88194829626	9867.25
2549.03830674452	9796.5
2551.19405538936	9786
2553.34919451152	9809.5
2555.50372439165	9863.25
2557.65764531034	9820
2559.81095754807	9837.5
2561.96366138529	9831.75
2564.1157571023	9847.5
2566.26724497936	9739
2568.41812529664	9784
2570.56839833422	9799
2572.71806437208	9671
2574.86712369017	9759.25
2577.01557656829	9673
2579.16342328621	9701.75
2581.31066412358	9695
2583.45729936	9728.25
2585.60332927493	9758
2587.74875414781	9630
2589.89357425796	9642.5
2592.0377898846	9701.25
2594.18140130691	9756.5
2596.32440880395	9716.5
2598.4668126547	9622.5
2600.60861313806	9726.75
2602.74981053284	9698.5
2604.89040511778	9706.25
2607.0303971715	9632.25
2609.16978697256	9660
2611.30857479943	9692.75
2613.44676093048	9673.25
2615.584345644	9719
2617.72132921821	9715
2619.8577119312	9737.5
2621.99349406102	9700.75
2624.1286758856	9659.75
2626.2632576828	9691.25
2628.39723973037	9768.75
2630.53062230598	9766
2632.66340568723	9771.75
2634.7955901516	9807.5
2636.92717597651	9681.25
2639.05816343927	9803.5
2641.18855281709	9753.25
2643.31834438712	9708.75
2645.44753842641	9814
2647.5761352119	9786.75
2649.70413502044	9763.5
2651.83153812884	9803.75
2653.95834481374	9801.5
2656.08455535174	9854
2658.21017001934	9785.25
2660.33518909294	9817
2662.45961284885	9824.25
2664.58344156328	9900.75
2666.70667551235	9912
2668.82931497211	9793.25
2670.95136021848	9856.5
2673.0728115273	9803.5
2675.19366917432	9860.5
2677.31393343519	9815.25
2679.43360458548	9772.25
2681.55268290064	9890
2683.67116865603	9883
2685.78906212694	9906.25
2687.90636358854	9885.5
2690.02307331589	9872.75
2692.13919158398	9870.75
2694.2547186677	9900.25
2696.36965484184	9890
2698.48400038108	9900.5
2700.59775556002	9874
2702.71092065314	9858.5
2704.82349593485	9872.25
2706.93548167942	9830
2709.04687816108	9924.75
2711.1576856539	9896.75
2713.26790443188	9912.75
2715.37753476892	9904.5
2717.48657693883	9931.5
2719.59503121528	9888.25
2721.70289787187	9916.5
2723.8101771821	9971.25
2725.91686941936	9834.75
2728.02297485693	9946.25
2730.128493768	9990.75
2732.23342642565	9894.75
2734.33777310285	10014.75
2736.4415340725	9987.25
2738.54470960735	10056.25
2740.64729998007	9988
2742.74930546322	9987.5
2744.85072632927	9983
2746.95156285056	9982.25
2749.05181529934	10041.5
2751.15148394775	9921.5
2753.25056906782	10026.75
2755.34907093148	10000.75
2757.44698981056	9997.75
2759.54432597675	9948.5
2761.64107970166	9985.5
2763.7372512568	9947.5
2765.83284091354	9990.5
2767.92784894316	9925.25
2770.02227561683	10018.75
2772.11612120562	10027
2774.20938598047	10035.75
2776.3020702122	9952.75
2778.39417417156	10016
2780.48569812916	10026
2782.57664235549	10036.25
2784.66700712095	10056.75
2786.75679269582	10089.5
2788.84599935027	10043
2790.93462735434	10074.75
2793.02267697797	10028
2795.11014849098	9976.25
2797.19704216309	10021.25
2799.28335826389	10040.25
2801.36909706286	9915.5
2803.45425882935	10010.25
2805.53884383263	10006.75
2807.6228523418	10029.5
2809.7062846259	10033.75
2811.78914095381	10095
2813.87142159431	10045.5
2815.95312681606	10103.25
2818.0342568876	10149.75
2820.11481207734	10103.25
2822.19479265359	10138.75
2824.27419888454	10077
2826.35303103823	10117.5
2828.43128938261	10174.75
2830.5089741855	10232
2832.58608571459	10382
2834.66262423745	10398.25
2836.73859002154	10551
2838.81398333418	10805.5
2840.88880444257	10723.75
2842.96305361381	10685.75
2845.03673111483	10564.25
2847.10983721247	10460.25
2849.18237217344	10441.25
2851.2543362643	10532.5
2853.32572975152	10475
2855.39655290143	10502.75
2857.46680598021	10606.75
2859.53648925393	10632.5
2861.60560298855	10791.75
2863.67414744986	10942.75
2865.74212290356	11058
2867.80952961519	11264.75
2869.87636785019	11269.5
2871.94263787384	11345.75
2874.00833995131	11258.25
2876.07347434762	11381.25
2878.13804132768	11424.5
2880.20204115624	11571.5
2882.26547409795	11715.25
2884.32834041729	11651.5
2886.39064037865	11638.25
2888.45237424623	11606
2890.51354228415	11481.25
2892.57414475635	11430.25
2894.63418192667	11333
2896.69365405878	11376.5
2898.75256141625	11398
2900.81090426247	11437
2902.86868286072	11543.5
2904.92589747415	11594.75
2906.98254836574	11656.75
2909.03863579836	11452.25
2911.09416003471	11328.75
2913.14912133738	11356.5
2915.20351996879	11323.5
2917.25735619126	11289.75
2919.31063026691	11304
2921.36334245776	11276.5
2923.41549302568	11311.5
2925.46708223239	11347.75
2927.51811033945	11272.5
2929.56857760831	11280.75
2931.61848430026	11103.25
2933.66783067643	11088.25
2935.71661699781	10911.25
2937.76484352525	10814.5
2939.81251051946	10866.75
2941.85961824097	10801.25
2943.90616695021	10870.25
2945.95215690742	10885.5
2947.9975883727	11010
2950.04246160601	11111.75
2952.08677686716	11212
2954.13053441577	11206.75
2956.17373451138	11171.5
2958.21637741331	11099.75
2960.25846338077	11124
2962.29999267279	11123
2964.34096554826	11083.75
2966.3813822659	11043.75
2968.42124308432	10875.25
2970.46054826191	10945
2972.49929805694	10933
2974.53749272752	10667.25
2976.5751325316	10732
2978.61221772697	10685.25
2980.64874857127	10678.5
2982.68472532196	10687.25
2984.72014823637	10699
2986.75501757164	10728.75
2988.78933358476	10603
2990.82309653258	10669.5
2992.85630667175	10767.75
2994.88896425879	10748.25
2996.92106955003	10733
2998.95262280165	10743.75
3000.98362426967	10758
3003.01407420993	10838.75
3005.04397287812	10873.75
3007.07332052976	10883.25
3009.1021174202	10869.75
3011.13036380461	10911
3013.15805993802	10829.25
3015.18520607526	10893.5
3017.21180247102	10889.75
3019.23784937979	11020.5
3021.26334705593	10987.25
3023.28829575358	11056.25
3025.31269572676	11122.5
3027.33654722926	10994
3029.35985051475	11073.75
3031.38260583668	11097.75
3033.40481344838	11027.5
3035.42647360296	11062
3037.44758655337	11141.75
3039.46815255237	11095.75
3041.48817185258	11179.5
3043.50764470642	11063.25
3045.5265713661	10986.75
3047.54495208372	11128.75
3049.56278711114	11136
3051.58007670007	11078.25
3053.59682110204	11179.75
3055.61302056838	11063
3057.62867535025	11154
3059.64378569864	11153.25
3061.65835186434	11146.75
3063.67237409796	11083.75
3065.68585264993	11169
3067.69878777049	11167.75
3069.71117970969	11168
3071.72302871742	11173.25
3073.73433504334	11048.25
3075.74509893695	11239
3077.75532064757	11182.75
3079.76500042431	11123.25
3081.7741385161	11119.75
3083.78273517168	11240.25
3085.7907906396	11151
3087.79830516821	11215.5
3089.80527900568	11192
3091.81171239998	11139
3093.81760559889	11217
3095.82295884999	11123.25
3097.82777240067	11244.25
3099.83204649813	11152.25
3101.83578138937	11233.25
3103.83897732117	11179.25
3105.84163454016	11203.75
3107.84375329272	11221.5
3109.84533382508	11244.25
3111.84637638322	11199
3113.84688121298	11247.75
3115.84684855994	11170
3117.84627866951	11225.75
3119.84517178689	11260.25
3121.84352815709	11319.25
3123.84134802489	11378
3125.83863163489	11376
3127.83537923148	11294.5
3129.83159105884	11345.5
3131.82726736092	11384.75
3133.82240838151	11476.25
3135.81701436417	11395.5
3137.81108555224	11508
3139.80462218887	11425.5
3141.79762451699	11470
3143.79009277931	11518
3145.78202721835	11536.75
3147.77342807641	11568
3149.76429559556	11555.5
3151.75463001769	11600.25
3153.74443158445	11500.5
3155.73370053727	11688.25
3157.7224371174	11614.5
3159.71064156584	11565
3161.69831412337	11578
3163.68545503058	11564.25
3165.67206452784	11681.25
3167.65814285526	11558.5
3169.64369025279	11641
3171.6287069601	11544.75
3173.61319321668	11661
3175.59714926179	11618.75
3177.58057533446	11661.25
3179.56347167348	11610.75
3181.54583851746	11668.5
3183.52767610475	11622.25
3185.50898467348	11589
3187.48976446156	11701.5
3189.47001570668	11615.25
3191.44973864628	11698.25
3193.42893351758	11664.5
3195.40760055759	11677.5
3197.38574000308	11780.75
3199.36335209055	11709.25
3201.34043705634	11715.25
3203.3169951365	11766.5
3205.29302656687	11783
3207.26853158306	11700.25
3209.24351042042	11800.25
3211.21796331411	11768.25
3213.19189049901	11890.25
3215.16529220979	11835
3217.13816868087	11728.75
3219.11052014642	11831.25
3221.08234684042	11888.75
3223.05364899654	11942.5
3225.02442684826	11950
3226.99468062882	11894.75
3228.96441057117	11925.75
3230.93361690808	12066
3232.90229987202	11866.25
3234.87045969526	12055
3236.8380966098	12137.5
3238.8052108474	12108.5
3240.77180263957	12171.25
3242.73787221758	12156.5
3244.70341981245	12056.75
3246.66844565494	12102.5
3248.63294997559	12030.5
3250.59693300464	12132
3252.56039497213	12185.25
3254.52333610782	12219.25
3256.48575664121	12217.75
3258.44765680157	12290.25
3260.40903681791	12231
3262.36989691896	12249.5
3264.33023733323	12160.25
3266.29005828896	12236.5
3268.24936001411	12224.25
3270.20814273642	12311.75
3272.16640668333	12098.25
3274.12415208206	12292.25
3276.08137915954	12247
3278.03808814245	12292
3279.99427925722	12307.5
3281.94995272998	12325.75
3283.90510878664	12349
3285.85974765282	12281.25
3287.81386955387	12400.75
3289.7674747149	12399.25
3291.72056336072	12271.5
3293.6731357159	12319.5
3295.62519200472	12354.5
3297.57673245121	12360.75
3299.52775727911	12346.5
3301.4782667119	12239.25
3303.4282609728	12401.75
3305.37774028472	12363.5
3307.32670487034	12367.75
3309.27515495204	12336
3311.22309075193	12330.75
3313.17051249184	12476.25
3315.11742039334	12523.25
3317.06381467769	12407.5
3319.00969556592	12399.75
3320.95506327872	12530.5
3322.89991803656	12451
3324.84426005959	12355.75
3326.78808956769	12364
3328.73140678046	12382
3330.67421191721	12346.75
3332.61650519696	12314.25
3334.55828683848	12340
3336.4995570602	12390.75
3338.44031608032	12276.5
3340.3805641167	12377.25
3342.32030138695	12341
3344.25952810837	12290.25
3346.19824449799	12401.5
3348.13645077251	12302.5
3350.07414714839	12433.5
3352.01133384175	12390.25
3353.94801106845	12427.75
3355.88417904405	12355.75
3357.8198379838	12369
3359.75498810266	12381.25
3361.6896296153	12420.5
3363.62376273609	12380
3365.5573876791	12416.5
3367.4905046581	12402.75
3369.42311388656	12424.5
3371.35521557765	12405.75
3373.28680994422	12482.25
3375.21789719888	12486.75
3377.14847755385	12574.5
3379.07855122109	12572.5
3381.00811841228	12589
3382.93717933874	12556.5
3384.86573421152	12523.75
3386.79378324134	12475.5
3388.72132663863	12512
3390.64836461351	12524.75
3392.57489737576	12657.25
3394.50092513489	12640.75
3396.42644810007	12588.5
3398.35146648018	12650
3400.27598048375	12597.25
3402.19999031902	12649.75
3404.12349619393	12676.75
3406.04649831607	12558.25
3407.96899689273	12749.75
3409.89099213087	12641
3411.81248423716	12731.5
3413.73347341792	12795
3415.65395987914	12771.5
3417.57394382654	12697.25
3419.49342546547	12833.5
3421.41240500097	12720.75
3423.33088263775	12765.75
3425.24885858022	12621.25
3427.16633303244	12655
3429.08330619813	12670.5
3430.99977828072	12682.25
3432.91574948329	12663
3434.83122000859	12638.75
3436.74619005903	12677.25
3438.66065983671	12633
3440.57462954339	12718
3442.4880993805	12625.5
3444.40106954912	12592.5
3446.31354025	12630.5
3448.22551168358	12701.25
3450.13698404992	12548
3452.04795754877	12635.75
3453.95843237955	12552
3455.86840874132	12552.75
3457.7778868328	12519.25
3459.68686685238	12429
3461.5953489981	12560.5
3463.50333346766	12536.75
3465.41082045843	12575.25
3467.3178101674	12559.75
3469.22430279125	12538.5
3471.13029852629	12554
3473.0357975685	12581.75
3474.94080011349	12515.75
3476.84530635654	12553.25
3478.74931649257	12472.5
3480.65283071616	12557
3482.55584922151	12449
3484.45837220251	12469.5
3486.36039985266	12510.5
3488.26193236512	12466.75
3490.16296993268	12598.5
3492.0635127478	12460
3493.96356100256	12476
3495.86311488869	12472
3497.76217459756	12425
3499.66074032018	12406
