201.866871357051	698.666687011719
204.754250281454	689
207.640596790938	693.666687011719
210.525911876299	701.333312988281
213.410196525689	696
216.293451724508	699.333312988281
219.175678455485	704
222.056877698662	698.666687011719
224.937050431388	703.333312988281
227.816197628363	699.666687011719
230.694320261602	707
233.571419300504	706.666687011719
236.447495711764	713
239.322550459507	716.333312988281
242.196584505182	720
245.069598807626	712.666687011719
247.941594323078	711.666687011719
250.812572005154	714.333312988281
253.682532804884	711.666687011719
256.551477670699	713.666687011719
259.419407548456	726
262.286323381439	727
265.152226110364	729.666687011719
268.017116673389	726
270.880996006115	727.666687011719
273.743865041622	730.666687011719
276.605724710436	729
279.466575940562	733.333312988281
282.326419657496	728.666687011719
285.1852567842	741
288.043088241157	743.666687011719
290.899914946349	736.666687011719
293.75573781526	738
296.610557760898	739.666687011719
299.464375693817	745.333312988281
302.317192522078	749
305.169009151297	741.666687011719
308.019826484655	752
310.86964542287	760.333312988281
313.718466864233	751.333312988281
316.566291704614	755.666687011719
319.413120837457	749.333312988281
322.258955153804	762.333312988281
325.103795542291	756.333312988281
327.947642889128	759
330.79049807819	763.333312988281
333.632361990927	773.666687011719
336.473235506444	772.333312988281
339.31311950145	755.333312988281
342.152014850322	777.666687011719
344.989922425062	780.333312988281
347.826843095354	784
350.662777728528	776.666687011719
353.497727189577	776
356.331692341195	773.666687011719
359.164674043732	794
361.996673155267	799.333312988281
364.827690531536	791.333312988281
367.65772702602	793
370.486783489887	794
373.314860772047	796.666687011719
376.14195971912	798
378.968081175466	797.333312988281
381.793225983212	802.333312988281
384.617394982201	800.666687011719
387.44058901005	815.666687011719
390.262808902131	809.333312988281
393.08405549161	802
395.904329609395	817
398.723632084213	821
401.541963742569	815
404.359325408779	821.333312988281
407.175717904938	821
409.991142050982	820
412.805598664665	821
415.619088561551	848.666687011719
418.43161255505	832
421.243171456415	831.333312988281
424.053766074758	841.666687011719
426.863397217017	840.333312988281
429.672065688024	839
432.479772290455	837.666687011719
435.286517824879	845.333312988281
438.092303089736	849.333312988281
440.897128881359	853.333312988281
443.70099599399	851.666687011719
446.503905219761	864
449.305857348711	863.333312988281
452.106853168796	869
454.906893465919	864
457.705979023885	864
460.504110624439	877.666687011719
463.3012890473	873.666687011719
466.097515070087	877.333312988281
468.892789468424	874.666687011719
471.687113015869	876
474.48048648395	891
477.272910642198	893
480.064386258109	882.333312988281
482.854914097159	889.333312988281
485.644494922839	904
488.433129496636	905
491.220818578047	910.333312988281
494.007562924584	915.333312988281
496.793363291785	918
499.578220433217	916.333312988281
502.362135100473	920.666687011719
505.145108043209	937.333312988281
507.927140009098	922.333312988281
510.708231743909	933.666687011719
513.488383991433	928
516.267597493556	944.333312988281
519.04587299022	948.666687011719
521.82321121946	954
524.599612917398	955.333312988281
527.375078818233	955.666687011719
530.149609654287	954.333312988281
532.923206155967	958.666687011719
535.695869051804	954.333312988281
538.467599068448	975
541.238396930665	961
544.008263361364	964.666687011719
546.777199081578	968.666687011719
549.545204810493	962
552.312281265436	978
555.078429161898	980.333312988281
557.843649213533	973
560.607942132156	976.666687011719
563.371308627753	988.333312988281
566.133749408495	998
568.895265180756	1006.33331298828
571.655856649064	995
574.415524516189	1005
577.174269483075	1019
579.932092248884	1015.66668701172
582.688993510994	1026
585.444973965023	1024.33337402344
588.200034304795	1021.33331298828
590.95417522237	1039
593.70739740807	1034.33337402344
596.459701550433	1043
599.21108833628	1050
601.961558450668	1050
604.711112576933	1060.66662597656
607.459751396673	1076.66662597656
610.207475589748	1048.33337402344
612.954285834338	1071
615.700182806879	1061.66662597656
618.445167182101	1059.66662597656
621.189239633055	1066.66662597656
623.932400831087	1093.33337402344
626.674651445839	1081
629.415992145303	1080.66662597656
632.156423595745	1089.33337402344
634.895946461813	1085.33337402344
637.634561406449	1086.66662597656
640.37226909096	1098.33337402344
643.109070174978	1109.66662597656
645.844965316508	1120.66662597656
648.579955171888	1110.33337402344
651.314040395846	1101.33337402344
654.047221641456	1120
656.779499560176	1147
659.510874801828	1144.33337402344
662.241348014642	1157.66662597656
664.97091984524	1167.33337402344
667.699590938606	1164
670.427361938164	1153.66662597656
673.15423348573	1156.66662597656
675.880206221526	1174.66662597656
678.605280784206	1183
681.329457810829	1185.33337402344
684.05273793692	1184
686.775121796389	1195.66662597656
689.49661002163	1193.66662597656
692.217203243454	1188.66662597656
694.936902091144	1215.66662597656
697.655707192425	1233
700.373619173493	1245.33337402344
703.09063865901	1227.33337402344
705.806766272093	1245.33337402344
708.522002634378	1239
711.236348365946	1231.33337402344
713.94980408538	1239.66662597656
716.662370409762	1253.33337402344
719.374047954676	1248.33337402344
722.08483733419	1247.66662597656
724.794739160909	1287
727.503754045949	1274.66662597656
730.21188259892	1287.33337402344
732.919125427998	1303.66662597656
735.625483139855	1307.33337402344
738.330956339723	1316.33337402344
741.035545631374	1309.33337402344
743.739251617106	1355.33337402344
746.44207489779	1347.33337402344
749.144016072852	1364
751.845075740272	1372.66662597656
754.545254496603	1367.66662597656
757.244552936976	1381.33337402344
759.94297165508	1382.33337402344
762.640511243222	1379
765.337172292249	1393.66662597656
768.032955391649	1394.66662597656
770.727861129482	1378.33337402344
773.421890092413	1414
776.11504286572	1417
778.807320033298	1420.33337402344
781.49872217765	1423.33337402344
784.18924987991	1458.66662597656
786.87890371984	1437.33337402344
789.567684275826	1444
792.255592124908	1441.66662597656
794.94262784276	1468.33337402344
797.628792003703	1457
800.314085180715	1472
802.998507945427	1500
805.682060868145	1482
808.364744517821	1497.66662597656
811.046559462105	1522.33337402344
813.727506267311	1535.33337402344
816.407585498422	1517.33337402344
819.08679771913	1553
821.765143491822	1538.66662597656
824.442623377563	1529
827.119237936127	1569
829.794987726003	1570.33337402344
832.469873304377	1599.66662597656
835.143895227167	1587
837.817054048985	1593.66662597656
840.489350323205	1626
843.160784601892	1605
845.831357435894	1646.33337402344
848.501069374739	1614
851.169920966753	1644.66662597656
853.837912758987	1641.33337402344
856.505045297232	1663.66662597656
859.171319126071	1698.66662597656
861.836734788823	1686.33337402344
864.501292827579	1693.33337402344
867.164993783208	1716.33337402344
869.827838195361	1710.66662597656
872.489826602454	1730
875.150959541701	1722.66662597656
877.811237549104	1755
880.470661159456	1744.66662597656
883.129230906357	1740
885.786947322205	1752.66662597656
888.443810938206	1788.33337402344
891.099822284385	1797.66662597656
893.754981889586	1812.66662597656
896.409290281452	1817.66662597656
899.062747986485	1827.33337402344
901.715355529999	1865
904.367113436154	1852.66662597656
907.01802222793	1894.33337402344
909.668082427172	1874
912.317294554574	1876.66662597656
914.965659129659	1929.33337402344
917.613176670835	1909
920.259847695364	1946.33337402344
922.90567271936	1950.66662597656
925.550652257825	1928
928.194786824621	1977.33337402344
930.838076932512	1999
933.480523093109	2001.66662597656
936.122125816953	2001.33337402344
938.762885613447	2005
941.402802990899	2032.66662597656
944.041878456523	2064
946.680112516428	2064.33325195313
949.31750567563	2070
951.954058438081	2129.33325195313
954.589771306633	2106.33325195313
957.224644783048	2153.66674804687
959.858679368044	2160
962.491875561238	2151
965.12423386121	2188.66674804687
967.75575476545	2211.66674804687
970.386438770423	2207
973.016286371501	2208
975.645298063046	2211.66674804687
978.273474338355	2222.66674804687
980.900815689674	2279.33325195313
983.527322608243	2244.66674804687
986.152995584245	2269.33325195313
988.777835106834	2314
991.401841664148	2311.66674804687
994.025015743307	2324.33325195313
996.647357830407	2335
999.268868410534	2373.33325195313
1001.88954796777	2386.33325195313
1004.50939698518	2403.66674804687
1007.12841594484	2382
1009.74660532783	2452
1012.36396561423	2431.66674804687
1014.98049728314	2452.66674804687
1017.59620081267	2487.66674804687
1020.21107667995	2519
1022.82512536112	2535.33325195313
1025.43834733138	2565
1028.05074306493	2574
1030.66231303501	2592
1033.27305771392	2627.33325195313
1035.88297757299	2639.33325195313
1038.49207308257	2633.66674804687
1041.10034471211	2669.66674804687
1043.70779293008	2693
1046.31441820402	2689.33325195313
1048.92022100052	2716.33325195313
1051.52520178525	2760
1054.12936102295	2769.66674804687
1056.73269917742	2778.33325195313
1059.33521671154	2809.33325195313
1061.93691408729	2824.66674804687
1064.53779176571	2827
1067.13785020694	2884
1069.73708987022	2888.33325195313
1072.33551121386	2894.33325195313
1074.93311469528	2908
1077.52990077103	2905.66674804687
1080.12586989674	2923
1082.72102252714	2960
1085.31535911611	2977
1087.90888011663	3049
1090.50158598078	3041.66674804687
1093.09347715979	3054.66674804687
1095.68455410403	3099
1098.27481726296	3117.66674804687
1100.86426708523	3182.66674804687
1103.45290401857	3200.33325195313
1106.04072850991	3177.33325195313
1108.6277410053	3191.33325195313
1111.21394194993	3272.33325195313
1113.79933178816	3311.33325195313
1116.3839109635	3312.66674804687
1118.96767991862	3343
1121.55063909539	3348
1124.13278893477	3368
1126.71412987696	3438.66674804687
1129.29466236132	3425
1131.87438682637	3484.66674804687
1134.45330370982	3511.66674804687
1137.03141344858	3560
1139.60871647872	3575.33325195313
1142.18521323554	3577.33325195313
1144.7609041535	3612.33325195313
1147.33578966629	3639
1149.90987020676	3687.66674804687
1152.48314620702	3700
1155.05561809835	3692.66674804687
1157.62728631125	3778.66674804687
1160.19815127545	3805.33325195313
1162.76821341988	3821.33325195313
1165.33747317271	3859.66674804687
1167.90593096133	3908.33325195313
1170.47358721235	3906.66674804687
1173.04044235163	3959.33325195313
1175.60649680425	3971.33325195313
1178.17175099454	4009.33325195313
1180.73620534607	4085.33325195313
1183.29986028165	4086.33325195313
1185.86271622336	4082
1188.42477359249	4123.33349609375
1190.98603280964	4139.66650390625
1193.54649429462	4116
1196.10615846653	4109
1198.66502574372	4179.66650390625
1201.22309654385	4196.33349609375
1203.78037128378	4212
1206.33685037971	4233
1208.89253424709	4336
1211.44742330063	4331
1214.00151795438	4340
1216.55481862163	4399
1219.10732571497	4445
1221.65903964631	4533.66650390625
1224.20996082683	4555
1226.760089667	4610.66650390625
1229.30942657664	4663
1231.85797196483	4717.66650390625
1234.40572623998	4722.66650390625
1236.95268980981	4755.33349609375
1239.49886308136	4735.33349609375
1242.04424646098	4782
1244.58884035435	4835.33349609375
1247.13264516647	4900.33349609375
1249.67566130166	4938.66650390625
1252.21788916358	4921.33349609375
1254.75932915524	5035.33349609375
1257.29998167896	5134.66650390625
1259.83984713639	5148.33349609375
1262.37892592857	5180.66650390625
1264.91721845586	5264
1267.45472511795	5297
1269.9914463139	5278
1272.52738244213	5330.33349609375
1275.0625339004	5391.33349609375
1277.59690108587	5417.66650390625
1280.130484395	5449.33349609375
1282.66328422367	5459
1285.19530096712	5489.33349609375
1287.72653501993	5600.33349609375
1290.25698677608	5578.33349609375
1292.78665662894	5679
1295.31554497125	5678
1297.8436521951	5753
1300.37097869203	5731.66650390625
1302.89752485292	5782.66650390625
1305.42329106805	5837
1307.94827772713	5884.33349609375
1310.47248521921	5848
1312.99591393279	5951
1315.51856425575	6108.66650390625
1318.04043657536	6028.66650390625
1320.56153127836	6155.33349609375
1323.08184875083	6217.66650390625
1325.6013893783	6220
1328.12015354572	6335
1330.63814163744	6394
1333.15535403727	6487
1335.67179112839	6534.66650390625
1338.18745329347	6550.66650390625
1340.70234091454	6628.33349609375
1343.21645437314	6612.66650390625
1345.72979405019	6793.66650390625
1348.24236032607	6829
1350.75415358059	6937.33349609375
1353.26517419303	6926
1355.7754225421	7080.66650390625
1358.28489900594	7230.33349609375
1360.79360396218	7378.66650390625
1363.30153778787	7450.33349609375
1365.80870085955	7459.66650390625
1368.31509355319	7408.66650390625
1370.82071624424	7424.33349609375
1373.32556930762	7429
1375.8296531177	7317.33349609375
1378.33296804832	7392
1380.83551447282	7402
1383.33729276399	7460.66650390625
1385.83830329408	7454.33349609375
1388.33854643489	7472.33349609375
1390.83802255762	7568.66650390625
1393.33673203301	7525.33349609375
1395.83467523128	7543.33349609375
1398.33185252211	7538
1400.82826427471	7733.33349609375
1403.32391085777	7733.66650390625
1405.81879263947	7825.66650390625
1408.31290998752	7864.66650390625
1410.80626326908	7830.33349609375
1413.29885285087	7908.66650390625
1415.79067909909	7963.66650390625
1418.28174237944	8017.33349609375
1420.77204305717	8032.33349609375
1423.26158149702	8104.33349609375
1425.75035806323	8211
1428.2383731196	8210
1430.72562702942	8225.3330078125
1433.21212015554	8457.3330078125
1435.69785286028	8479.6669921875
1438.18282550555	8557.6669921875
1440.66703845275	8629
1443.15049206284	8659.6669921875
1445.6331866963	8826.3330078125
1448.11512271316	8834.3330078125
1450.59630047298	9003.6669921875
1453.07672033486	9037.6669921875
1455.55638265748	9104
1458.03528779902	9126.3330078125
1460.51343611725	9199
1462.99082796946	9287.3330078125
1465.46746371252	9352
1467.94334370285	9436.6669921875
1470.41846829642	9398.3330078125
1472.89283784878	9524
1475.36645271503	9703.6669921875
1477.83931324983	9701.3330078125
1480.31141980743	9843
1482.78277274164	9845.6669921875
1485.25337240583	9870.3330078125
1487.72321915297	9921.6669921875
1490.19231333557	10068
1492.66065530578	10088.6669921875
1495.12824541525	10116
1497.5950840153	10193
1500.06117145678	10201.3330078125
1502.52650809014	10171
1504.99109426543	10144
1507.45493033227	10205.6669921875
1509.91801663992	10262
1512.38035353717	10307
1514.84194137248	10289.6669921875
1517.30278049386	10441
1519.76287124894	10487
1522.22221398497	10562
1524.68080904876	10530.3330078125
1527.13865678681	10560.3330078125
1529.59575754514	10689
1532.05211166945	10924
1534.50771950503	10838.6669921875
1536.96258139678	10945
1539.41669768924	11006
1541.87006872656	11045
1544.32269485252	11190.6669921875
1546.77457641051	11346
1549.22571374357	11455.3330078125
1551.67610719434	11490.3330078125
1554.12575710513	11507.6669921875
1556.57466381785	11646.6669921875
1559.02282767408	11572
1561.47024901499	11683.3330078125
1563.91692818144	11815.3330078125
1566.3628655139	12066.3330078125
1568.80806135249	11960.6669921875
1571.252516037	11958.6669921875
1573.6962299068	12164
1576.13920330099	12155.3330078125
1578.58143655828	12288
1581.02293001704	12403.6669921875
1583.46368401528	12442.6669921875
1585.90369889071	12485.6669921875
1588.34297498065	12576
1590.7815126221	12732.6669921875
1593.21931215173	12742.6669921875
1595.65637390588	12818.3330078125
1598.09269822053	12809
1600.52828543135	13007
1602.96313587367	12959.3330078125
1605.3972498825	12953.6669921875
1607.83062779252	12942.6669921875
1610.26326993808	13013.6669921875
1612.69517665322	13001.3330078125
1615.12634827165	13129.3330078125
1617.55678512676	13009
1619.98648755163	13000
1622.41545587902	12992
1624.84369044138	13066.3330078125
1627.27119157085	13200.6669921875
1629.69795959924	13185.3330078125
1632.12399485808	13284.3330078125
1634.54929767859	13298.6669921875
1636.97386839165	13350.6669921875
1639.39770732789	13328
1641.8208148176	13388.3330078125
1644.24319119078	13503.6669921875
1646.66483677715	13580.3330078125
1649.0857519061	13665
1651.50593690677	13752.6669921875
1653.92539210795	13906.3330078125
1656.3441178382	13780.6669921875
1658.76211442575	13900
1661.17938219855	13984.6669921875
1663.59592148428	14212
1666.01173261032	14179.6669921875
1668.42681590377	14444.3330078125
1670.84117169145	14383
1673.25480029991	14381.6669921875
1675.66770205541	14606.3330078125
1678.07987728393	14601.6669921875
1680.49132631119	14673.6669921875
1682.90204946263	14775.3330078125
1685.31204706342	14875.3330078125
1687.72131943846	14986
1690.1298669124	15047.6669921875
1692.53768980957	15219.6669921875
1694.94478845411	15104.3330078125
1697.35116316982	15129
1699.75681428031	15302.6669921875
1702.16174210887	15328.3330078125
1704.56594697858	15384.6669921875
1706.96942921222	15466.6669921875
1709.37218913235	15514.3330078125
1711.77422706125	15460
1714.17554332098	15456.6669921875
1716.5761382333	15684.3330078125
1718.97601211977	15514.6669921875
1721.37516530169	15545.3330078125
1723.77359810006	15608.3330078125
1726.17131083572	15600.6669921875
1728.56830382922	15822.6669921875
1730.96457740087	15693.3330078125
1733.36013187075	15687
1735.75496755868	15849.6669921875
1738.14908478428	15812
1740.54248386689	15819.3330078125
1742.93516512565	15825.3330078125
1745.32712887946	15969
1747.71837544697	15992.6669921875
1750.10890514662	16090.3330078125
1752.49871829661	16029.6669921875
1754.88781521492	16081.3330078125
1757.27619621929	16194
1759.66386162726	16200.6669921875
1762.05081175612	16248
1764.43704692297	16426.333984375
1766.82256744465	16312
1769.20737363782	16584.666015625
1771.59146581887	16441.333984375
1773.97484430405	16668.666015625
1776.35750940932	16863.333984375
1778.73946145048	16772.666015625
1781.12070074309	16838.333984375
1783.50122760249	16919.666015625
1785.88104234385	17001.666015625
1788.26014528209	17052.666015625
1790.63853673196	17125.666015625
1793.01621700796	17324
1795.39318642443	17349.666015625
1797.76944529549	17386.333984375
1800.14499393503	17544
1802.51983265681	17377.333984375
1804.8939617743	17628.333984375
1807.26738160085	17675
1809.64009244957	17595
1812.01209463339	17497.666015625
1814.38338846504	17754.666015625
1816.75397425706	17797.666015625
1819.12385232181	17870.666015625
1821.49302297142	17851.666015625
1823.86148651789	17880.666015625
1826.22924327299	17851
1828.59629354831	18042.666015625
1830.96263765526	18096.333984375
1833.32827590507	18015
1835.69320860877	18050.333984375
1838.05743607724	18205.666015625
1840.42095862113	18252
1842.78377655097	18342
1845.14589017707	18223.666015625
1847.50729980956	18287.333984375
1849.86800575843	18291.666015625
1852.22800833346	18287
1854.58730784427	18462.333984375
1856.94590460032	18615.666015625
1859.30379891087	18540
1861.66099108503	18570.333984375
1864.01748143175	18797.666015625
1866.37327025978	18817.333984375
1868.72835787773	18714.666015625
1871.08274459403	18913
1873.43643071697	18955
1875.78941655464	19210
1878.14170241498	19048.666015625
1880.4932886058	19241.333984375
1882.84417543469	19435.666015625
1885.19436320915	19359
1887.54385223646	19428
1889.89264282378	19675.666015625
1892.24073527809	19692.333984375
1894.58812990625	19786.666015625
1896.93482701493	19944.666015625
1899.28082691067	20032
1901.62612989984	20148.666015625
1903.97073628868	20267
1906.31464638326	20289.666015625
1908.6578604895	20382.333984375
1911.00037891321	20475
1913.34220196	20634
1915.68332993537	20664
1918.02376314468	20645.666015625
1920.36350189311	20832
1922.70254648573	20808.333984375
1925.04089722744	20977.333984375
1927.37855442303	20886.333984375
1929.71551837715	21172
1932.05178939426	21093.666015625
1934.38736777876	21261.666015625
1936.72225383484	21106.666015625
1939.0564478666	21470.333984375
1941.38995017799	21257
1943.72276107283	21466.333984375
1946.05488085479	21369
1948.38630982744	21293.333984375
1950.71704829419	21613.333984375
1953.04709655832	21375
1955.376454923	21556.666015625
1957.70512369126	21517.666015625
1960.03310316599	21617
1962.36039364999	21518
1964.68699544589	21519.333984375
1967.01290885622	21885.666015625
1969.33813418338	21867.666015625
1971.66267172965	21884
1973.98652179718	21981
1976.309684688	22141.666015625
1978.63216070402	22137.333984375
1980.95395014705	22497
1983.27505331873	22265
1985.59547052063	22401.333984375
1987.9152020542	22551.666015625
1990.23424822074	22606
1992.55260932146	22773.666015625
1994.87028565746	22785.333984375
1997.18727752968	22824.333984375
1999.503585239	23084.666015625
2001.81920908618	23110.333984375
2004.13414937184	23242
2006.44840639651	23527.666015625
2008.7619804606	23574.666015625
2011.07487186442	23719.666015625
2013.38708090815	23900.333984375
2015.6986078919	23989.666015625
2018.00945311564	24074
2020.31961687923	24181
2022.62909948246	24407.666015625
2024.93790122498	24544.333984375
2027.24602240636	24710.333984375
2029.55346332604	24703.333984375
2031.86022428337	24818
2034.16630557761	24928.666015625
2036.47170750791	25017
2038.77643037331	25178
2041.08047447275	25406.666015625
2043.38384010509	25144.666015625
2045.68652756907	25297.333984375
2047.98853716335	25403.666015625
2050.28986918648	25431.333984375
2052.59052393692	25608
2054.89050171302	25747
2057.18980281306	25819
2059.4884275352	25933.333984375
2061.78637617753	25868
2064.08364903802	25860.333984375
2066.38024641457	25995
2068.67616860497	26118.333984375
2070.97141590694	26000.666015625
2073.26598861809	26119.333984375
2075.55988703595	26022.333984375
2077.85311145796	26196.333984375
2080.14566218145	26374.333984375
2082.43753950371	26294.666015625
2084.72874372188	26359.666015625
2087.01927513307	26431.666015625
2089.30913403428	26494
2091.59832072241	26503.666015625
2093.88683549429	26451
2096.17467864666	26629.333984375
2098.46185047619	26612
2100.74835127944	26863.666015625
2103.03418135292	26942.333984375
2105.31934099303	26769
2107.6038304961	27037
2109.88765015838	26987
2112.17080027602	27089.333984375
2114.45328114513	27219.333984375
2116.7350930617	27174
2119.01623632165	27185.666015625
2121.29671122085	27185
2123.57651805505	27383
2125.85565711996	27470.666015625
2128.13412871117	27585.333984375
2130.41193312424	27562
2132.68907065462	27717
2134.96554159771	27706.666015625
2137.24134624881	27854
2139.51648490317	27894.666015625
2141.79095785593	27932
2144.0647654022	28009.666015625
2146.33790783698	27933
2148.61038545524	27863.333984375
2150.88219855182	28424.333984375
2153.15334742154	28202
2155.42383235911	28326
2157.6936536592	28297.333984375
2159.9628116164	28250.666015625
2162.23130652522	28369.333984375
2164.49913868011	28339.333984375
2166.76630837544	28357
2169.03281590552	28394.666015625
2171.2986615646	28456
2173.56384564685	28322.666015625
2175.82836844637	28239.666015625
2178.0922302572	28346.666015625
2180.35543137332	28314
2182.61797208862	28417.333984375
2184.87985269695	28192
2187.14107349208	28305.333984375
2189.40163476773	28403.666015625
2191.66153681753	28393.333984375
2193.92077993507	28048
2196.17936441386	28242.333984375
2198.43729054735	28219.666015625
2200.69455862894	28146.666015625
2202.95116895194	28329.333984375
2205.20712180962	28146.333984375
2207.46241749519	28145.333984375
2209.71705630179	28151
2211.97103852248	28251.333984375
2214.2243644503	28212.333984375
2216.47703437819	28136.333984375
2218.72904859905	27996.333984375
2220.98040740571	28170.333984375
2223.23111109095	28058
2225.4811599475	27996
2227.73055426799	28141
2229.97929434504	27967.666015625
2232.22738047118	27909.333984375
2234.47481293889	27954.666015625
2236.72159204058	28197
2238.96771806864	28059.666015625
2241.21319131536	27857.666015625
2243.458012073	27786
2245.70218063374	27944.333984375
2247.94569728973	28030.333984375
2250.18856233304	27852.666015625
2252.4307760557	27657.666015625
2254.67233874967	27805.333984375
2256.91325070687	27743.333984375
2259.15351221915	27702.333984375
2261.39312357831	27803.333984375
2263.63208507611	27478.666015625
2265.87039700422	27703
2268.1080596543	27629
2270.34507331792	27617
2272.5814382866	27520.666015625
2274.81715485183	27603.333984375
2277.05222330502	27585
2279.28664393755	27620.666015625
2281.52041704072	27391.666015625
2283.75354290581	27537.666015625
2285.98602182401	27513
2288.21785408648	27330.333984375
2290.44903998434	27520.666015625
2292.67957980862	27491.666015625
2294.90947385033	27260.666015625
2297.1387224004	27361.666015625
2299.36732574975	27454
2301.59528418921	27395
2303.82259800958	27326.666015625
2306.04926750158	27330.333984375
2308.27529295593	27094.666015625
2310.50067466325	27144
2312.72541291412	27336.333984375
2314.9495079991	27146.666015625
2317.17296020866	27022.333984375
2319.39576983323	27179
2321.61793716322	27119.666015625
2323.83946248894	26852.666015625
2326.06034610069	26953.666015625
2328.28058828871	26939.333984375
2330.50018934317	26858.333984375
2332.7191495542	26784
2334.93746921192	26817.666015625
2337.15514860633	26763.333984375
2339.37218802743	26626
2341.58858776516	26613.666015625
2343.80434810941	26588
2346.01946935001	26657.666015625
2348.23395177675	26616.666015625
2350.44779567939	26648.666015625
2352.66100134759	26458.666015625
2354.87356907101	26502.666015625
2357.08549913925	26359.666015625
2359.29679184185	26397.333984375
2361.50744746829	26542
2363.71746630804	26249
2365.92684865048	26071.333984375
2368.13559478499	26201.333984375
2370.34370500083	26164.333984375
2372.55117958727	26101
2374.75801883352	25981
2376.96422302874	25855.333984375
2379.16979246202	25801.666015625
2381.37472742243	25887
2383.57902819898	25769.333984375
2385.78269508063	25662.333984375
2387.98572835629	25734.666015625
2390.18812831482	25587.666015625
2392.38989524505	25724.666015625
2394.59102943573	25584
2396.79153117559	25552
2398.9914007533	25478.666015625
2401.19063845748	25470
2403.38924457672	25284.333984375
2405.58721939951	25226.333984375
2407.78456321435	25261
2409.98127630966	25241.333984375
2412.17735897382	25329.333984375
2414.37281149517	25267.666015625
2416.56763416198	25178
2418.76182726249	25290.666015625
2420.95539108487	25151
2423.14832591726	25070
2425.34063204776	24976.666015625
2427.53230976439	24879.666015625
2429.72335935513	25065.333984375
2431.91378110795	24945.333984375
2434.10357531071	24820.333984375
2436.29274225125	24942.666015625
2438.48128221739	24700.333984375
2440.66919549683	24754.666015625
2442.8564823773	24738.333984375
2445.04314314641	24790
2447.22917809176	24689
2449.4145875009	24801.666015625
2451.59937166131	24659.666015625
2453.78353086044	24544.333984375
2455.96706538568	24687
2458.14997552436	24419
2460.33226156379	24414
2462.51392379119	24358.333984375
2464.69496249376	24252.666015625
2466.87537795862	24214
2469.05517047288	24182.333984375
2471.23434032357	24186.666015625
2473.41288779767	24387
2475.59081318211	24154.666015625
2477.76811676378	24122.333984375
2479.9447988295	24112.333984375
2482.12085966605	23879
2484.29629956016	23970.333984375
2486.4711187985	24018.666015625
2488.64531766769	24007.666015625
2490.8188964543	23915
2492.99185544484	23852.666015625
2495.16419492579	23918
2497.33591518353	23868.333984375
2499.50701650444	23899.666015625
2501.67749917482	23812
2503.84736348091	23826.333984375
2506.01660970891	23640.666015625
2508.18523814496	23670.666015625
2510.35324907514	23775
2512.52064278551	23827.666015625
2514.68741956201	23697
2516.85357969058	23909.666015625
2519.01912345709	23865.666015625
2521.18405114735	23676
2523.34836304711	23829.333984375
2525.51205944208	23798.666015625
2527.6751406179	23727
2529.83760686016	23781
2531.99945845439	23777
2534.16069568606	23851.666015625
2536.3213188406	23830.333984375
2538.48132820336	23598.666015625
2540.64072405965	23680
2542.79950669471	23560
2544.95767639373	23870.666015625
2547.11523344184	23669
2549.27217812411	23660.333984375
2551.42851072555	23581
2553.58423153111	23481
2555.73934082569	23543.666015625
2557.89383889412	23347
2560.04772602118	23467.666015625
2562.20100249158	23201
2564.35366858996	23303.666015625
2566.50572460093	23336.333984375
2568.65717080901	23286.333984375
2570.80800749867	23220
2572.95823495433	23139.666015625
2575.10785346031	22913
2577.25686330093	22903.666015625
2579.40526476038	22702.666015625
2581.55305812282	22852
2583.70024367237	22623.666015625
2585.84682169303	22805.333984375
2587.99279246879	22691.666015625
2590.13815628354	22556.333984375
2592.28291342112	22522
2594.42706416531	22516
2596.5706087998	22559.333984375
2598.71354760826	22776.333984375
2600.85588087425	22467
2602.99760888127	22646.666015625
2605.13873191278	22391.333984375
2607.27925025214	22412
2609.41916418269	22550
2611.55847398764	22443
2613.69717995017	22408.666015625
2615.83528235339	22647
2617.97278148034	22617.333984375
2620.10967761398	22519.666015625
2622.2459710372	22514.666015625
2624.38166203284	22522.333984375
2626.51675088365	22413.333984375
2628.65123787231	22356.333984375
2630.78512328145	22527.333984375
2632.9184073936	22391.666015625
2635.05109049124	22437
2637.18317285676	22505.666015625
2639.31465477248	22566.333984375
2641.44553652067	22492.333984375
2643.5758183835	22349.333984375
2645.70550064309	22393.333984375
2647.83458358144	22519
2649.96306748053	22534.666015625
2652.09095262223	22492
2654.21823928836	22504
2656.34492776063	22345
2658.47101832071	22369
2660.59651125015	22495.333984375
2662.72140683047	22435.333984375
2664.84570534309	22319
2666.96940706934	22350
2669.0925122905	22285.666015625
2671.21502128773	22348
2673.33693434215	22371
2675.45825173479	22322.333984375
2677.57897374658	22283.333984375
2679.69910065839	22451.666015625
2681.818632751	22276.666015625
2683.93757030511	22364.333984375
2686.05591360133	22393.333984375
2688.17366292021	22336
2690.29081854218	22268
2692.40738074762	22100
2694.52334981681	22200
2696.63872602995	22060.333984375
2698.75350966713	22321
2700.86770100841	22386.666015625
2702.98130033371	22109
2705.09430792289	22073
2707.20672405571	22176.666015625
2709.31854901185	22376
2711.42978307091	22176.333984375
2713.54042651238	22245.666015625
2715.65047961567	22227
2717.7599426601	22118
2719.86881592491	22113
2721.97709968924	22161
2724.08479423213	22018.333984375
2726.19189983255	22045
2728.29841676934	21962
2730.4043453213	22134.666015625
2732.5096857671	22174
2734.61443838532	22154.666015625
2736.71860345444	21877.333984375
2738.82218125286	22097.666015625
2740.92517205889	21970
2743.02757615072	22216
2745.12939380646	22064
2747.23062530411	22065
2749.33127092159	22166
2751.4313309367	22040
2753.53080562716	22130
2755.62969527058	22120.333984375
2757.72800014448	21985.333984375
2759.82572052625	22028.666015625
2761.92285669323	21898.333984375
2764.0194089226	22043.333984375
2766.11537749147	21978
2768.21076267686	22011.333984375
2770.30556475566	21933.333984375
2772.39978400465	22017
2774.49342070054	21953.333984375
2776.58647511991	21961.333984375
2778.67894753923	22055.666015625
2780.77083823487	21941
2782.8621474831	21815.666015625
2784.95287556007	21785.666015625
2787.04302274184	21801.333984375
2789.13258930433	21814.666015625
2791.22157552338	21654.666015625
2793.30998167471	21770.333984375
2795.39780803392	21770
2797.4850548765	21735.666015625
2799.57172247786	21704
2801.65781111324	21663.666015625
2803.74332105781	21679
2805.82825258661	21646.666015625
2807.91260597457	21665.333984375
2809.9963814965	21658.333984375
2812.07957942711	21560
2814.16220004096	21448.666015625
2816.24424361252	21474.666015625
2818.32571041614	21648.333984375
2820.40660072604	21508.666015625
2822.48691481631	21621
2824.56665296098	21641
2826.64581543388	21535.666015625
2828.72440250876	21693.666015625
2830.80241445925	21642.666015625
2832.87985155885	21596.333984375
2834.95671408093	21646.333984375
2837.03300229875	21695.333984375
2839.10871648544	21745.666015625
2841.18385691399	21681.666015625
2843.25842385729	21733.333984375
2845.33241758808	21683.666015625
2847.40583837898	21748
2849.4786865025	21957.333984375
2851.550962231	21987.333984375
2853.6226658367	22043.666015625
2855.69379759173	22022.666015625
2857.76435776806	21947.333984375
2859.83434663753	21858.666015625
2861.90376447184	21816.666015625
2863.97261154259	21880.333984375
2866.0408881212	22036.333984375
2868.10859447901	21794
2870.17573088717	22061
2872.24229761673	22023.333984375
2874.30829493859	21887.333984375
2876.37372312352	21840.333984375
2878.43858244215	22079.666015625
2880.50287316496	21947
2882.56659556231	21991
2884.62974990439	22061.666015625
2886.69233646129	22005.333984375
2888.75435550293	22123.666015625
2890.81580729909	22101
2892.87669211941	22214.666015625
2894.93701023339	22122.666015625
2896.99676191039	22171.666015625
2899.05594741961	22294
2901.1145670301	22121.333984375
2903.1726210108	22070.333984375
2905.23010963045	22215.333984375
2907.28703315768	21870.333984375
2909.34339186096	22210.666015625
2911.39918600861	22166.666015625
2913.45441586879	22001.333984375
2915.50908170952	22043.666015625
2917.56318379867	22189
2919.61672240395	22188.333984375
2921.66969779291	22183.333984375
2923.72211023295	22155
2925.77395999134	21959.333984375
2927.82524733515	22173.333984375
2929.87597253132	22227
2931.92613584663	22095.666015625
2933.97573754769	22121
2936.02477790097	22026.666015625
2938.07325717276	21858
2940.1211756292	21925.333984375
2942.16853353626	21883
2944.21533115976	22021
2946.26156876536	21869.333984375
2948.30724661853	21801.333984375
2950.3523649846	21905.333984375
2952.39692412872	21888
2954.44092431587	21817
2956.48436581089	21775
2958.52724887843	21656.333984375
2960.56957378296	21776
2962.6113407888	21878.333984375
2964.65255016011	21928.333984375
2966.69320216083	21981.333984375
2968.73329705479	21810
2970.77283510559	21685.666015625
2972.81181657671	21772.333984375
2974.8502417314	21841.333984375
2976.88811083279	21819.333984375
2978.92542414378	21977
2980.96218192713	21985.666015625
2982.99838444541	22030
2985.034031961	22014.666015625
2987.06912473612	21912.333984375
2989.1036630328	22011.333984375
2991.13764711288	21902.333984375
2993.17107723804	21986.666015625
2995.20395366974	22170.333984375
2997.23627666931	22169
2999.26804649782	22269
3001.29926341624	22380.333984375
3003.32992768528	22281.333984375
3005.3600395655	22253.666015625
3007.38959931726	22425.333984375
3009.41860720076	22475
3011.44706347595	22755
3013.47496840263	22453
3015.50232224041	22627.333984375
3017.5291252487	22832
3019.5553776867	22469
3021.58107981344	22738
3023.60623188773	22786.333984375
3025.63083416822	22817.666015625
3027.65488691331	22872.333984375
3029.67839038125	23022.666015625
3031.70134483007	22727.333984375
3033.72375051759	22996.333984375
3035.74560770144	22957.333984375
3037.76691663907	22995
3039.78767758768	23126.666015625
3041.80789080431	22898.666015625
3043.82755654577	22984.333984375
3045.84667506867	22944
3047.8652466294	22935
3049.88327148418	23091
3051.90074988899	22915.333984375
3053.91768209961	22993.666015625
3055.9340683716	22793.666015625
3057.94990896033	22886.333984375
3059.96520412095	23135.333984375
3061.97995410838	23035.333984375
3063.99415917734	23110.333984375
3066.00781958234	22948.666015625
3068.02093557766	23029.666015625
3070.03350741738	22927
3072.04553535535	23140.333984375
3074.05701964521	23093
3076.06796054036	22968.333984375
3078.078358294	23024.666015625
3080.08821315912	23067.666015625
3082.09752538846	23213
3084.10629523454	22896.333984375
3086.11452294967	23015.333984375
3088.12220878592	23026
3090.12935299515	23192
3092.13595582898	23123.333984375
3094.1420175388	23143.333984375
3096.14753837579	23107
3098.15251859088	22984
3100.15695843477	23264.666015625
3102.16085815793	23108.666015625
3104.16421801061	23083
3106.16703824282	23154
3108.16931910432	23077.333984375
3110.17106084464	23087.333984375
3112.17226371308	23381.333984375
3114.17292795872	23446.666015625
3116.17305383034	23464.333984375
3118.17264157657	23354.666015625
3120.17169144571	23390
3122.17020368587	23255.333984375
3124.16817854492	23171
3126.16561627044	23477.666015625
3128.16251710982	23613
3130.15888131017	23594.333984375
3132.15470911837	23796
3134.15000078104	23802.666015625
3136.14475654455	23793.666015625
3138.13897665502	23793
3140.13266135835	23834.333984375
3142.12581090014	23768.333984375
3144.11842552577	23965.333984375
3146.11050548036	24020.333984375
3148.10205100875	23901.666015625
3150.09306235557	23964.333984375
3152.08353976515	23838.333984375
3154.07348348158	23754
3156.06289374869	23952.666015625
3158.05177081006	23834
3160.04011490899	24000.666015625
3162.02792628852	24059
3164.01520519145	23956.333984375
3166.00195186029	23862
3167.98816653728	23994
3169.97384946442	24095.333984375
3171.95900088344	24020.666015625
3173.94362103577	24041.333984375
3175.92771016259	24067
3177.91126850484	24281.666015625
3179.89429630312	24200
3181.87679379782	24049.333984375
3183.85876122903	24386
3185.84019883657	24356.666015625
3187.82110685997	24355.666015625
3189.80148553851	24156.666015625
3191.78133511116	24444.666015625
3193.76065581664	24547.666015625
3195.73944789337	24469.333984375
3197.7177115795	24317
3199.6954471129	24505.333984375
3201.67265473114	24412.333984375
3203.64933467153	24414
3205.62548717107	24549
3207.60111246648	24648
3209.57621079421	24596
3211.55078239041	24708.666015625
3213.52482749093	24675
3215.49834633133	24878
3217.4713391469	24912.333984375
3219.44380617262	24717.666015625
3221.41574764317	24950.333984375
3223.38716379296	24743.666015625
3225.35805485607	24846.666015625
3227.32842106631	25036.666015625
3229.29826265718	25205
3231.26757986187	25070.666015625
3233.2363729133	25157
3235.20464204405	25243.666015625
3237.17238748643	25279.666015625
3239.13960947243	25211
3241.10630823374	25426
3243.07248400174	25363.666015625
3245.03813700748	25676.666015625
3247.00326748177	25476.666015625
3248.96787565503	25379.333984375
3250.93196175742	25668.666015625
3252.89552601877	25515.666015625
3254.8585686686	25476.666015625
3256.82108993612	25748
3258.78309005022	25668
3260.74456923948	25625.666015625
3262.70552773215	25690
3264.66596575617	25778.666015625
3266.62588353916	25643.333984375
3268.58528130843	25731.333984375
3270.54415929094	25643
3272.50251771336	25730
3274.46035680201	25750.333984375
3276.4176767829	25843.666015625
3278.37447788171	25778.333984375
3280.33076032379	25847
3282.28652433416	25816.333984375
3284.24177013751	25807
3286.1964979582	25801.666015625
3288.15070802027	25961.333984375
3290.10440054741	25816.666015625
3292.05757576298	25802
3294.01023389001	25907
3295.96237515119	25875.333984375
3297.91399976887	25850.333984375
3299.86510796506	25955.666015625
3301.81569996142	25943
3303.76577597932	25870
3305.7153362397	25939
3307.66438096324	25944
3309.61291037024	25902.333984375
3311.56092468064	25936
3313.50842411404	25788
3315.45540888971	25952.666015625
3317.40187922656	25856.333984375
3319.34783534315	25967.333984375
3321.29327745768	25865.333984375
3323.23820578801	25621.333984375
3325.18262055164	25884.333984375
3327.1265219657	25755.333984375
3329.06991024699	25908
3331.01278561194	25969
3332.95514827662	25751
3334.89699845674	26086.666015625
3336.83833636766	25899.666015625
3338.77916222434	25615
3340.71947624143	26040
3342.65927863317	26051.666015625
3344.59856961346	26026.333984375
3346.53734939584	26099
3348.47561819344	25971.333984375
3350.41337621906	26035
3352.35062368513	26116.333984375
3354.28736080368	25984
3356.22358778637	26145.333984375
3358.15930484452	25974.333984375
3360.09451218904	26203.333984375
3362.02921003047	26162.666015625
3363.96339857898	26312.666015625
3365.89707804436	26362.333984375
3367.83024863602	26258.666015625
3369.76291056299	26144.333984375
3371.69506403389	26363.333984375
3373.62670925699	26482
3375.55784644016	26477.333984375
3377.4884757909	26340
3379.41859751629	26606.666015625
3381.34821182305	26480
3383.27731891749	26561
3385.20591900555	26817.333984375
3387.13401229276	26652.666015625
3389.06159898426	26859
3390.9886792848	26936
3392.91525339872	26939.333984375
3394.84132152998	27023
3396.76688388213	26971
3398.69194065833	26922.666015625
3400.61649206133	26928.666015625
3402.54053829348	27079.333984375
3404.46407955672	26967.666015625
3406.3871160526	26972.666015625
3408.30964798225	27201.666015625
3410.23167554639	27088.333984375
3412.15319894535	27206
3414.07421837904	27118
3415.99473404695	27174.666015625
3417.91474614817	27182.666015625
3419.83425488136	27194.333984375
3421.75326044479	27290.333984375
3423.67176303631	27236.666015625
3425.58976285332	27246
3427.50726009282	27298.333984375
3429.42425495143	27247.333984375
3431.34074762528	27331
3433.25673831012	27197.666015625
3435.17222720127	27234.666015625
3437.08721449362	27236.333984375
3439.00170038164	27121
3440.91568505936	27334.333984375
3442.82916872039	27049
3444.74215155791	27267.333984375
3446.65463376468	27269.666015625
3448.566615533	27232
3450.47809705476	27178
3452.3890785214	27195
3454.29956012393	27315.333984375
3456.20954205293	27175.666015625
3458.11902449853	27243
3460.02800765041	27039
3461.93649169784	27156
3463.84447682962	27167.666015625
3465.75196323412	27005
3467.65895109925	27225.333984375
3469.56544061249	27026
3471.47143196086	27053.333984375
3473.37692533093	27184.333984375
3475.28192090884	26959.666015625
3477.18641888026	27147.333984375
3479.09041943039	27125.333984375
3480.99392274402	27065
3482.89692900545	27049
3484.79943839853	27034.666015625
3486.70145110666	27017
3488.60296731277	27044.666015625
3490.50398719933	27033.333984375
3492.40451094836	26738.333984375
3494.30453874141	26884
3496.20407075956	27165.666015625
3498.10310718342	26997.333984375
3500.00164819315	26816.333984375