200.090469251518	2635
202.974751419362	2651
205.858021632263	2625
208.740280737522	2651
211.621529580443	2652
214.501769004371	2638
217.380999850626	2636
220.25922295859	2702
223.136439165646	2643
226.012649307235	2663
228.88785421682	2700
231.762054725918	2677
234.635251664113	2719
237.507445859021	2675
240.378638136346	2686
243.248829319855	2691
246.11802023137	2768
248.986211690826	2763
251.853404516227	2725
254.719599523654	2753
257.584797527335	2710
260.44899933954	2729
263.312205770682	2792
266.174417629303	2757
269.035635722015	2767
271.895860853609	2725
274.755093826978	2740
277.613335443144	2802
280.470586501309	2799
283.326847798766	2795
286.182120131019	2795
289.036404291684	2853
291.889701072574	2790
294.742011263643	2804
297.593335653048	2874
300.443675027094	2884
303.293030170295	2804
306.141401865367	2879
308.988790893174	2850
311.835198032837	2813
314.680624061635	2847
317.525069755113	2776
320.36853588697	2837
323.211023229178	2817
326.052532551923	2848
328.893064623604	2860
331.732620210885	2856
334.57120007867	2896
337.408804990093	2865
340.245435706565	2883
343.081092987733	2868
345.915777591523	2862
348.749490274145	2900
351.582231790049	2954
354.414002891997	2914
357.244804331021	2879
360.074636856443	2946
362.903501215886	2917
365.731398155265	2933
368.558328418814	2932
371.384292749062	2895
374.209291886869	3023
377.033326571407	2866
379.85639754017	2911
382.678505529009	2971
385.499651272065	3025
388.319835501872	2963
391.139058949258	2983
393.957322343453	2969
396.774626412011	3003
399.590971880847	3007
402.406359474258	2988
405.220789914893	3009
408.034263923801	2971
410.8467822204	3019
413.658345522483	2950
416.468954546242	3047
419.278610006277	3005
422.087312615557	2961
424.895063085503	3106
427.701862125901	3067
430.507710444981	3027
433.312608749366	3080
436.116557744146	3029
438.919558132791	3079
441.721610617238	3040
444.522715897856	3063
447.322874673457	3066
450.122087641299	3124
452.920355497092	3099
455.717678935009	3063
458.514058647681	3039
461.309495326219	3046
464.103989660191	3115
466.89754233765	3034
469.690154045114	3049
472.481825467625	3029
475.272557288674	3045
478.062350190281	3024
480.851204852952	3085
483.639121955683	3011
486.426102176007	3083
489.212146189955	3051
491.997254672093	3096
494.781428295471	3149
497.564667731716	3093
500.346973650958	3120
503.128346721878	3159
505.90878761169	3149
508.688296986151	3091
511.46687550957	3155
514.244523844831	3210
517.021242653354	3172
519.797032595132	3208
522.571894328732	3102
525.345828511279	3156
528.11883579849	3102
530.890916844655	3114
533.662072302668	3135
536.432302823985	3122
539.201609058684	3135
541.96999165542	3135
544.737451261473	3104
547.503988522723	3127
550.26960408366	3054
553.034298587394	3126
555.798072675669	3101
558.560926988819	3106
561.322862165849	3151
564.083878844369	3106
566.843977660654	3156
569.603159249604	3142
572.361424244769	3209
575.118773278369	3149
577.87520698124	3176
580.630725982905	3168
583.385330911566	3226
586.139022394076	3203
588.891801055954	3205
591.643667521406	3181
594.394622413318	3158
597.144666353273	3222
599.893799961512	3241
602.64202385701	3175
605.389338657413	3172
608.135744979089	3166
610.881243437092	3197
613.625834645191	3221
616.369519215881	3216
619.112297760374	3183
621.854170888604	3175
624.595139209225	3164
627.335203329614	3247
630.074363855914	3178
632.81262139299	3169
635.549976544436	3124
638.286429912612	3164
641.021982098635	3150
643.756633702364	3214
646.49038532241	3142
649.223237556176	3180
651.955190999808	3182
654.686246248224	3171
657.416403895135	3203
660.145664533011	3263
662.874028753133	3191
665.601497145537	3156
668.328070299071	3252
671.05374880138	3189
673.778533238885	3249
676.502424196839	3273
679.225422259297	3251
681.947528009099	3347
684.668742027927	3329
687.389064896281	3334
690.108497193465	3305
692.827039497621	3240
695.544692385724	3261
698.261456433585	3332
700.977332215847	3312
703.692320305981	3259
706.406421276337	3253
709.11963569808	3319
711.831964141256	3271
714.54340717474	3160
717.253965366304	3286
719.963639282552	3225
722.672429488961	3245
725.380336549904	3269
728.087361028596	3304
730.793503487166	3305
733.498764486594	3294
736.203144586758	3259
738.906644346447	3283
741.60926432331	3302
744.311005073912	3334
747.011867153727	3343
749.711851117121	3268
752.410957517375	3371
755.109186906677	3352
757.806539836132	3339
760.503016855779	3365
763.198618514551	3275
765.893345360346	3300
768.587197939964	3323
771.28017679914	3400
773.972282482566	3360
776.663515533859	3340
779.353876495581	3332
782.043365909241	3334
784.731984315327	3268
787.419732253235	3300
790.106610261366	3291
792.792618877058	3354
795.477758636618	3346
798.162030075313	3345
800.845433727423	3381
803.52797012615	3356
806.209639803714	3418
808.890443291304	3314
811.570381119098	3305
814.249453816265	3347
816.927661910959	3342
819.60500593036	3298
822.281486400603	3349
824.957103846864	3349
827.631858793316	3427
830.305751763135	3347
832.978783278519	3407
835.650953860677	3454
838.322264029848	3405
840.992714305292	3412
843.662305205289	3424
846.331037247157	3444
848.998910947241	3400
851.665926820933	3361
854.332085382674	3420
856.997387145915	3414
859.661832623191	3472
862.325422326066	3462
864.988156765172	3343
867.650036450181	3342
870.311061889846	3393
872.971233591961	3386
875.630552063409	3373
878.28901781013	3332
880.946631337138	3352
883.603393148533	3457
886.259303747484	3368
888.914363636246	3369
891.568573316155	3364
894.22193328767	3362
896.874444050281	3358
899.526106102625	3403
902.176919942416	3361
904.826886066483	3395
907.476004970747	3326
910.124277150255	3416
912.77170309913	3413
915.418283310642	3407
918.064018277175	3395
920.708908490222	3399
923.352954440405	3476
925.996156617486	3404
928.638515510334	3356
931.280031606966	3353
933.920705394521	3414
936.560537359303	3444
939.199527986737	3375
941.837677761392	3417
944.474987167006	3440
947.111456686438	3433
949.747086801734	3461
952.38187799407	3491
955.015830743792	3459
957.648945530418	3422
960.281222832633	3424
962.91266312826	3450
965.543266894336	3457
968.173034607058	3470
970.801966741779	3425
973.43006377307	3455
976.057326174661	3449
978.683754419471	3399
981.309348979623	3519
983.93411032642	3419
986.558038930361	3381
989.181135261144	3454
991.803399787692	3439
994.424832978086	3496
997.045435299653	3421
999.665207218906	3465
1002.2841492016	3459
1004.90226171266	3466
1007.51954521628	3444
1010.13600017584	3515
1012.75162705397	3531
1015.3664263125	3509
1017.9803984125	3528
1020.5935438143	3548
1023.20586297741	3517
1025.81735636063	3461
1028.42802442196	3542
1031.03786761869	3522
1033.64688640732	3549
1036.2550812436	3536
1038.86245258255	3526
1041.46900087844	3491
1044.07472658479	3561
1046.67963015438	3531
1049.28371203927	3588
1051.88697269075	3535
1054.48941255943	3582
1057.09103209513	3504
1059.691831747	3523
1062.29181196343	3555
1064.89097319211	3535
1067.48931587999	3499
1070.08684047333	3577
1072.68354741766	3445
1075.27943715779	3563
1077.87451013787	3589
1080.46876680127	3579
1083.06220759071	3563
1085.65483294822	3511
1088.24664331509	3536
1090.83763913194	3542
1093.42782083869	3541
1096.01718887459	3618
1098.60574367818	3547
1101.19348568732	3495
1103.78041533919	3529
1106.3665330703	3540
1108.95183931646	3559
1111.53633451284	3606
1114.12001909391	3582
1116.70289349349	3552
1119.2849581447	3579
1121.86621348005	3561
1124.44665993134	3620
1127.02629792973	3632
1129.60512790574	3646
1132.18315028919	3583
1134.76036550929	3620
1137.3367739946	3598
1139.912376173	3619
1142.48717247176	3729
1145.06116331748	3647
1147.63434913616	3676
1150.20673035312	3678
1152.77830739307	3685
1155.34908068007	3639
1157.91905063757	3674
1160.48821768838	3673
1163.05658225471	3643
1165.6241447581	3643
1168.19090561951	3663
1170.75686525927	3682
1173.32202409708	3708
1175.88638255206	3624
1178.44994104269	3556
1181.01269998684	3595
1183.57465980182	3648
1186.13582090427	3676
1188.69618371026	3619
1191.25574863529	3580
1193.8145160942	3645
1196.37248650129	3689
1198.92966027025	3615
1201.48603781416	3624
1204.04161954556	3623
1206.59640587635	3556
1209.15039721788	3632
1211.70359398092	3628
1214.25599657564	3659
1216.80760541166	3667
1219.35842089801	3603
1221.90844344314	3619
1224.45767345496	3618
1227.00611134077	3598
1229.55375750736	3685
1232.10061236092	3598
1234.64667630707	3673
1237.1919497509	3685
1239.73643309692	3717
1242.28012674912	3728
1244.82303111089	3760
1247.36514658511	3701
1249.9064735741	3698
1252.44701247964	3684
1254.98676370294	3703
1257.52572764469	3737
1260.06390470506	3812
1262.60129528365	3776
1265.13789977954	3741
1267.67371859128	3838
1270.20875211688	3794
1272.74300075384	3820
1275.2764648991	3830
1277.80914494911	3875
1280.34104129978	3859
1282.87215434652	3836
1285.40248448419	3852
1287.93203210715	3798
1290.46079760927	3853
1292.98878138385	3827
1295.51598382375	3826
1298.04240532127	3907
1300.56804626822	3894
1303.09290705593	3870
1305.6169880752	3866
1308.14028971632	3887
1310.66281236913	3863
1313.18455642292	3853
1315.70552226653	3907
1318.22571028829	3899
1320.74512087603	3987
1323.26375441711	3911
1325.7816112984	3957
1328.29869190629	3979
1330.81499662666	4013
1333.33052584497	4061
1335.84527994613	4114
1338.35925931464	4072
1340.87246433446	4027
1343.38489538916	4037
1345.89655286177	4058
1348.40743713487	4037
1350.91754859059	3949
1353.42688761059	3958
1355.93545457606	4012
1358.44324986772	4045
1360.95027386588	4116
1363.45652695032	3988
1365.96200950042	4100
1368.4667218951	4011
1370.97066451281	4025
1373.47383773156	3966
1375.97624192891	4037
1378.47787748199	4153
1380.97874476746	4063
1383.47884416157	4074
1385.97817604009	4083
1388.4767407784	3981
1390.9745387514	3975
1393.47157033358	4073
1395.96783589898	4013
1398.46333582124	4011
1400.95807047354	3985
1403.45204022864	3985
1405.94524545889	3966
1408.4376865362	3906
1410.92936383205	4064
1413.42027771752	3970
1415.91042856328	4005
1418.39981673955	4056
1420.88844261615	3940
1423.37630656249	4063
1425.86340894757	3995
1428.34975013999	4035
1430.83533050792	4063
1433.32015041912	4119
1435.80421024098	4168
1438.28751034045	4197
1440.77005108411	4212
1443.25183283812	4218
1445.73285596824	4242
1448.21312083984	4303
1450.69262781791	4227
1453.17137726702	4309
1455.64936955137	4253
1458.12660503477	4318
1460.60308408063	4280
1463.07880705197	4249
1465.55377431145	4241
1468.02798622133	4229
1470.50144314348	4161
1472.97414543941	4269
1475.44609347024	4286
1477.91728759673	4289
1480.38772817924	4243
1482.85741557777	4260
1485.32635015194	4174
1487.79453226103	4147
1490.26196226391	4219
1492.72864051911	4234
1495.1945673848	4314
1497.65974321874	4295
1500.1241683784	4331
1502.58784322083	4363
1505.05076810274	4332
1507.51294338049	4314
1509.97436941009	4274
1512.43504654717	4182
1514.89497514704	4254
1517.35415556462	4302
1519.81258815451	4334
1522.27027327095	4247
1524.72721126784	4341
1527.18340249874	4365
1529.63884731684	4335
1532.09354607502	4351
1534.5474991258	4380
1537.00070682136	4436
1539.45316951355	4385
1541.90488755388	4369
1544.35586129353	4310
1546.80609108336	4429
1549.25557727385	4330
1551.70432021519	4366
1554.15232025725	4416
1556.59957774953	4343
1559.04609304125	4419
1561.49186648127	4507
1563.93689841815	4456
1566.38118920011	4428
1568.82473917506	4413
1571.2675486906	4453
1573.70961809399	4526
1576.15094773219	4534
1578.59153795184	4558
1581.03138909928	4476
1583.47050152051	4527
1585.90887556123	4601
1588.34651156686	4531
1590.78340988246	4650
1593.21957085283	4576
1595.65499482245	4670
1598.08968213547	4643
1600.52363313578	4523
1602.95684816694	4626
1605.38932757224	4586
1607.82107169462	4511
1610.25208087677	4463
1612.68235546107	4542
1615.1118957896	4484
1617.54070220415	4529
1619.96877504621	4461
1622.39611465701	4457
1624.82272137746	4420
1627.24859554818	4472
1629.67373750953	4474
1632.09814760155	4445
1634.52182616404	4437
1636.94477353647	4426
1639.36699005806	4434
1641.78847606776	4489
1644.20923190418	4421
1646.62925790573	4361
1649.04855441048	4419
1651.46712175628	4555
1653.88496028066	4506
1656.3020703209	4617
1658.71845221401	4454
1661.13410629671	4583
1663.54903290547	4625
1665.96323237649	4582
1668.37670504571	4519
1670.78945124877	4558
1673.20147132109	4616
1675.61276559779	4661
1678.02333441377	4668
1680.43317810362	4673
1682.84229700171	4736
1685.25069144213	4696
1687.65836175872	4717
1690.06530828507	4704
1692.47153135451	4714
1694.87703130009	4674
1697.28180845467	4801
1699.6858631508	4772
1702.08919572081	4743
1704.49180649676	4737
1706.89369581049	4792
1709.29486399355	4750
1711.69531137731	4830
1714.09503829282	4773
1716.49404507095	4745
1718.89233204229	4837
1721.28989953721	4723
1723.68674788581	4795
1726.08287741798	4731
1728.47828846338	4900
1730.87298135139	4755
1733.26695641119	4933
1735.66021397173	4775
1738.05275436169	4822
1740.44457790954	4878
1742.83568494354	4833
1745.22607579168	4815
1747.61575078175	4837
1750.00471024128	4922
1752.39295449761	4901
1754.78048387783	4851
1757.16729870881	4904
1759.5533993172	4925
1761.93878602942	4851
1764.32345917168	4849
1766.70741906995	4987
1769.09066604999	4932
1771.47320043735	4974
1773.85502255735	5057
1776.2361327351	4939
1778.61653129548	4973
1780.99621856318	5018
1783.37519486264	5019
1785.75346051813	5027
1788.13101585368	5090
1790.5078611931	5081
1792.88399686002	5072
1795.25942317785	5042
1797.63414046977	5099
1800.00814905878	5133
1802.38144926766	5092
1804.75404141898	5122
1807.12592583514	5116
1809.49710283829	5111
1811.86757275039	5114
1814.23733589322	5228
1816.60639258834	5158
1818.97474315712	5155
1821.34238792073	5184
1823.70932720012	5171
1826.07556131608	5249
1828.44109058918	5148
1830.8059153398	5203
1833.17003588812	5177
1835.53345255413	5210
1837.89616565765	5250
1840.25817551827	5263
1842.61948245541	5274
1844.9800867883	5208
1847.33998883598	5237
1849.69918891729	5190
1852.05768735091	5342
1854.4154844553	5192
1856.77258054875	5194
1859.12897594938	5245
1861.4846709751	5265
1863.83966594366	5311
1866.19396117261	5358
1868.54755697932	5299
1870.90045368099	5366
1873.25265159463	5362
1875.60415103708	5317
1877.95495232501	5481
1880.30505577486	5484
1882.65446170299	5467
1885.00317042548	5575
1887.35118225832	5507
1889.69849751726	5466
1892.04511651792	5544
1894.39103957574	5502
1896.73626700596	5535
1899.08079912368	5520
1901.42463624384	5614
1903.76777868116	5565
1906.11022675025	5598
1908.4519807655	5673
1910.79304104117	5694
1913.13340789134	5665
1915.47308162992	5716
1917.81206257067	5729
1920.15035102718	5635
1922.48794731286	5651
1924.82485174096	5657
1927.16106462461	5748
1929.49658627672	5831
1931.83141701008	5755
1934.1655571373	5727
1936.49900697085	5692
1938.83176682301	5750
1941.16383700594	5864
1943.49521783161	5725
1945.82590961186	5794
1948.15591265835	5775
1950.48522728262	5778
1952.81385379602	5836
1955.14179250976	5789
1957.46904373489	5694
1959.79560778233	5809
1962.12148496284	5726
1964.44667558701	5793
1966.77117996529	5780
1969.09499840799	5825
1971.41813122527	5814
1973.74057872714	5810
1976.06234122345	5868
1978.38341902391	5807
1980.7038124381	5883
1983.02352177543	5896
1985.34254734518	5879
1987.66088945649	5859
1989.97854841833	5994
1992.29552453956	5942
1994.61181812887	5976
1996.92742949483	5951
1999.24235894586	5959
2001.55660679023	5948
2003.87017333608	6040
2006.18305889143	6018
2008.49526376413	6041
2010.80678826189	6014
2013.1176326923	6056
2015.42779736282	6139
2017.73728258075	6090
2020.04608865326	6185
2022.3542158874	6067
2024.66166459008	6116
2026.96843506807	6097
2029.274527628	6197
2031.57994257637	6102
2033.88468021957	6247
2036.18874086383	6181
2038.49212481526	6216
2040.79483237983	6312
2043.0968638634	6259
2045.39821957169	6264
2047.69889981028	6142
2049.99890488462	6271
2052.29823510006	6225
2054.59689076181	6199
2056.89487217492	6323
2059.19217964437	6264
2061.48881347497	6306
2063.7847739714	6321
2066.08006143826	6287
2068.37467618	6198
2070.66861850093	6357
2072.96188870527	6296
2075.25448709707	6265
2077.54641398031	6262
2079.83766965881	6243
2082.12825443629	6258
2084.41816861634	6248
2086.70741250242	6309
2088.99598639789	6266
2091.28389060597	6237
2093.57112542978	6303
2095.85769117232	6296
2098.14358813644	6332
2100.42881662491	6286
2102.71337694037	6321
2104.99726938532	6268
2107.28049426219	6346
2109.56305187325	6341
2111.84494252069	6333
2114.12616650655	6312
2116.40672413278	6210
2118.68661570121	6234
2120.96584151355	6362
2123.24440187138	6388
2125.52229707622	6401
2127.79952742943	6271
2130.07609323227	6309
2132.35199478588	6295
2134.62723239132	6330
2136.90180634949	6356
2139.17571696123	6442
2141.44896452723	6478
2143.72154934809	6517
2145.99347172429	6378
2148.26473195623	6512
2150.53533034415	6525
2152.80526718821	6509
2155.07454278848	6500
2157.3431574449	6425
2159.61111145728	6564
2161.87840512538	6570
2164.1450387488	6537
2166.41101262707	6555
2168.67632705959	6599
2170.94098234567	6566
2173.20497878451	6618
2175.46831667519	6503
2177.73099631672	6597
2179.99301800797	6542
2182.25438204772	6605
2184.51508873466	6490
2186.77513836735	6586
2189.03453124427	6462
2191.29326766378	6574
2193.55134792416	6475
2195.80877232355	6493
2198.06554116004	6666
2200.32165473157	6523
2202.577113336	6508
2204.83191727111	6566
2207.08606683453	6529
2209.33956232384	6570
2211.59240403648	6560
2213.84459226982	6583
2216.09612732112	6553
2218.34700948753	6547
2220.59723906612	6565
2222.84681635385	6535
2225.09574164758	6520
2227.34401524408	6611
2229.59163744002	6471
2231.83860853197	6519
2234.08492881639	6642
2236.33059858968	6421
2238.5756181481	6593
2240.81998778784	6498
2243.06370780499	6589
2245.30677849555	6518
2247.54920015539	6568
2249.79097308033	6531
2252.03209756607	6642
2254.27257390822	6498
2256.51240240228	6639
2258.75158334369	6466
2260.99011702777	6563
2263.22800374976	6563
2265.46524380477	6636
2267.70183748786	6602
2269.93778509399	6497
2272.17308691801	6532
2274.40774325467	6570
2276.64175439866	6657
2278.87512064454	6495
2281.10784228682	6481
2283.33991961987	6650
2285.571352938	6634
2287.80214253541	6478
2290.03228870623	6613
2292.26179174449	6570
2294.4906519441	6596
2296.71886959892	6573
2298.9464450027	6626
2301.1733784491	6477
2303.39967023169	6530
2305.62532064395	6579
2307.85032997926	6537
2310.07469853093	6584
2312.29842659216	6461
2314.52151445608	6616
2316.7439624157	6432
2318.96577076397	6576
2321.18693979374	6582
2323.40746979777	6569
2325.62736106873	6573
2327.8466138992	6561
2330.06522858166	6545
2332.28320540853	6519
2334.50054467212	6512
2336.71724666465	6514
2338.93331167827	6522
2341.14874000501	6495
2343.36353193685	6511
2345.57768776564	6449
2347.79120778319	6576
2350.00409228117	6514
2352.21634155121	6580
2354.42795588482	6466
2356.63893557342	6533
2358.84928090838	6513
2361.05899218094	6537
2363.26806968228	6534
2365.47651370347	6478
2367.68432453552	6554
2369.89150246933	6526
2372.09804779571	6565
2374.30396080541	6490
2376.50924178907	6464
2378.71389103725	6417
2380.91790884042	6438
2383.12129548897	6436
2385.3240512732	6428
2387.52617648332	6530
2389.72767140946	6417
2391.92853634165	6397
2394.12877156985	6431
2396.32837738392	6571
2398.52735407365	6482
2400.72570192873	6439
2402.92342123875	6340
2405.12051229325	6473
2407.31697538167	6395
2409.51281079333	6482
2411.70801881751	6434
2413.90259974339	6419
2416.09655386004	6428
2418.28988145648	6345
2420.48258282162	6344
2422.6746582443	6447
2424.86610801325	6430
2427.05693241713	6407
2429.24713174452	6356
2431.43670628389	6339
2433.62565632365	6326
2435.81398215212	6305
2438.00168405752	6338
2440.18876232799	6315
2442.37521725158	6400
2444.56104911628	6246
2446.74625820994	6371
2448.93084482038	6353
2451.1148092353	6381
2453.29815174233	6394
2455.480872629	6249
2457.66297218275	6232
2459.84445069097	6197
2462.02530844092	6211
2464.2055457198	6218
2466.38516281471	6272
2468.56416001267	6331
2470.74253760061	6277
2472.92029586537	6256
2475.09743509372	6224
2477.27395557232	6196
2479.44985758777	6289
2481.62514142655	6223
2483.79980737508	6291
2485.97385571969	6197
2488.14728674661	6282
2490.32010074198	6260
2492.49229799188	6205
2494.66387878228	6147
2496.83484339905	6252
2499.00519212802	6242
2501.17492525488	6275
2503.34404306528	6334
2505.51254584473	6309
2507.6804338787	6240
2509.84770745254	6315
2512.01436685153	6297
2514.18041236085	6336
2516.34584426561	6263
2518.51066285081	6289
2520.67486840138	6328
2522.83846120214	6323
2525.00144153784	6200
2527.16380969314	6259
2529.32556595261	6412
2531.48671060072	6220
2533.64724392186	6272
2535.80716620033	6292
2537.96647772034	6351
2540.12517876602	6276
2542.2832696214	6340
2544.44075057041	6222
2546.59762189691	6361
2548.75388388466	6302
2550.90953681735	6283
2553.06458097853	6210
2555.21901665172	6240
2557.37284412031	6309
2559.5260636676	6173
2561.67867557684	6236
2563.83068013113	6098
2565.98207761351	6263
2568.13286830695	6193
2570.28305249429	6132
2572.43263045829	6183
2574.58160248163	6219
2576.72996884689	6116
2578.87772983655	6200
2581.02488573303	6189
2583.1714368186	6225
2585.31738337549	6125
2587.46272568582	6236
2589.60746403161	6201
2591.75159869479	6284
2593.89512995722	6161
2596.03805810061	6188
2598.18038340665	6233
2600.32210615686	6152
2602.46322663274	6098
2604.60374511563	6169
2606.74366188683	6119
2608.88297722751	6130
2611.02169141875	6087
2613.15980474156	6183
2615.29731747681	6224
2617.43422990532	6128
2619.57054230779	6182
2621.70625496483	6144
2623.84136815694	6140
2625.97588216456	6249
2628.10979726799	6156
2630.24311374746	6214
2632.3758318831	6142
2634.50795195493	6194
2636.6394742429	6150
2638.77039902682	6209
2640.90072658645	6197
2643.0304572014	6178
2645.15959115123	6241
2647.28812871538	6138
2649.41607017319	6202
2651.5434158039	6260
2653.67016588665	6216
2655.79632070049	6251
2657.92188052436	6158
2660.04684563711	6262
2662.17121631749	6232
2664.29499284413	6282
2666.41817549558	6185
2668.54076455027	6229
2670.66276028656	6180
2672.78416298267	6292
2674.90497291675	6299
2677.02519036682	6250
2679.14481561082	6295
2681.26384892658	6296
2683.38229059182	6245
2685.50014088417	6332
2687.61740008114	6243
2689.73406846017	6243
2691.85014629854	6304
2693.96563387347	6212
2696.08053146206	6307
2698.1948393413	6302
2700.3085577881	6168
2702.42168707924	6223
2704.53422749139	6164
2706.64617930112	6311
2708.75754278492	6316
2710.86831821913	6301
2712.97850588002	6318
2715.08810604372	6292
2717.19711898628	6232
2719.30554498363	6320
2721.41338431158	6384
2723.52063724586	6302
2725.62730406206	6277
2727.73338503569	6369
2729.83888044213	6333
2731.94379055664	6382
2734.04811565441	6282
2736.15185601048	6410
2738.25501189979	6252
2740.35758359718	6240
2742.45957137738	6344
2744.56097551499	6302
2746.6617962845	6336
2748.7620339603	6306
2750.86168881666	6287
2752.96076112774	6294
2755.05925116758	6336
2757.15715921012	6334
2759.25448552917	6347
2761.35123039843	6207
2763.44739409148	6395
2765.5429768818	6267
2767.63797904275	6423
2769.73240084756	6423
2771.82624256934	6253
2773.91950448113	6344
2776.01218685579	6382
2778.10428996609	6401
2780.19581408469	6328
2782.28675948414	6365
2784.37712643683	6418
2786.46691521507	6387
2788.55612609104	6398
2790.64475933678	6331
2792.73281522425	6244
2794.82029402525	6280
2796.90719601149	6419
2798.99352145453	6302
2801.07927062583	6245
2803.16444379672	6373
2805.24904123841	6314
2807.33306322197	6395
2809.41651001838	6472
2811.49938189847	6382
2813.58167913296	6400
2815.66340199243	6430
2817.74455074734	6486
2819.82512566805	6442
2821.90512702475	6392
2823.98455508754	6394
2826.06341012637	6571
2828.14169241109	6488
2830.2194022114	6500
2832.29653979686	6588
2834.37310543694	6600
2836.44909940096	6670
2838.5245219581	6712
2840.59937337744	6772
2842.67365392791	6839
2844.74736387829	6860
2846.82050349727	6884
2848.8930730534	7010
2850.96507281506	7022
2853.03650305056	7017
2855.10736402802	6983
2857.17765601545	6922
2859.24737928074	7054
2861.31653409164	6980
2863.38512071574	7004
2865.45313942054	7115
2867.52059047335	7173
2869.58747414139	7097
2871.65379069173	7142
2873.7195403913	7201
2875.78472350688	7224
2877.84934030515	7257
2879.91339105262	7288
2881.97687601567	7298
2884.03979546053	7280
2886.10214965332	7296
2888.16393886	7424
2890.22516334639	7279
2892.28582337816	7198
2894.34591922087	7267
2896.40545113992	7342
2898.46441940054	7354
2900.52282426787	7298
2902.58066600687	7202
2904.63794488237	7310
2906.69466115906	7329
2908.75081510147	7182
2910.806406974	7417
2912.8614370409	7064
2914.91590556626	7275
2916.96981281404	7186
2919.02315904807	7223
2921.07594453199	7213
2923.12816952932	7163
2925.17983430343	7097
2927.23093911753	7260
2929.28148423469	7138
2931.33146991782	7108
2933.3808964297	7009
2935.42976403294	6932
2937.47807299	6987
2939.5258235632	6860
2941.57301601469	6900
2943.61965060648	6867
2945.66572760042	6824
2947.71124725823	6839
2949.75620984143	6883
2951.80061561143	6887
2953.84446482945	6975
2955.88775775656	6814
2957.9304946537	6856
2959.97267578162	6863
2962.01430140095	6839
2964.05537177211	6773
2966.09588715541	6913
2968.13584781097	6830
2970.17525399875	6700
2972.21410597859	6686
2974.25240401011	6748
2976.29014835283	6800
2978.32733926604	6722
2980.36397700892	6828
2982.40006184049	6725
2984.43559401955	6850
2986.4705738048	6803
2988.50500145473	6832
2990.53887722771	6774
2992.57220138189	6762
2994.6049741753	6714
2996.63719586576	6850
2998.66886671097	6782
3000.69998696843	6812
3002.73055689549	6825
3004.7605767493	6866
3006.79004678688	6878
3008.81896726505	6865
3010.84733844048	6917
3012.87516056966	6916
3014.9024339089	6811
3016.92915871433	6912
3018.95533524196	6975
3020.98096374756	6996
3023.00604448675	6980
3025.030577715	6933
3027.05456368757	6971
3029.07800265956	6982
3031.10089488589	6953
3033.12324062131	6976
3035.14504012038	6956
3037.16629363749	6982
3039.18700142685	7013
3041.20716374249	6913
3043.22678083826	6981
3045.24585296782	7052
3047.26438038468	6975
3049.28236334212	6976
3051.29980209329	7106
3053.31669689111	7033
3055.33304798835	6910
3057.34885563757	7096
3059.36412009117	7058
3061.37884160134	7046
3063.39302042011	7153
3065.40665679931	6955
3067.41975099058	7057
3069.43230324538	6950
3071.44431381495	6953
3073.45578295041	7061
3075.46671090261	7104
3077.47709792227	7004
3079.48694425989	7047
3081.49625016578	7051
3083.50501589008	7016
3085.5132416827	7035
3087.5209277934	7012
3089.52807447169	6976
3091.53468196695	7128
3093.54075052832	7004
3095.54628040476	6970
3097.55127184503	7000
3099.55572509769	6949
3101.55964041111	6967
3103.56301803346	7062
3105.5658582127	7063
3107.56816119661	7125
3109.56992723275	6954
3111.57115656849	7071
3113.571849451	6930
3115.57200612724	7013
3117.57162684397	7084
3119.57071184775	7107
3121.56926138493	7045
3123.56727570166	7124
3125.56475504389	7109
3127.56169965735	7117
3129.55810978757	7135
3131.55398567987	7195
3133.54932757937	7192
3135.54413573099	7272
3137.53841037939	7224
3139.53215176909	7113
3141.52536014435	7256
3143.51803574924	7143
3145.51017882762	7156
3147.50178962311	7165
3149.49286837916	7207
3151.48341533897	7251
3153.47343074553	7199
3155.46291484164	7164
3157.45186786985	7323
3159.44029007252	7170
3161.42818169179	7203
3163.41554296955	7285
3165.40237414753	7298
3167.38867546718	7225
3169.37444716975	7226
3171.35968949631	7291
3173.34440268764	7314
3175.32858698436	7251
3177.31224262682	7115
3179.29536985517	7258
3181.27796890934	7318
3183.26004002902	7213
3185.24158345368	7289
3187.22259942256	7286
3189.2030881747	7211
3191.18304994886	7305
3193.16248498363	7285
3195.14139351733	7276
3197.11977578807	7290
3199.09763203371	7317
3201.07496249191	7458
3203.05176740007	7239
3205.02804699537	7323
3207.00380151475	7311
3208.97903119493	7327
3210.95373627238	7408
3212.92791698335	7343
3214.90157356383	7300
3216.8747062496	7304
3218.84731527619	7404
3220.81940087889	7409
3222.79096329275	7412
3224.76200275259	7494
3226.73251949298	7525
3228.70251374825	7418
3230.67198575251	7286
3232.64093573959	7455
3234.6093639431	7586
3236.57727059641	7565
3238.54465593261	7460
3240.51152018461	7537
3242.47786358502	7449
3244.44368636621	7424
3246.40898876031	7487
3248.37377099923	7497
3250.33803331458	7565
3252.30177593775	7643
3254.26499909987	7609
3256.22770303184	7660
3258.18988796427	7614
3260.15155412755	7447
3262.1127017518	7484
3264.0733310669	7566
3266.03344230246	7624
3267.99303568784	7638
3269.95211145215	7618
3271.91066982422	7568
3273.86871103267	7516
3275.82623530581	7625
3277.7832428717	7536
3279.73973395818	7675
3281.69570879278	7651
3283.6511676028	7696
3285.60611061527	7677
3287.56053805694	7625
3289.51445015432	7631
3291.46784713364	7677
3293.42072922088	7578
3295.37309664173	7643
3297.32494962163	7530
3299.27628838575	7590
3301.227113159	7729
3303.17742416601	7626
3305.12722163114	7685
3307.07650577848	7623
3309.02527683185	7688
3310.9735350148	7739
3312.9212805506	7697
3314.86851366225	7588
3316.81523457249	7687
3318.76144350377	7720
3320.70714067825	7655
3322.65232631783	7649
3324.59700064415	7663
3326.54116387854	7607
3328.48481624207	7571
3330.42795795551	7706
3332.37058923938	7572
3334.31271031389	7644
3336.25432139898	7579
3338.19542271432	7689
3340.13601447927	7638
3342.07609691292	7643
3344.01567023407	7645
3345.95473466124	7550
3347.89329041266	7655
3349.83133770627	7610
3351.76887675973	7627
3353.70590779039	7619
3355.64243101534	7664
3357.57844665135	7620
3359.51395491492	7726
3361.44895602224	7556
3363.38345018922	7695
3365.31743763148	7608
3367.25091856432	7783
3369.18389320278	7701
3371.11636176156	7613
3373.0483244551	7673
3374.97978149754	7760
3376.91073310269	7678
3378.84117948409	7708
3380.77112085498	7666
3382.70055742826	7738
3384.62948941659	7706
3386.55791703227	7646
3388.48584048733	7713
3390.41325999348	7815
3392.34017576214	7739
3394.2665880044	7825
3396.19249693107	7834
3398.11790275263	7736
3400.04280567926	7874
3401.96720592084	7867
3403.89110368692	7716
3405.81449918675	7814
3407.73739262928	7800
3409.65978422311	7725
3411.58167417658	7772
3413.50306269768	7819
3415.42394999408	7743
3417.34433627316	7902
3419.26422174195	7883
3421.18360660721	7722
3423.10249107532	7796
3425.02087535239	7745
3426.93875964421	7800
3428.8561441562	7725
3430.77302909353	7748
3432.68941466097	7876
3434.60530106301	7768
3436.52068850383	7789
3438.43557718726	7771
3440.34996731681	7795
3442.26385909565	7689
3444.17725272664	7775
3446.09014841231	7904
3448.00254635486	7688
3449.91444675614	7684
3451.82584981771	7782
3453.73675574076	7705
3455.64716472616	7720
3457.55707697445	7727
3459.46649268584	7660
3461.37541206018	7653
3463.28383529703	7755
3465.19176259555	7648
3467.09919415464	7726
3469.00613017278	7647
3470.91257084817	7671
3472.81851637863	7684
3474.72396696168	7607
3476.62892279446	7775
3478.53338407379	7664
3480.43735099614	7638
3482.34082375764	7640
3484.24380255404	7640
3486.1462875808	7604
3488.048279033	7693
3489.94977710537	7674
3491.85078199231	7642
3493.75129388783	7573
3495.65131298566	7642
3497.5508394791	7596
3499.44987356115	7643
