200.090469251518	1602
202.974751419362	1611
205.858021632263	1596.5
208.740280737522	1590
211.621529580443	1606.75
214.501769004371	1597.25
217.380999850626	1612.75
220.25922295859	1607.25
223.136439165646	1591.75
226.012649307235	1586.5
228.88785421682	1617.5
231.762054725918	1623
234.635251664113	1638.25
237.507445859021	1635
240.378638136346	1642.5
243.248829319855	1647.25
246.11802023137	1631.5
248.986211690826	1629
251.853404516227	1655.75
254.719599523654	1662
257.584797527335	1654.25
260.44899933954	1672
263.312205770682	1654.5
266.174417629303	1672.75
269.035635722015	1685.25
271.895860853609	1675.75
274.755093826978	1662.5
277.613335443144	1693
280.470586501309	1681.75
283.326847798766	1676
286.182120131019	1704
289.036404291684	1702.5
291.889701072574	1689
294.742011263643	1686.5
297.593335653048	1702
300.443675027094	1679.5
303.293030170295	1709.25
306.141401865367	1693.5
308.988790893174	1685.25
311.835198032837	1703.5
314.680624061635	1680
317.525069755113	1698.75
320.36853588697	1706.5
323.211023229178	1690.5
326.052532551923	1690.25
328.893064623604	1712.5
331.732620210885	1696.5
334.57120007867	1703.25
337.408804990093	1722.75
340.245435706565	1718.5
343.081092987733	1744.5
345.915777591523	1722.5
348.749490274145	1730.5
351.582231790049	1747.75
354.414002891997	1736.5
357.244804331021	1749.75
360.074636856443	1791.5
362.903501215886	1754.5
365.731398155265	1750.75
368.558328418814	1772.25
371.384292749062	1733
374.209291886869	1766.75
377.033326571407	1777.75
379.85639754017	1749.5
382.678505529009	1774.75
385.499651272065	1754.75
388.319835501872	1772.75
391.139058949258	1777.25
393.957322343453	1771.5
396.774626412011	1774.5
399.590971880847	1769
402.406359474258	1801.25
405.220789914893	1782
408.034263923801	1796.75
410.8467822204	1775
413.658345522483	1775.5
416.468954546242	1798
419.278610006277	1794.25
422.087312615557	1829.5
424.895063085503	1850.5
427.701862125901	1828.5
430.507710444981	1822.25
433.312608749366	1828.5
436.116557744146	1848
438.919558132791	1838.5
441.721610617238	1844.25
444.522715897856	1840
447.322874673457	1845
450.122087641299	1826.25
452.920355497092	1829.75
455.717678935009	1847.25
458.514058647681	1848
461.309495326219	1817.5
464.103989660191	1824.25
466.89754233765	1809
469.690154045114	1811
472.481825467625	1846
475.272557288674	1805.75
478.062350190281	1817.25
480.851204852952	1801.25
483.639121955683	1831.75
486.426102176007	1841.5
489.212146189955	1833.75
491.997254672093	1847.75
494.781428295471	1852.25
497.564667731716	1833
500.346973650958	1827
503.128346721878	1850.5
505.90878761169	1834
508.688296986151	1848
511.46687550957	1856.75
514.244523844831	1849
517.021242653354	1858.5
519.797032595132	1860.75
522.571894328732	1838.25
525.345828511279	1861.75
528.11883579849	1860.25
530.890916844655	1853.25
533.662072302668	1872.25
536.432302823985	1857
539.201609058684	1860.75
541.96999165542	1859.75
544.737451261473	1855
547.503988522723	1838.75
550.26960408366	1845.75
553.034298587394	1821.5
555.798072675669	1840.75
558.560926988819	1872.5
561.322862165849	1876.5
564.083878844369	1873.5
566.843977660654	1888.75
569.603159249604	1865
572.361424244769	1875.5
575.118773278369	1885
577.87520698124	1884
580.630725982905	1890.25
583.385330911566	1870.75
586.139022394076	1888.5
588.891801055954	1894.5
591.643667521406	1895.5
594.394622413318	1906
597.144666353273	1893.75
599.893799961512	1898.5
602.64202385701	1896.75
605.389338657413	1897
608.135744979089	1924
610.881243437092	1907.5
613.625834645191	1904
616.369519215881	1918
619.112297760374	1901.25
621.854170888604	1912.75
624.595139209225	1866.25
627.335203329614	1912.25
630.074363855914	1902.75
632.81262139299	1860.25
635.549976544436	1871.5
638.286429912612	1879.5
641.021982098635	1895.5
643.756633702364	1878.25
646.49038532241	1873.25
649.223237556176	1894
651.955190999808	1876.75
654.686246248224	1897.5
657.416403895135	1903.75
660.145664533011	1926.25
662.874028753133	1901.75
665.601497145537	1896
668.328070299071	1881.25
671.05374880138	1912.5
673.778533238885	1913.5
676.502424196839	1910.5
679.225422259297	1894
681.947528009099	1911.75
684.668742027927	1906.25
687.389064896281	1932.75
690.108497193465	1907.5
692.827039497621	1886.75
695.544692385724	1939.5
698.261456433585	1923.25
700.977332215847	1902.75
703.692320305981	1902
706.406421276337	1896.25
709.11963569808	1919
711.831964141256	1921.5
714.54340717474	1908.5
717.253965366304	1936.25
719.963639282552	1924
722.672429488961	1897.5
725.380336549904	1919.5
728.087361028596	1917.25
730.793503487166	1911
733.498764486594	1926.5
736.203144586758	1930
738.906644346447	1921.5
741.60926432331	1907.75
744.311005073912	1930.25
747.011867153727	1929
749.711851117121	1934.5
752.410957517375	1944.5
755.109186906677	1952.5
757.806539836132	1978.5
760.503016855779	1934
763.198618514551	1946
765.893345360346	1930.25
768.587197939964	1947.75
771.28017679914	1955.75
773.972282482566	1933.75
776.663515533859	1919.5
779.353876495581	1937.25
782.043365909241	1942.75
784.731984315327	1972.25
787.419732253235	1942
790.106610261366	1928.25
792.792618877058	1940
795.477758636618	1956.5
798.162030075313	1963.75
800.845433727423	1917.25
803.52797012615	1922
806.209639803714	1958.75
808.890443291304	1943.75
811.570381119098	1932.75
814.249453816265	1938.75
816.927661910959	1924.25
819.60500593036	1936.5
822.281486400603	1949
824.957103846864	1945.75
827.631858793316	1987.75
830.305751763135	1946
832.978783278519	1981.25
835.650953860677	1987
838.322264029848	1964.75
840.992714305292	1980.75
843.662305205289	1990.25
846.331037247157	1972.75
848.998910947241	2006.25
851.665926820933	1958
854.332085382674	1967.75
856.997387145915	1986.25
859.661832623191	1988.5
862.325422326066	1983
864.988156765172	1979
867.650036450181	1992.75
870.311061889846	1995
872.971233591961	1997.5
875.630552063409	1986.25
878.28901781013	1984.5
880.946631337138	1979
883.603393148533	1968
886.259303747484	1992
888.914363636246	1978.75
891.568573316155	1975.25
894.22193328767	1950.75
896.874444050281	1967
899.526106102625	1990.5
902.176919942416	2010.75
904.826886066483	1970.5
907.476004970747	2013.5
910.124277150255	2013.5
912.77170309913	2029
915.418283310642	2006.75
918.064018277175	1984.75
920.708908490222	1999.75
923.352954440405	1998.5
925.996156617486	2015.5
928.638515510334	2032
931.280031606966	2023.5
933.920705394521	2027.75
936.560537359303	2011
939.199527986737	2019.5
941.837677761392	2025.75
944.474987167006	2024.5
947.111456686438	2028.75
949.747086801734	2040.5
952.38187799407	2025
955.015830743792	2019.25
957.648945530418	2046.5
960.281222832633	2034.75
962.91266312826	2012.75
965.543266894336	2015.5
968.173034607058	2006.75
970.801966741779	2039.5
973.43006377307	2005.5
976.057326174661	2013.25
978.683754419471	2017.75
981.309348979623	2010.5
983.93411032642	2005.25
986.558038930361	2007.5
989.181135261144	2047.5
991.803399787692	2035.25
994.424832978086	2031.25
997.045435299653	2034.75
999.665207218906	2025.25
1002.2841492016	2021.75
1004.90226171266	2016
1007.51954521628	2056.75
1010.13600017584	2051.75
1012.75162705397	2047
1015.3664263125	2041.5
1017.9803984125	2052.5
1020.5935438143	2026.5
1023.20586297741	2048.25
1025.81735636063	2062.75
1028.42802442196	2052
1031.03786761869	2068.25
1033.64688640732	2060
1036.2550812436	2082.25
1038.86245258255	2099
1041.46900087844	2066
1044.07472658479	2062.25
1046.67963015438	2085.75
1049.28371203927	2077.5
1051.88697269075	2080.5
1054.48941255943	2095
1057.09103209513	2098.25
1059.691831747	2145.25
1062.29181196343	2101.5
1064.89097319211	2120.5
1067.48931587999	2093.25
1070.08684047333	2088
1072.68354741766	2094.75
1075.27943715779	2104.75
1077.87451013787	2098.5
1080.46876680127	2133
1083.06220759071	2102.25
1085.65483294822	2118
1088.24664331509	2118.75
1090.83763913194	2089.25
1093.42782083869	2111.5
1096.01718887459	2094
1098.60574367818	2095.25
1101.19348568732	2083.75
1103.78041533919	2099.5
1106.3665330703	2114.5
1108.95183931646	2099.25
1111.53633451284	2098.25
1114.12001909391	2087.25
1116.70289349349	2139.25
1119.2849581447	2101.25
1121.86621348005	2135.25
1124.44665993134	2117.5
1127.02629792973	2158.25
1129.60512790574	2138.75
1132.18315028919	2150
1134.76036550929	2140.75
1137.3367739946	2136.5
1139.912376173	2142.75
1142.48717247176	2154
1145.06116331748	2160
1147.63434913616	2151.75
1150.20673035312	2156.25
1152.77830739307	2145.5
1155.34908068007	2165.25
1157.91905063757	2146.75
1160.48821768838	2161
1163.05658225471	2170.5
1165.6241447581	2147
1168.19090561951	2155.25
1170.75686525927	2151.25
1173.32202409708	2141.5
1175.88638255206	2178
1178.44994104269	2145.5
1181.01269998684	2151.75
1183.57465980182	2152.25
1186.13582090427	2157.5
1188.69618371026	2146
1191.25574863529	2130.75
1193.8145160942	2130.75
1196.37248650129	2170
1198.92966027025	2144.75
1201.48603781416	2151.25
1204.04161954556	2132.75
1206.59640587635	2135
1209.15039721788	2159.75
1211.70359398092	2163.25
1214.25599657564	2171
1216.80760541166	2161.75
1219.35842089801	2173.75
1221.90844344314	2192.25
1224.45767345496	2164.75
1227.00611134077	2174.25
1229.55375750736	2193.75
1232.10061236092	2214.5
1234.64667630707	2220
1237.1919497509	2218.75
1239.73643309692	2271.5
1242.28012674912	2266.75
1244.82303111089	2269
1247.36514658511	2304.5
1249.9064735741	2291.5
1252.44701247964	2311.25
1254.98676370294	2310.25
1257.52572764469	2319
1260.06390470506	2308.75
1262.60129528365	2313.25
1265.13789977954	2280
1267.67371859128	2282.5
1270.20875211688	2288.75
1272.74300075384	2287.5
1275.2764648991	2266
1277.80914494911	2316.25
1280.34104129978	2331.25
1282.87215434652	2310.75
1285.40248448419	2345.25
1287.93203210715	2354.25
1290.46079760927	2324.75
1292.98878138385	2349.75
1295.51598382375	2345.75
1298.04240532127	2332.5
1300.56804626822	2348
1303.09290705593	2347
1305.6169880752	2334.75
1308.14028971632	2327
1310.66281236913	2338
1313.18455642292	2326
1315.70552226653	2337.25
1318.22571028829	2331.75
1320.74512087603	2362.75
1323.26375441711	2342
1325.7816112984	2356.75
1328.29869190629	2360.5
1330.81499662666	2374.5
1333.33052584497	2389.5
1335.84527994613	2384
1338.35925931464	2379
1340.87246433446	2400.75
1343.38489538916	2391.25
1345.89655286177	2434.25
1348.40743713487	2417
1350.91754859059	2427.25
1353.42688761059	2413.5
1355.93545457606	2455.75
1358.44324986772	2452
1360.95027386588	2453.25
1363.45652695032	2480.5
1365.96200950042	2476
1368.4667218951	2462.25
1370.97066451281	2468.75
1373.47383773156	2476.5
1375.97624192891	2505.5
1378.47787748199	2513.5
1380.97874476746	2495
1383.47884416157	2509.5
1385.97817604009	2482.5
1388.4767407784	2517.75
1390.9745387514	2525.75
1393.47157033358	2562
1395.96783589898	2600.5
1398.46333582124	2557.5
1400.95807047354	2563
1403.45204022864	2533.25
1405.94524545889	2496.5
1408.4376865362	2505.5
1410.92936383205	2521
1413.42027771752	2502
1415.91042856328	2519.75
1418.39981673955	2555.25
1420.88844261615	2536.5
1423.37630656249	2555
1425.86340894757	2557.5
1428.34975013999	2612.5
1430.83533050792	2642.25
1433.32015041912	2620.25
1435.80421024098	2639
1438.28751034045	2644.25
1440.77005108411	2668
1443.25183283812	2682.25
1445.73285596824	2664.5
1448.21312083984	2686
1450.69262781791	2709.5
1453.17137726702	2739.75
1455.64936955137	2695.75
1458.12660503477	2741
1460.60308408063	2723.25
1463.07880705197	2719.75
1465.55377431145	2742.5
1468.02798622133	2725.75
1470.50144314348	2724
1472.97414543941	2714.5
1475.44609347024	2750.75
1477.91728759673	2746.75
1480.38772817924	2783.5
1482.85741557777	2779
1485.32635015194	2778.25
1487.79453226103	2753.25
1490.26196226391	2768.25
1492.72864051911	2820.5
1495.1945673848	2791.75
1497.65974321874	2778.75
1500.1241683784	2812.25
1502.58784322083	2815
1505.05076810274	2830.75
1507.51294338049	2834.25
1509.97436941009	2848.5
1512.43504654717	2866.25
1514.89497514704	2867.5
1517.35415556462	2896.5
1519.81258815451	2898
1522.27027327095	2907.25
1524.72721126784	2907.75
1527.18340249874	2910
1529.63884731684	2911.5
1532.09354607502	2927.25
1534.5474991258	2954.75
1537.00070682136	2959.75
1539.45316951355	2956.5
1541.90488755388	2957.75
1544.35586129353	2990.25
1546.80609108336	3020.75
1549.25557727385	2996.25
1551.70432021519	3018.75
1554.15232025725	3043.5
1556.59957774953	3085
1559.04609304125	3103.25
1561.49186648127	3104
1563.93689841815	3110.5
1566.38118920011	3109.75
1568.82473917506	3165.25
1571.2675486906	3137
1573.70961809399	3191
1576.15094773219	3199.25
1578.59153795184	3182.25
1581.03138909928	3223
1583.47050152051	3297.75
1585.90887556123	3325.25
1588.34651156686	3467
1590.78340988246	3533.25
1593.21957085283	3618.5
1595.65499482245	3658
1598.08968213547	3598.5
1600.52363313578	3515
1602.95684816694	3429.5
1605.38932757224	3376
1607.82107169462	3304
1610.25208087677	3324.75
1612.68235546107	3326.75
1615.1118957896	3294
1617.54070220415	3311.5
1619.96877504621	3302.5
1622.39611465701	3308.5
1624.82272137746	3330.5
1627.24859554818	3324.75
1629.67373750953	3334.25
1632.09814760155	3303.5
1634.52182616404	3304.25
1636.94477353647	3355.25
1639.36699005806	3334.75
1641.78847606776	3372
1644.20923190418	3371.75
1646.62925790573	3374.5
1649.04855441048	3349
1651.46712175628	3458.75
1653.88496028066	3439.75
1656.3020703209	3459
1658.71845221401	3462.5
1661.13410629671	3503.5
1663.54903290547	3505.25
1665.96323237649	3499.5
1668.37670504571	3525.25
1670.78945124877	3611
1673.20147132109	3596.75
1675.61276559779	3618.25
1678.02333441377	3612.25
1680.43317810362	3621.25
1682.84229700171	3651.25
1685.25069144213	3656.5
1687.65836175872	3678.5
1690.06530828507	3690.5
1692.47153135451	3732.5
1694.87703130009	3698.75
1697.28180845467	3747.75
1699.6858631508	3746
1702.08919572081	3780.25
1704.49180649676	3805.25
1706.89369581049	3802.5
1709.29486399355	3813.25
1711.69531137731	3801.5
1714.09503829282	3791.25
1716.49404507095	3815.25
1718.89233204229	3849.5
1721.28989953721	3867.25
1723.68674788581	3923
1726.08287741798	3896.5
1728.47828846338	3930
1730.87298135139	3872.75
1733.26695641119	3947
1735.66021397173	3945.75
1738.05275436169	3944.25
1740.44457790954	3955.25
1742.83568494354	3985.5
1745.22607579168	4008
1747.61575078175	3995
1750.00471024128	4036
1752.39295449761	4064.75
1754.78048387783	4024
1757.16729870881	4086.75
1759.5533993172	4121
1761.93878602942	4107
1764.32345917168	4159
1766.70741906995	4157.25
1769.09066604999	4157.5
1771.47320043735	4212.25
1773.85502255735	4231
1776.2361327351	4271.5
1778.61653129548	4263.5
1780.99621856318	4294
1783.37519486264	4357.5
1785.75346051813	4357.25
1788.13101585368	4371.75
1790.5078611931	4430.75
1792.88399686002	4417.25
1795.25942317785	4429.25
1797.63414046977	4439.25
1800.00814905878	4460
1802.38144926766	4502.25
1804.75404141898	4493
1807.12592583514	4528.75
1809.49710283829	4595.25
1811.86757275039	4596.5
1814.23733589322	4619.25
1816.60639258834	4604.25
1818.97474315712	4630.5
1821.34238792073	4660.25
1823.70932720012	4660.5
1826.07556131608	4657.75
1828.44109058918	4701
1830.8059153398	4743.5
1833.17003588812	4726.5
1835.53345255413	4752.25
1837.89616565765	4787.5
1840.25817551827	4778.25
1842.61948245541	4811.25
1844.9800867883	4857.25
1847.33998883598	4853
1849.69918891729	4881.25
1852.05768735091	4939.75
1854.4154844553	4883
1856.77258054875	4908
1859.12897594938	4930.25
1861.4846709751	4979.75
1863.83966594366	4935.75
1866.19396117261	4994.25
1868.54755697932	5035
1870.90045368099	5098.75
1873.25265159463	5112.75
1875.60415103708	5142
1877.95495232501	5206
1880.30505577486	5204.25
1882.65446170299	5209.75
1885.00317042548	5279.25
1887.35118225832	5269.5
1889.69849751726	5321.5
1892.04511651792	5384.5
1894.39103957574	5450
1896.73626700596	5461
1899.08079912368	5465.25
1901.42463624384	5529.75
1903.76777868116	5545.5
1906.11022675025	5571.5
1908.4519807655	5566.75
1910.79304104117	5678.75
1913.13340789134	5652
1915.47308162992	5686.25
1917.81206257067	5754
1920.15035102718	5672
1922.48794731286	5775.25
1924.82485174096	5821.5
1927.16106462461	5874
1929.49658627672	5854.75
1931.83141701008	5934
1934.1655571373	5899.25
1936.49900697085	5884
1938.83176682301	6013
1941.16383700594	6012.75
1943.49521783161	6013.75
1945.82590961186	6034
1948.15591265835	6033.25
1950.48522728262	6058
1952.81385379602	6109
1955.14179250976	6119.25
1957.46904373489	6134.25
1959.79560778233	6185.25
1962.12148496284	6203
1964.44667558701	6233
1966.77117996529	6236.75
1969.09499840799	6302.5
1971.41813122527	6348
1973.74057872714	6411
1976.06234122345	6464
1978.38341902391	6477.25
1980.7038124381	6527.75
1983.02352177543	6562
1985.34254734518	6585.5
1987.66088945649	6632.5
1989.97854841833	6693
1992.29552453956	6745
1994.61181812887	6737.5
1996.92742949483	6786.25
1999.24235894586	6910
2001.55660679023	6955.5
2003.87017333608	6997.5
2006.18305889143	7037.5
2008.49526376413	7042.75
2010.80678826189	7117.75
2013.1176326923	7182
2015.42779736282	7245
2017.73728258075	7334
2020.04608865326	7353
2022.3542158874	7370.5
2024.66166459008	7484
2026.96843506807	7495.5
2029.274527628	7574.5
2031.57994257637	7685
2033.88468021957	7600
2036.18874086383	7722.25
2038.49212481526	7746.5
2040.79483237983	7766.5
2043.0968638634	7847.75
2045.39821957169	7901
2047.69889981028	7908
2049.99890488462	7911
2052.29823510006	8006.5
2054.59689076181	8041.75
2056.89487217492	8111.25
2059.19217964437	8124.5
2061.48881347497	8120.75
2063.7847739714	8187.25
2066.08006143826	8251.25
2068.37467618	8211
2070.66861850093	8284.75
2072.96188870527	8291
2075.25448709707	8380.25
2077.54641398031	8424.25
2079.83766965881	8462.25
2082.12825443629	8456.5
2084.41816861634	8506.75
2086.70741250242	8491.75
2088.99598639789	8543.5
2091.28389060597	8585.75
2093.57112542978	8634
2095.85769117232	8689.25
2098.14358813644	8663.25
2100.42881662491	8717
2102.71337694037	8714
2104.99726938532	8712
2107.28049426219	8767
2109.56305187325	8801.75
2111.84494252069	8887.25
2114.12616650655	8984.25
2116.40672413278	8927.25
2118.68661570121	8884.75
2120.96584151355	8983.25
2123.24440187138	9093.25
2125.52229707622	9085
2127.79952742943	9039.75
2130.07609323227	9163.25
2132.35199478588	9157
2134.62723239132	9213.5
2136.90180634949	9243.5
2139.17571696123	9210
2141.44896452723	9319
2143.72154934809	9353.75
2145.99347172429	9330
2148.26473195623	9329
2150.53533034415	9490.25
2152.80526718821	9445.5
2155.07454278848	9476
2157.3431574449	9386.75
2159.61111145728	9533
2161.87840512538	9443.75
2164.1450387488	9452.5
2166.41101262707	9524.25
2168.67632705959	9530
2170.94098234567	9491.25
2173.20497878451	9489
2175.46831667519	9554.5
2177.73099631672	9439
2179.99301800797	9508
2182.25438204772	9502.75
2184.51508873466	9481.5
2186.77513836735	9438.75
2189.03453124427	9484
2191.29326766378	9429.75
2193.55134792416	9436.5
2195.80877232355	9405.5
2198.06554116004	9407.75
2200.32165473157	9378.5
2202.577113336	9345.5
2204.83191727111	9413.5
2207.08606683453	9388.25
2209.33956232384	9304.75
2211.59240403648	9313
2213.84459226982	9257
2216.09612732112	9193
2218.34700948753	9154.5
2220.59723906612	9216.75
2222.84681635385	9257.25
2225.09574164758	9075.75
2227.34401524408	9175.5
2229.59163744002	9114
2231.83860853197	9109.5
2234.08492881639	9013.75
2236.33059858968	8990.75
2238.5756181481	9064
2240.81998778784	9026
2243.06370780499	8914
2245.30677849555	9008.75
2247.54920015539	8921.75
2249.79097308033	8888.75
2252.03209756607	8873.25
2254.27257390822	8840.75
2256.51240240228	8772.75
2258.75158334369	8783.25
2260.99011702777	8759.75
2263.22800374976	8763.5
2265.46524380477	8723.25
2267.70183748786	8647.5
2269.93778509399	8688.5
2272.17308691801	8568.75
2274.40774325467	8620.5
2276.64175439866	8657
2278.87512064454	8540
2281.10784228682	8465.25
2283.33991961987	8499.75
2285.571352938	8448.75
2287.80214253541	8451.25
2290.03228870623	8487.25
2292.26179174449	8358.5
2294.4906519441	8421.75
2296.71886959892	8405.25
2298.9464450027	8262.5
2301.1733784491	8319.5
2303.39967023169	8218.25
2305.62532064395	8248
2307.85032997926	8199.75
2310.07469853093	8180.5
2312.29842659216	8095.25
2314.52151445608	8181
2316.7439624157	8038.5
2318.96577076397	8061
2321.18693979374	7981
2323.40746979777	8039
2325.62736106873	7962.5
2327.8466138992	8042.25
2330.06522858166	7912.25
2332.28320540853	7939
2334.50054467212	7863.25
2336.71724666465	7866
2338.93331167827	7825
2341.14874000501	7802.75
2343.36353193685	7753
2345.57768776564	7673.75
2347.79120778319	7711.25
2350.00409228117	7682.75
2352.21634155121	7710.25
2354.42795588482	7629.5
2356.63893557342	7597.75
2358.84928090838	7587.75
2361.05899218094	7559.5
2363.26806968228	7508.5
2365.47651370347	7579.5
2367.68432453552	7507.25
2369.89150246933	7456.25
2372.09804779571	7438
2374.30396080541	7408.25
2376.50924178907	7377.25
2378.71389103725	7386.25
2380.91790884042	7351
2383.12129548897	7314.5
2385.3240512732	7270.25
2387.52617648332	7224.5
2389.72767140946	7210.25
2391.92853634165	7256.5
2394.12877156985	7167.5
2396.32837738392	7220.5
2398.52735407365	7113.25
2400.72570192873	7095.25
2402.92342123875	7075
2405.12051229325	7080.25
2407.31697538167	7068.25
2409.51281079333	7027.75
2411.70801881751	7022.75
2413.90259974339	6978.75
2416.09655386004	7029.75
2418.28988145648	6963.5
2420.48258282162	6919.25
2422.6746582443	6941
2424.86610801325	6965
2427.05693241713	6935.25
2429.24713174452	6899.25
2431.43670628389	6841
2433.62565632365	6870.25
2435.81398215212	6823.75
2438.00168405752	6819.5
2440.18876232799	6774.75
2442.37521725158	6776.75
2444.56104911628	6720.75
2446.74625820994	6684.75
2448.93084482038	6631.25
2451.1148092353	6720.25
2453.29815174233	6624.5
2455.480872629	6619
2457.66297218275	6633
2459.84445069097	6498.75
2462.02530844092	6593.25
2464.2055457198	6505.5
2466.38516281471	6492
2468.56416001267	6436.5
2470.74253760061	6441.75
2472.92029586537	6478.5
2475.09743509372	6397
2477.27395557232	6423.25
2479.44985758777	6460.5
2481.62514142655	6411.75
2483.79980737508	6368.75
2485.97385571969	6337
2488.14728674661	6335.5
2490.32010074198	6292.25
2492.49229799188	6323.5
2494.66387878228	6309.25
2496.83484339905	6357
2499.00519212802	6303.75
2501.17492525488	6261
2503.34404306528	6253.75
2505.51254584473	6244.75
2507.6804338787	6296
2509.84770745254	6280.5
2512.01436685153	6224.75
2514.18041236085	6234.5
2516.34584426561	6225.5
2518.51066285081	6187
2520.67486840138	6289.25
2522.83846120214	6217
2525.00144153784	6149
2527.16380969314	6137
2529.32556595261	6158.5
2531.48671060072	6222
2533.64724392186	6145.25
2535.80716620033	6145.25
2537.96647772034	6111.75
2540.12517876602	6064
2542.2832696214	6110.25
2544.44075057041	6054
2546.59762189691	6009
2548.75388388466	6052.25
2550.90953681735	5991.5
2553.06458097853	6020.75
2555.21901665172	5997.5
2557.37284412031	5973.5
2559.5260636676	5995.25
2561.67867557684	5983.5
2563.83068013113	5934
2565.98207761351	5945
2568.13286830695	5886.5
2570.28305249429	5834
2572.43263045829	5867.5
2574.58160248163	5835.25
2576.72996884689	5792.25
2578.87772983655	5788.5
2581.02488573303	5855.75
2583.1714368186	5824.25
2585.31738337549	5725
2587.46272568582	5730.5
2589.60746403161	5734.25
2591.75159869479	5767.75
2593.89512995722	5717
2596.03805810061	5711
2598.18038340665	5697.75
2600.32210615686	5706.5
2602.46322663274	5638
2604.60374511563	5677
2606.74366188683	5622
2608.88297722751	5613
2611.02169141875	5624
2613.15980474156	5640.5
2615.29731747681	5619.75
2617.43422990532	5673.5
2619.57054230779	5561.75
2621.70625496483	5595.75
2623.84136815694	5558.5
2625.97588216456	5629
2628.10979726799	5599.25
2630.24311374746	5613
2632.3758318831	5601.75
2634.50795195493	5536.5
2636.6394742429	5583.75
2638.77039902682	5560.5
2640.90072658645	5572.25
2643.0304572014	5582
2645.15959115123	5555.25
2647.28812871538	5575
2649.41607017319	5561.25
2651.5434158039	5517.75
2653.67016588665	5493.25
2655.79632070049	5525
2657.92188052436	5502.5
2660.04684563711	5546.5
2662.17121631749	5545.25
2664.29499284413	5503.25
2666.41817549558	5484.25
2668.54076455027	5489.5
2670.66276028656	5489.25
2672.78416298267	5488.75
2674.90497291675	5456.5
2677.02519036682	5463.25
2679.14481561082	5504.5
2681.26384892658	5457.25
2683.38229059182	5489.25
2685.50014088417	5484.75
2687.61740008114	5443.5
2689.73406846017	5434
2691.85014629854	5467.75
2693.96563387347	5448.25
2696.08053146206	5431.25
2698.1948393413	5387
2700.3085577881	5403.5
2702.42168707924	5398
2704.53422749139	5363.5
2706.64617930112	5408.5
2708.75754278492	5422
2710.86831821913	5344.5
2712.97850588002	5409.25
2715.08810604372	5342.75
2717.19711898628	5406.5
2719.30554498363	5362.75
2721.41338431158	5374.25
2723.52063724586	5343.25
2725.62730406206	5383.75
2727.73338503569	5318.25
2729.83888044213	5313.75
2731.94379055664	5334.25
2734.04811565441	5364.75
2736.15185601048	5365
2738.25501189979	5349.25
2740.35758359718	5313.75
2742.45957137738	5289.5
2744.56097551499	5326.5
2746.6617962845	5331
2748.7620339603	5341.25
2750.86168881666	5357.75
2752.96076112774	5368.75
2755.05925116758	5293.5
2757.15715921012	5257.75
2759.25448552917	5272.5
2761.35123039843	5257.25
2763.44739409148	5264
2765.5429768818	5236.25
2767.63797904275	5258.75
2769.73240084756	5258.75
2771.82624256934	5301.5
2773.91950448113	5252.5
2776.01218685579	5251.5
2778.10428996609	5265
2780.19581408469	5243
2782.28675948414	5268.75
2784.37712643683	5266.75
2786.46691521507	5227.75
2788.55612609104	5185.25
2790.64475933678	5205.5
2792.73281522425	5198.75
2794.82029402525	5190
2796.90719601149	5205.25
2798.99352145453	5139.25
2801.07927062583	5201.5
2803.16444379672	5160
2805.24904123841	5200
2807.33306322197	5181.5
2809.41651001838	5199.75
2811.49938189847	5217.75
2813.58167913296	5195.75
2815.66340199243	5259
2817.74455074734	5213.25
2819.82512566805	5215.5
2821.90512702475	5203.5
2823.98455508754	5171.75
2826.06341012637	5235.5
2828.14169241109	5223.25
2830.2194022114	5271.75
2832.29653979686	5230
2834.37310543694	5275.25
2836.44909940096	5334
2838.5245219581	5388
2840.59937337744	5454
2842.67365392791	5557.75
2844.74736387829	5583
2846.82050349727	5649.75
2848.8930730534	5687.75
2850.96507281506	5616.75
2853.03650305056	5648.75
2855.10736402802	5605.5
2857.17765601545	5566.75
2859.24737928074	5514.25
2861.31653409164	5540.75
2863.38512071574	5467.5
2865.45313942054	5504.25
2867.52059047335	5471.25
2869.58747414139	5493.5
2871.65379069173	5430.5
2873.7195403913	5530.75
2875.78472350688	5555.75
2877.84934030515	5625
2879.91339105262	5678
2881.97687601567	5632
2884.03979546053	5631
2886.10214965332	5576
2888.16393886	5595.75
2890.22516334639	5575.5
2892.28582337816	5528
2894.34591922087	5590.75
2896.40545113992	5605
2898.46441940054	5579.25
2900.52282426787	5541
2902.58066600687	5550.75
2904.63794488237	5535.5
2906.69466115906	5462.75
2908.75081510147	5494.5
2910.806406974	5493.75
2912.8614370409	5432.75
2914.91590556626	5547.25
2916.96981281404	5492
2919.02315904807	5407
2921.07594453199	5495.25
2923.12816952932	5455.5
2925.17983430343	5450
2927.23093911753	5468.5
2929.28148423469	5409.75
2931.33146991782	5426
2933.3808964297	5358
2935.42976403294	5350
2937.47807299	5385.5
2939.5258235632	5293.75
2941.57301601469	5282.75
2943.61965060648	5248.25
2945.66572760042	5274.5
2947.71124725823	5251.5
2949.75620984143	5243.75
2951.80061561143	5228.5
2953.84446482945	5228.25
2955.88775775656	5240
2957.9304946537	5140.25
2959.97267578162	5211.75
2962.01430140095	5231.75
2964.05537177211	5240.75
2966.09588715541	5193.75
2968.13584781097	5216.5
2970.17525399875	5245
2972.21410597859	5207.25
2974.25240401011	5245.5
2976.29014835283	5234
2978.32733926604	5254.75
2980.36397700892	5245.25
2982.40006184049	5236.25
2984.43559401955	5293.5
2986.4705738048	5277.5
2988.50500145473	5295.75
2990.53887722771	5326
2992.57220138189	5266.5
2994.6049741753	5268.5
2996.63719586576	5304
2998.66886671097	5317.5
3000.69998696843	5358.5
3002.73055689549	5370.25
3004.7605767493	5394.75
3006.79004678688	5347.5
3008.81896726505	5403.25
3010.84733844048	5348.75
3012.87516056966	5405.75
3014.9024339089	5391.5
3016.92915871433	5458.25
3018.95533524196	5454.75
3020.98096374756	5438.25
3023.00604448675	5440.75
3025.030577715	5429.25
3027.05456368757	5526.25
3029.07800265956	5518.5
3031.10089488589	5462.25
3033.12324062131	5476.25
3035.14504012038	5538.75
3037.16629363749	5499
3039.18700142685	5495.75
3041.20716374249	5511.5
3043.22678083826	5492
3045.24585296782	5521
3047.26438038468	5497
3049.28236334212	5539.25
3051.29980209329	5547.5
3053.31669689111	5522.25
3055.33304798835	5522.75
3057.34885563757	5579
3059.36412009117	5568.5
3061.37884160134	5515
3063.39302042011	5588
3065.40665679931	5576.5
3067.41975099058	5543.75
3069.43230324538	5610.25
3071.44431381495	5566
3073.45578295041	5605.25
3075.46671090261	5609.75
3077.47709792227	5596.5
3079.48694425989	5588.75
3081.49625016578	5639
3083.50501589008	5616.5
3085.5132416827	5618.75
3087.5209277934	5700.5
3089.52807447169	5660
3091.53468196695	5715.5
3093.54075052832	5652.25
3095.54628040476	5663
3097.55127184503	5656
3099.55572509769	5679
3101.55964041111	5683
3103.56301803346	5668.75
3105.5658582127	5699
3107.56816119661	5753.75
3109.56992723275	5669.5
3111.57115656849	5747.5
3113.571849451	5709.5
3115.57200612724	5767.25
3117.57162684397	5721.25
3119.57071184775	5788.25
3121.56926138493	5800.75
3123.56727570166	5821.25
3125.56475504389	5798.5
3127.56169965735	5736
3129.55810978757	5789.25
3131.55398567987	5826.25
3133.54932757937	5855.75
3135.54413573099	5947.5
3137.53841037939	5893
3139.53215176909	5925.5
3141.52536014435	5951.5
3143.51803574924	5937.5
3145.51017882762	5941
3147.50178962311	5941.5
3149.49286837916	5967.25
3151.48341533897	5986.5
3153.47343074553	5971
3155.46291484164	5977
3157.45186786985	5981.5
3159.44029007252	5993
3161.42818169179	6008.25
3163.41554296955	6040.25
3165.40237414753	6073.5
3167.38867546718	6052
3169.37444716975	6038.25
3171.35968949631	6087
3173.34440268764	6072.5
3175.32858698436	6102.25
3177.31224262682	6122
3179.29536985517	6157.25
3181.27796890934	6076.5
3183.26004002902	6131.5
3185.24158345368	6207
3187.22259942256	6201.75
3189.2030881747	6167
3191.18304994886	6169.25
3193.16248498363	6199.75
3195.14139351733	6196.5
3197.11977578807	6197.75
3199.09763203371	6268
3201.07496249191	6264.5
3203.05176740007	6306.5
3205.02804699537	6252.25
3207.00380151475	6306
3208.97903119493	6327.5
3210.95373627238	6329.5
3212.92791698335	6319.75
3214.90157356383	6342
3216.8747062496	6383
3218.84731527619	6353.5
3220.81940087889	6392
3222.79096329275	6396
3224.76200275259	6415.25
3226.73251949298	6509
3228.70251374825	6490.5
3230.67198575251	6482.25
3232.64093573959	6482.5
3234.6093639431	6526.25
3236.57727059641	6539.25
3238.54465593261	6609
3240.51152018461	6551.75
3242.47786358502	6645.25
3244.44368636621	6606.75
3246.40898876031	6588.75
3248.37377099923	6659
3250.33803331458	6718.75
3252.30177593775	6649
3254.26499909987	6767.25
3256.22770303184	6766.5
3258.18988796427	6752.25
3260.15155412755	6712
3262.1127017518	6705
3264.0733310669	6772.25
3266.03344230246	6805.75
3267.99303568784	6835
3269.95211145215	6745.25
3271.91066982422	6842.75
3273.86871103267	6844
3275.82623530581	6827.25
3277.7832428717	6838
3279.73973395818	6908.25
3281.69570879278	6878
3283.6511676028	6959.5
3285.60611061527	6952
3287.56053805694	6960
3289.51445015432	6940
3291.46784713364	6961
3293.42072922088	6984.25
3295.37309664173	6965.75
3297.32494962163	6990
3299.27628838575	6927
3301.227113159	6998.75
3303.17742416601	6995.25
3305.12722163114	7094.75
3307.07650577848	7012
3309.02527683185	7045.25
3310.9735350148	7050
3312.9212805506	7069
3314.86851366225	7070
3316.81523457249	7089
3318.76144350377	7067.5
3320.70714067825	7114.75
3322.65232631783	7134
3324.59700064415	7122.25
3326.54116387854	7133.25
3328.48481624207	7134.75
3330.42795795551	7174
3332.37058923938	7147.25
3334.31271031389	7165.25
3336.25432139898	7151.5
3338.19542271432	7157
3340.13601447927	7183.25
3342.07609691292	7224.5
3344.01567023407	7170.25
3345.95473466124	7221.75
3347.89329041266	7220
3349.83133770627	7270.75
3351.76887675973	7298.75
3353.70590779039	7209.5
3355.64243101534	7236.75
3357.57844665135	7280.25
3359.51395491492	7326.25
3361.44895602224	7244
3363.38345018922	7345.25
3365.31743763148	7351.75
3367.25091856432	7414.5
3369.18389320278	7378.25
3371.11636176156	7430.5
3373.0483244551	7482.75
3374.97978149754	7468.25
3376.91073310269	7432.75
3378.84117948409	7484.75
3380.77112085498	7547.75
3382.70055742826	7523.5
3384.62948941659	7550.25
3386.55791703227	7500.5
3388.48584048733	7532.75
3390.41325999348	7595.75
3392.34017576214	7651
3394.2665880044	7652.75
3396.19249693107	7672.75
3398.11790275263	7660.25
3400.04280567926	7684
3401.96720592084	7766.5
3403.89110368692	7670
3405.81449918675	7743.25
3407.73739262928	7764.25
3409.65978422311	7826.75
3411.58167417658	7795.75
3413.50306269768	7856.25
3415.42394999408	7899.75
3417.34433627316	7846.25
3419.26422174195	7845.25
3421.18360660721	7863.25
3423.10249107532	7824.25
3425.02087535239	7822.75
3426.93875964421	7890.75
3428.8561441562	7915.25
3430.77302909353	7914.25
3432.68941466097	7925.5
3434.60530106301	7901.75
3436.52068850383	7964.75
3438.43557718726	7929.25
3440.34996731681	7919.5
3442.26385909565	7900
3444.17725272664	7958.5
3446.09014841231	7958.25
3448.00254635486	7916.5
3449.91444675614	7967
3451.82584981771	7966.25
3453.73675574076	7996.25
3455.64716472616	7939
3457.55707697445	7983
3459.46649268584	7971.5
3461.37541206018	7956
3463.28383529703	8009.75
3465.19176259555	7974.5
3467.09919415464	7958.5
3469.00613017278	7966.75
3470.91257084817	8024.25
3472.81851637863	7962.5
3474.72396696168	7992.75
3476.62892279446	7992.75
3478.53338407379	8013
3480.43735099614	7902.75
3482.34082375764	8019.5
3484.24380255404	8035.75
3486.1462875808	8093
3488.048279033	8048
3489.94977710537	8018.5
3491.85078199231	8072.75
3493.75129388783	8017.75
3495.65131298566	8006
3497.5508394791	8017.5
3499.44987356115	8044.25