201.866871357051	723.5
204.754250281454	720.75
207.640596790938	723
210.525911876299	723.25
213.410196525689	719.75
216.293451724508	710.5
219.175678455485	719.75
222.056877698662	725.25
224.937050431388	721.5
227.816197628363	721.75
230.694320261602	724
233.571419300504	728.25
236.447495711764	725.25
239.322550459507	739.75
242.196584505182	739.5
245.069598807626	742
247.941594323078	749
250.812572005154	748
253.682532804884	740.25
256.551477670699	751.75
259.419407548456	737
262.286323381439	745.25
265.152226110364	739.25
268.017116673389	725.25
270.880996006115	725.5
273.743865041622	729.5
276.605724710436	730.75
279.466575940562	736.5
282.326419657496	731
285.1852567842	728.5
288.043088241157	729.5
290.899914946349	730
293.75573781526	725
296.610557760898	732.5
299.464375693817	728.5
302.317192522078	737
305.169009151297	737.25
308.019826484655	739.25
310.86964542287	737.25
313.718466864233	735
316.566291704614	749.5
319.413120837457	743.25
322.258955153804	742.5
325.103795542291	735
327.947642889128	735.5
330.79049807819	746
333.632361990927	744.25
336.473235506444	738
339.31311950145	740.25
342.152014850322	741.25
344.989922425062	741.25
347.826843095354	738.25
350.662777728528	749.75
353.497727189577	746.5
356.331692341195	741.5
359.164674043732	747.5
361.996673155267	752.25
364.827690531536	761
367.65772702602	750.5
370.486783489887	760.5
373.314860772047	751.25
376.14195971912	748.5
378.968081175466	756.25
381.793225983212	746
384.617394982201	752.25
387.44058901005	773
390.262808902131	774.25
393.08405549161	792
395.904329609395	808
398.723632084213	819.75
401.541963742569	801.5
404.359325408779	796
407.175717904938	783.5
409.991142050982	770.25
412.805598664665	766.75
415.619088561551	757.5
418.43161255505	760.5
421.243171456415	751.25
424.053766074758	764
426.863397217017	774
429.672065688024	765.5
432.479772290455	760.5
435.286517824879	775.5
438.092303089736	765.75
440.897128881359	769
443.70099599399	785.5
446.503905219761	787.5
449.305857348711	778.5
452.106853168796	797.5
454.906893465919	788.75
457.705979023885	801.75
460.504110624439	786
463.3012890473	785.5
466.097515070087	778.5
468.892789468424	762.5
471.687113015869	767
474.48048648395	753
477.272910642198	772
480.064386258109	757.25
482.854914097159	762.5
485.644494922839	763.25
488.433129496636	767.75
491.220818578047	771.5
494.007562924584	768
496.793363291785	775.75
499.578220433217	770
502.362135100473	775.75
505.145108043209	769.25
507.927140009098	769.25
510.708231743909	763
513.488383991433	775.25
516.267597493556	777.5
519.04587299022	765.5
521.82321121946	783.5
524.599612917398	786.75
527.375078818233	788.5
530.149609654287	791.5
532.923206155967	792.25
535.695869051804	778.5
538.467599068448	783.5
541.238396930665	779.25
544.008263361364	773.75
546.777199081578	777.75
549.545204810493	779.75
552.312281265436	763
555.078429161898	775.5
557.843649213533	776
560.607942132156	760.25
563.371308627753	769
566.133749408495	777
568.895265180756	767.75
571.655856649064	771.25
574.415524516189	779
577.174269483075	783.5
579.932092248884	785
582.688993510994	782.75
585.444973965023	777
588.200034304795	775
590.95417522237	774.5
593.70739740807	777.5
596.459701550433	783
599.21108833628	784.75
601.961558450668	787
604.711112576933	773.5
607.459751396673	776
610.207475589748	776.25
612.954285834338	786.25
615.700182806879	778
618.445167182101	781.25
621.189239633055	770.75
623.932400831087	774.25
626.674651445839	781
629.415992145303	781.25
632.156423595745	775
634.895946461813	771
637.634561406449	778.75
640.37226909096	777.5
643.109070174978	774
645.844965316508	775.75
648.579955171888	777.25
651.314040395846	779.75
654.047221641456	767.5
656.779499560176	777.25
659.510874801828	783.5
662.241348014642	775.5
664.97091984524	787.5
667.699590938606	772.75
670.427361938164	770.25
673.15423348573	774.75
675.880206221526	785
678.605280784206	783.5
681.329457810829	778.25
684.05273793692	792.5
686.775121796389	788.75
689.49661002163	788
692.217203243454	783.5
694.936902091144	778.75
697.655707192425	782.5
700.373619173493	773.75
703.09063865901	782.75
705.806766272093	785.5
708.522002634378	776
711.236348365946	777
713.94980408538	780.25
716.662370409762	781.25
719.374047954676	777
722.08483733419	781.25
724.794739160909	775.75
727.503754045949	788.25
730.21188259892	776.25
732.919125427998	774
735.625483139855	783.25
738.330956339723	787.5
741.035545631374	783.5
743.739251617106	788.25
746.44207489779	786.25
749.144016072852	793
751.845075740272	785.25
754.545254496603	792.5
757.244552936976	778.25
759.94297165508	789.75
762.640511243222	795.75
765.337172292249	790.5
768.032955391649	789.75
770.727861129482	796.25
773.421890092413	792.5
776.11504286572	791.5
778.807320033298	792.25
781.49872217765	793
784.18924987991	786.75
786.87890371984	784.5
789.567684275826	790
792.255592124908	793.5
794.94262784276	796.25
797.628792003703	800.25
800.314085180715	838.5
802.998507945427	876
805.682060868145	948
808.364744517821	973.25
811.046559462105	949.25
813.727506267311	888
816.407585498422	841
819.08679771913	835
821.765143491822	812
824.442623377563	817
827.119237936127	814
829.794987726003	818.25
832.469873304377	831.5
835.143895227167	830.75
837.817054048985	836.75
840.489350323205	853.25
843.160784601892	840
845.831357435894	821.25
848.501069374739	809
851.169920966753	817.75
853.837912758987	814.75
856.505045297232	794.75
859.171319126071	807.75
861.836734788823	809.5
864.501292827579	805.25
867.164993783208	795
869.827838195361	804
872.489826602454	790.25
875.150959541701	803.75
877.811237549104	796.75
880.470661159456	794.25
883.129230906357	801.75
885.786947322205	794.5
888.443810938206	800.5
891.099822284385	804.5
893.754981889586	794.75
896.409290281452	806.75
899.062747986485	802.75
901.715355529999	793.5
904.367113436154	802.25
907.01802222793	810.75
909.668082427172	797.5
912.317294554574	790
914.965659129659	802.25
917.613176670835	802.5
920.259847695364	807.75
922.90567271936	801.25
925.550652257825	794.75
928.194786824621	810.5
930.838076932512	801.75
933.480523093109	800.5
936.122125816953	822.5
938.762885613447	821.5
941.402802990899	808.25
944.041878456523	826.75
946.680112516428	816.5
949.31750567563	801.25
951.954058438081	813.5
954.589771306633	813.5
957.224644783048	823
959.858679368044	813.25
962.491875561238	820.5
965.12423386121	834.75
967.75575476545	846
970.386438770423	874.5
973.016286371501	892.25
975.645298063046	872.25
978.273474338355	844.25
980.900815689674	834.25
983.527322608243	802.5
986.152995584245	810.5
988.777835106834	814.5
991.401841664148	821.25
994.025015743307	817.5
996.647357830407	815.75
999.268868410534	814.5
1001.88954796777	822
1004.50939698518	811.75
1007.12841594484	816.25
1009.74660532783	813.5
1012.36396561423	818.25
1014.98049728314	811.25
1017.59620081267	807.5
1020.21107667995	806
1022.82512536112	821.5
1025.43834733138	828.25
1028.05074306493	818.75
1030.66231303501	823
1033.27305771392	833.5
1035.88297757299	837
1038.49207308257	828.75
1041.10034471211	836
1043.70779293008	828.5
1046.31441820402	818
1048.92022100052	832.25
1051.52520178525	821.75
1054.12936102295	826.5
1056.73269917742	824
1059.33521671154	827
1061.93691408729	823.25
1064.53779176571	818
1067.13785020694	816.5
1069.73708987022	822.5
1072.33551121386	815.75
1074.93311469528	821.5
1077.52990077103	820.25
1080.12586989674	815.75
1082.72102252714	827.25
1085.31535911611	812.25
1087.90888011663	826.5
1090.50158598078	822.25
1093.09347715979	815
1095.68455410403	823.25
1098.27481726296	831
1100.86426708523	810.75
1103.45290401857	831.25
1106.04072850991	832.5
1108.6277410053	825.25
1111.21394194993	820.5
1113.79933178816	817.75
1116.3839109635	833.5
1118.96767991862	822.5
1121.55063909539	825.5
1124.13278893477	830.75
1126.71412987696	831
1129.29466236132	827.5
1131.87438682637	836.25
1134.45330370982	822
1137.03141344858	840.25
1139.60871647872	832.5
1142.18521323554	838.5
1144.7609041535	854.75
1147.33578966629	858.5
1149.90987020676	878.25
1152.48314620702	875.5
1155.05561809835	890
1157.62728631125	887.5
1160.19815127545	887.25
1162.76821341988	909.5
1165.33747317271	932
1167.90593096133	938
1170.47358721235	901.5
1173.04044235163	887.5
1175.60649680425	866.75
1178.17175099454	849.5
1180.73620534607	844.5
1183.29986028165	823.75
1185.86271622336	838
1188.42477359249	835.5
1190.98603280964	829.5
1193.54649429462	834
1196.10615846653	829
1198.66502574372	822.5
1201.22309654385	828
1203.78037128378	827.75
1206.33685037971	835.5
1208.89253424709	833.75
1211.44742330063	841.25
1214.00151795438	846.5
1216.55481862163	857.75
1219.10732571497	862.75
1221.65903964631	855.25
1224.20996082683	834.5
1226.760089667	839
1229.30942657664	835
1231.85797196483	849.25
1234.40572623998	831
1236.95268980981	834.25
1239.49886308136	837
1242.04424646098	839.5
1244.58884035435	844.75
1247.13264516647	847.5
1249.67566130166	851.75
1252.21788916358	849.5
1254.75932915524	860.75
1257.29998167896	864.75
1259.83984713639	848
1262.37892592857	848
1264.91721845586	839.25
1267.45472511795	845.25
1269.9914463139	833
1272.52738244213	843.75
1275.0625339004	833.5
1277.59690108587	842.25
1280.130484395	842.25
1282.66328422367	845.5
1285.19530096712	843
1287.72653501993	850.75
1290.25698677608	848.25
1292.78665662894	859
1295.31554497125	858.5
1297.8436521951	867
1300.37097869203	870.5
1302.89752485292	864.5
1305.42329106805	867.5
1307.94827772713	871.5
1310.47248521921	868
1312.99591393279	861
1315.51856425575	856.5
1318.04043657536	865
1320.56153127836	875.25
1323.08184875083	899.5
1325.6013893783	918.25
1328.12015354572	935.5
1330.63814163744	938
1333.15535403727	918
1335.67179112839	892.25
1338.18745329347	896.25
1340.70234091454	878.5
1343.21645437314	877.75
1345.72979405019	875.75
1348.24236032607	867
1350.75415358059	890.75
1353.26517419303	887.75
1355.7754225421	908.75
1358.28489900594	892.5
1360.79360396218	909.5
1363.30153778787	901.25
1365.80870085955	896.5
1368.31509355319	883.25
1370.82071624424	875.25
1373.32556930762	879.25
1375.8296531177	877.75
1378.33296804832	868.25
1380.83551447282	877.25
1383.33729276399	858.5
1385.83830329408	866.75
1388.33854643489	859.25
1390.83802255762	846.25
1393.33673203301	850.5
1395.83467523128	858.5
1398.33185252211	849.5
1400.82826427471	867.5
1403.32391085777	848
1405.81879263947	854.5
1408.31290998752	848.5
1410.80626326908	847.75
1413.29885285087	856.75
1415.79067909909	849.5
1418.28174237944	849.75
1420.77204305717	857
1423.26158149702	853.75
1425.75035806323	874.5
1428.2383731196	871.5
1430.72562702942	883.75
1433.21212015554	903.75
1435.69785286028	916
1438.18282550555	904.75
1440.66703845275	908
1443.15049206284	904.5
1445.6331866963	890.5
1448.11512271316	906.5
1450.59630047298	935.25
1453.07672033486	944.5
1455.55638265748	989.75
1458.03528779902	990.25
1460.51343611725	996.75
1462.99082796946	963.5
1465.46746371252	940.25
1467.94334370285	916.25
1470.41846829642	902
1472.89283784878	900
1475.36645271503	886.75
1477.83931324983	890
1480.31141980743	887.25
1482.78277274164	876.75
1485.25337240583	873
1487.72321915297	868
1490.19231333557	870
1492.66065530578	871.75
1495.12824541525	873.75
1497.5950840153	872.75
1500.06117145678	864
1502.52650809014	873.5
1504.99109426543	856.75
1507.45493033227	872.5
1509.91801663992	865.25
1512.38035353717	863.75
1514.84194137248	884.25
1517.30278049386	869.25
1519.76287124894	884.25
1522.22221398497	878.75
1524.68080904876	869.75
1527.13865678681	860.75
1529.59575754514	875
1532.05211166945	873.5
1534.50771950503	876
1536.96258139678	876
1539.41669768924	874.25
1541.87006872656	877.25
1544.32269485252	876.75
1546.77457641051	877
1549.22571374357	880.75
1551.67610719434	888.5
1554.12575710513	884.75
1556.57466381785	886.25
1559.02282767408	882
1561.47024901499	889.5
1563.91692818144	896.5
1566.3628655139	882.25
1568.80806135249	887.25
1571.252516037	895
1573.6962299068	885.25
1576.13920330099	894.5
1578.58143655828	896.5
1581.02293001704	886
1583.46368401528	903.5
1585.90369889071	888.5
1588.34297498065	901
1590.7815126221	900
1593.21931215173	902.75
1595.65637390588	897.25
1598.09269822053	887
1600.52828543135	901.75
1602.96313587367	896
1605.3972498825	897.25
1607.83062779252	893.75
1610.26326993808	891.25
1612.69517665322	885.25
1615.12634827165	893
1617.55678512676	913.75
1619.98648755163	901
1622.41545587902	883.75
1624.84369044138	896
1627.27119157085	910.5
1629.69795959924	895.25
1632.12399485808	903
1634.54929767859	893.5
1636.97386839165	892.5
1639.39770732789	882.5
1641.8208148176	902.5
1644.24319119078	905.25
1646.66483677715	898.5
1649.0857519061	891
1651.50593690677	897.5
1653.92539210795	910
1656.3441178382	889.75
1658.76211442575	908.25
1661.17938219855	900.5
1663.59592148428	920.75
1666.01173261032	903.25
1668.42681590377	912
1670.84117169145	915.5
1673.25480029991	908.75
1675.66770205541	914
1678.07987728393	902.75
1680.49132631119	916.25
1682.90204946263	898.25
1685.31204706342	911.75
1687.72131943846	917.75
1690.1298669124	910
1692.53768980957	925
1694.94478845411	912.25
1697.35116316982	913.25
1699.75681428031	921.25
1702.16174210887	916
1704.56594697858	915.5
1706.96942921222	920.25
1709.37218913235	910.25
1711.77422706125	920.5
1714.17554332098	922.75
1716.5761382333	922
1718.97601211977	926.25
1721.37516530169	922.75
1723.77359810006	902.75
1726.17131083572	912
1728.56830382922	910.75
1730.96457740087	915.25
1733.36013187075	908
1735.75496755868	918.5
1738.14908478428	918
1740.54248386689	917
1742.93516512565	912.5
1745.32712887946	910
1747.71837544697	917.75
1750.10890514662	919.25
1752.49871829661	913.25
1754.88781521492	925.75
1757.27619621929	921.25
1759.66386162726	916
1762.05081175612	914.5
1764.43704692297	929.25
1766.82256744465	913
1769.20737363782	923.5
1771.59146581887	917.25
1773.97484430405	916.5
1776.35750940932	930
1778.73946145048	917.25
1781.12070074309	918
1783.50122760249	927.75
1785.88104234385	917.75
1788.26014528209	909.25
1790.63853673196	924.25
1793.01621700796	919.75
1795.39318642443	923.5
1797.76944529549	930.5
1800.14499393503	926.25
1802.51983265681	918.25
1804.8939617743	919
1807.26738160085	932.5
1809.64009244957	928.75
1812.01209463339	937.5
1814.38338846504	931
1816.75397425706	938.75
1819.12385232181	930
1821.49302297142	941
1823.86148651789	924.5
1826.22924327299	931.75
1828.59629354831	936.25
1830.96263765526	923.5
1833.32827590507	932.75
1835.69320860877	918.5
1838.05743607724	933
1840.42095862113	944
1842.78377655097	943.25
1845.14589017707	950.75
1847.50729980956	933.25
1849.86800575843	933.75
1852.22800833346	920
1854.58730784427	926.25
1856.94590460032	929.25
1859.30379891087	930.75
1861.66099108503	930.25
1864.01748143175	949.25
1866.37327025978	938.75
1868.72835787773	933
1871.08274459403	937.75
1873.43643071697	927.25
1875.78941655464	949
1878.14170241498	933.5
1880.4932886058	942.25
1882.84417543469	948
1885.19436320915	939.75
1887.54385223646	943.25
1889.89264282378	951.25
1892.24073527809	945.5
1894.58812990625	959.75
1896.93482701493	959.75
1899.28082691067	953.75
1901.62612989984	961.75
1903.97073628868	952.25
1906.31464638326	961
1908.6578604895	962
1911.00037891321	967.5
1913.34220196	952.5
1915.68332993537	948.5
1918.02376314468	958.5
1920.36350189311	959.5
1922.70254648573	964.5
1925.04089722744	960.5
1927.37855442303	956.5
1929.71551837715	960.75
1932.05178939426	959.75
1934.38736777876	965
1936.72225383484	957.5
1939.0564478666	964.5
1941.38995017799	965.5
1943.72276107283	959.75
1946.05488085479	968.5
1948.38630982744	974
1950.71704829419	962.5
1953.04709655832	965.5
1955.376454923	969
1957.70512369126	970.25
1960.03310316599	956.25
1962.36039364999	960
1964.68699544589	968
1967.01290885622	968.75
1969.33813418338	952.75
1971.66267172965	963.5
1973.98652179718	963.75
1976.309684688	964
1978.63216070402	965.25
1980.95395014705	980.75
1983.27505331873	966.5
1985.59547052063	964
1987.9152020542	971.75
1990.23424822074	973.75
1992.55260932146	969.25
1994.87028565746	981.25
1997.18727752968	967.25
1999.503585239	979.5
2001.81920908618	992.25
2004.13414937184	977.75
2006.44840639651	979.5
2008.7619804606	976.75
2011.07487186442	970
2013.38708090815	989.75
2015.6986078919	984.75
2018.00945311564	989.75
2020.31961687923	992.5
2022.62909948246	990.25
2024.93790122498	985.75
2027.24602240636	993.5
2029.55346332604	984.5
2031.86022428337	1008
2034.16630557761	993.75
2036.47170750791	1009.25
2038.77643037331	991.25
2041.08047447275	1002
2043.38384010509	985.25
2045.68652756907	985.75
2047.98853716335	1008.25
2050.28986918648	994.5
2052.59052393692	996.5
2054.89050171302	1019
2057.18980281306	1001.25
2059.4884275352	1012.25
2061.78637617753	1004.25
2064.08364903802	999.5
2066.38024641457	993.5
2068.67616860497	1002.5
2070.97141590694	997
2073.26598861809	1005.25
2075.55988703595	1000.75
2077.85311145796	1000.5
2080.14566218145	1000
2082.43753950371	1005.25
2084.72874372188	1015.25
2087.01927513307	997.5
2089.30913403428	1009.5
2091.59832072241	1002.5
2093.88683549429	1012.75
2096.17467864666	999.25
2098.46185047619	1008
2100.74835127944	1006.75
2103.03418135292	1005.5
2105.31934099303	1009.75
2107.6038304961	1009.75
2109.88765015838	1013.5
2112.17080027602	1006.75
2114.45328114513	1020
2116.7350930617	1015
2119.01623632165	1006.25
2121.29671122085	1014.5
2123.57651805505	1009.75
2125.85565711996	1013.25
2128.13412871117	1009.75
2130.41193312424	1033
2132.68907065462	1026.5
2134.96554159771	1023.5
2137.24134624881	1015
2139.51648490317	1022.75
2141.79095785593	1033
2144.0647654022	1030
2146.33790783698	1013.5
2148.61038545524	1026.5
2150.88219855182	1018
2153.15334742154	1032.75
2155.42383235911	1025.5
2157.6936536592	1029.75
2159.9628116164	1031.5
2162.23130652522	1043.25
2164.49913868011	1039.5
2166.76630837544	1018
2169.03281590552	1029.75
2171.2986615646	1036
2173.56384564685	1042.5
2175.82836844637	1043.5
2178.0922302572	1047
2180.35543137332	1044.5
2182.61797208862	1028.75
2184.87985269695	1032.25
2187.14107349208	1034.75
2189.40163476773	1047.5
2191.66153681753	1034.5
2193.92077993507	1023.75
2196.17936441386	1042.75
2198.43729054735	1042.5
2200.69455862894	1043
2202.95116895194	1035.75
2205.20712180962	1048.5
2207.46241749519	1036.25
2209.71705630179	1050.5
2211.97103852248	1031.5
2214.2243644503	1043.25
2216.47703437819	1037.5
2218.72904859905	1055.25
2220.98040740571	1042.75
2223.23111109095	1042.5
2225.4811599475	1044.25
2227.73055426799	1047
2229.97929434504	1049.25
2232.22738047118	1047.5
2234.47481293889	1035
2236.72159204058	1047.75
2238.96771806864	1050.5
2241.21319131536	1043
2243.458012073	1031.25
2245.70218063374	1051.25
2247.94569728973	1054.5
2250.18856233304	1054.25
2252.4307760557	1048.75
2254.67233874967	1053.25
2256.91325070687	1061.75
2259.15351221915	1058.5
2261.39312357831	1047.5
2263.63208507611	1042
2265.87039700422	1045.5
2268.1080596543	1057
2270.34507331792	1064.25
2272.5814382866	1059.75
2274.81715485183	1057.5
2277.05222330502	1059
2279.28664393755	1058
2281.52041704072	1058.25
2283.75354290581	1057.5
2285.98602182401	1053.75
2288.21785408648	1058.5
2290.44903998434	1044.5
2292.67957980862	1058.5
2294.90947385033	1051.75
2297.1387224004	1054.75
2299.36732574975	1068.5
2301.59528418921	1067
2303.82259800958	1055.75
2306.04926750158	1057.75
2308.27529295593	1056
2310.50067466325	1069
2312.72541291412	1058
2314.9495079991	1064
2317.17296020866	1065
2319.39576983323	1059
2321.61793716322	1069.25
2323.83946248894	1069.5
2326.06034610069	1050
2328.28058828871	1055.5
2330.50018934317	1063
2332.7191495542	1061
2334.93746921192	1056.25
2337.15514860633	1066.5
2339.37218802743	1066.75
2341.58858776516	1078.75
2343.80434810941	1073
2346.01946935001	1068.75
2348.23395177675	1060.75
2350.44779567939	1053.75
2352.66100134759	1070.25
2354.87356907101	1064.25
2357.08549913925	1069.75
2359.29679184185	1070.25
2361.50744746829	1074
2363.71746630804	1071
2365.92684865048	1080.25
2368.13559478499	1055.25
2370.34370500083	1073.25
2372.55117958727	1063.5
2374.75801883352	1069.75
2376.96422302874	1068.25
2379.16979246202	1075
2381.37472742243	1062.25
2383.57902819898	1055
2385.78269508063	1057
2387.98572835629	1053.75
2390.18812831482	1067.75
2392.38989524505	1071.25
2394.59102943573	1064.25
2396.79153117559	1060.5
2398.9914007533	1065
2401.19063845748	1045.75
2403.38924457672	1069
2405.58721939951	1070
2407.78456321435	1054.5
2409.98127630966	1068.5
2412.17735897382	1058.5
2414.37281149517	1055.5
2416.56763416198	1064
2418.76182726249	1058.75
2420.95539108487	1075
2423.14832591726	1045.25
2425.34063204776	1051.25
2427.53230976439	1061.25
2429.72335935513	1064
2431.91378110795	1063.75
2434.10357531071	1058.75
2436.29274225125	1065.25
2438.48128221739	1055.25
2440.66919549683	1058
2442.8564823773	1056.5
2445.04314314641	1045
2447.22917809176	1062
2449.4145875009	1067.5
2451.59937166131	1073.25
2453.78353086044	1066
2455.96706538568	1060.5
2458.14997552436	1067.25
2460.33226156379	1054.5
2462.51392379119	1047.25
2464.69496249376	1049.75
2466.87537795862	1061.25
2469.05517047288	1060.5
2471.23434032357	1056
2473.41288779767	1058.5
2475.59081318211	1064.25
2477.76811676378	1052
2479.9447988295	1042
2482.12085966605	1049.25
2484.29629956016	1050.5
2486.4711187985	1060.25
2488.64531766769	1061.75
2490.8188964543	1068
2492.99185544484	1057
2495.16419492579	1058
2497.33591518353	1063.5
2499.50701650444	1068.25
2501.67749917482	1051.75
2503.84736348091	1055.5
2506.01660970891	1066.75
2508.18523814496	1060.75
2510.35324907514	1049
2512.52064278551	1057
2514.68741956201	1061.75
2516.85357969058	1075
2519.01912345709	1065.25
2521.18405114735	1055
2523.34836304711	1037.75
2525.51205944208	1060.75
2527.6751406179	1065
2529.83760686016	1058.25
2531.99945845439	1063.5
2534.16069568606	1070
2536.3213188406	1078.5
2538.48132820336	1072.75
2540.64072405965	1077.75
2542.79950669471	1062.25
2544.95767639373	1069.25
2547.11523344184	1058.25
2549.27217812411	1053.75
2551.42851072555	1070
2553.58423153111	1060.5
2555.73934082569	1060.75
2557.89383889412	1078.25
2560.04772602118	1067.75
2562.20100249158	1063.5
2564.35366858996	1057
2566.50572460093	1058.5
2568.65717080901	1059
2570.80800749867	1058.25
2572.95823495433	1055.5
2575.10785346031	1048.5
2577.25686330093	1050.25
2579.40526476038	1056.25
2581.55305812282	1054.25
2583.70024367237	1061.25
2585.84682169303	1047.75
2587.99279246879	1046
2590.13815628354	1057
2592.28291342112	1050
2594.42706416531	1054.75
2596.5706087998	1047
2598.71354760826	1059.5
2600.85588087425	1060
2602.99760888127	1043.5
2605.13873191278	1061.5
2607.27925025214	1050.25
2609.41916418269	1050.5
2611.55847398764	1061.5
2613.69717995017	1042.25
2615.83528235339	1068.25
2617.97278148034	1050.5
2620.10967761398	1057.75
2622.2459710372	1055.5
2624.38166203284	1058.5
2626.51675088365	1053.25
2628.65123787231	1046.75
2630.78512328145	1054.75
2632.9184073936	1050.5
2635.05109049124	1059.25
2637.18317285676	1058.5
2639.31465477248	1056.75
2641.44553652067	1067
2643.5758183835	1060
2645.70550064309	1064.5
2647.83458358144	1048.75
2649.96306748053	1073.25
2652.09095262223	1071.25
2654.21823928836	1069.5
2656.34492776063	1072.5
2658.47101832071	1061.75
2660.59651125015	1054.75
2662.72140683047	1053
2664.84570534309	1068.5
2666.96940706934	1068.25
2669.0925122905	1058.75
2671.21502128773	1079.25
2673.33693434215	1072.5
2675.45825173479	1076
2677.57897374658	1067
2679.69910065839	1068.5
2681.818632751	1061.5
2683.93757030511	1072.5
2686.05591360133	1066
2688.17366292021	1064.75
2690.29081854218	1059.75
2692.40738074762	1062.5
2694.52334981681	1075.5
2696.63872602995	1060.5
2698.75350966713	1077.75
2700.86770100841	1078.25
2702.98130033371	1081
2705.09430792289	1078
2707.20672405571	1077.25
2709.31854901185	1095
2711.42978307091	1090.5
2713.54042651238	1082.25
2715.65047961567	1103
2717.7599426601	1117.75
2719.86881592491	1109
2721.97709968924	1114.5
2724.08479423213	1123.25
2726.19189983255	1107
2728.29841676934	1101
2730.4043453213	1089.25
2732.5096857671	1084
2734.61443838532	1094.75
2736.71860345444	1085
2738.82218125286	1088.25
2740.92517205889	1090
2743.02757615072	1084.5
2745.12939380646	1075.5
2747.23062530411	1071.5
2749.33127092159	1089.75
2751.4313309367	1074.75
2753.53080562716	1083.5
2755.62969527058	1082
2757.72800014448	1070.75
2759.82572052625	1074.5
2761.92285669323	1079
2764.0194089226	1071.5
2766.11537749147	1074.75
2768.21076267686	1068.5
2770.30556475566	1084.25
2772.39978400465	1073.25
2774.49342070054	1067.25
2776.58647511991	1078
2778.67894753923	1079.25
2780.77083823487	1068.5
2782.8621474831	1062.75
2784.95287556007	1070.5
2787.04302274184	1064.25
2789.13258930433	1071
2791.22157552338	1073
2793.30998167471	1069
2795.39780803392	1077
2797.4850548765	1081.25
2799.57172247786	1070.25
2801.65781111324	1062.25
2803.74332105781	1068
2805.82825258661	1096.5
2807.91260597457	1081.25
2809.9963814965	1087.25
2812.07957942711	1076.75
2814.16220004096	1076.25
2816.24424361252	1090
2818.32571041614	1100.5
2820.40660072604	1107
2822.48691481631	1119.75
2824.56665296098	1121.5
2826.64581543388	1129.5
2828.72440250876	1163
2830.80241445925	1189.75
2832.87985155885	1252.25
2834.95671408093	1349
2837.03300229875	1390
2839.10871648544	1406.75
2841.18385691399	1411
2843.25842385729	1353
2845.33241758808	1306.75
2847.40583837898	1258.75
2849.4786865025	1239.75
2851.550962231	1231.75
2853.6226658367	1218.75
2855.69379759173	1210.5
2857.76435776806	1250.25
2859.83434663753	1291.75
2861.90376447184	1403
2863.97261154259	1499
2866.0408881212	1568
2868.10859447901	1595.25
2870.17573088717	1588
2872.24229761673	1599
2874.30829493859	1637.75
2876.37372312352	1677.5
2878.43858244215	1740
2880.50287316496	1772.75
2882.56659556231	1797
2884.62974990439	1775.25
2886.69233646129	1724.75
2888.75435550293	1686.25
2890.81580729909	1645.25
2892.87669211941	1592
2894.93701023339	1574.25
2896.99676191039	1540.75
2899.05594741961	1587
2901.1145670301	1578.5
2903.1726210108	1579
2905.23010963045	1632.5
2907.28703315768	1594
2909.34339186096	1609.75
2911.39918600861	1548.25
2913.45441586879	1504.5
2915.50908170952	1495.5
2917.56318379867	1508.5
2919.61672240395	1501.75
2921.66969779291	1509
2923.72211023295	1497.75
2925.77395999134	1485.25
2927.82524733515	1477.25
2929.87597253132	1422.75
2931.92613584663	1380.75
2933.97573754769	1348.25
2936.02477790097	1307
2938.07325717276	1280.75
2940.1211756292	1272
2942.16853353626	1277.25
2944.21533115976	1313.25
2946.26156876536	1370.25
2948.30724661853	1446.75
2950.3523649846	1463.25
2952.39692412872	1548
2954.44092431587	1567.5
2956.48436581089	1621
2958.52724887843	1700.25
2960.56957378296	1752
2962.6113407888	1723.75
2964.65255016011	1657.25
2966.69320216083	1566.75
2968.73329705479	1478.25
2970.77283510559	1387.5
2972.81181657671	1340.25
2974.8502417314	1268.25
2976.88811083279	1241
2978.92542414378	1218.75
2980.96218192713	1195.25
2982.99838444541	1162.5
2985.034031961	1169.25
2987.06912473612	1150.5
2989.1036630328	1131.5
2991.13764711288	1135
2993.17107723804	1117.5
2995.20395366974	1130.5
2997.23627666931	1120.25
2999.26804649782	1101.25
3001.29926341624	1108.5
3003.32992768528	1122.25
3005.3600395655	1114.25
3007.38959931726	1106.25
3009.41860720076	1115.75
3011.44706347595	1128
3013.47496840263	1107
3015.50232224041	1125.5
3017.5291252487	1105.5
3019.5553776867	1115.25
3021.58107981344	1122.25
3023.60623188773	1114.25
3025.63083416822	1120.5
3027.65488691331	1115
3029.67839038125	1121.25
3031.70134483007	1115
3033.72375051759	1121.75
3035.74560770144	1101.5
3037.76691663907	1116.25
3039.78767758768	1119.75
3041.80789080431	1115.25
3043.82755654577	1102.25
3045.84667506867	1140.5
3047.8652466294	1109
3049.88327148418	1132
3051.90074988899	1108
3053.91768209961	1107.5
3055.9340683716	1121
3057.94990896033	1112.75
3059.96520412095	1111
3061.97995410838	1119
3063.99415917734	1114.25
3066.00781958234	1110.75
3068.02093557766	1111.5
3070.03350741738	1099.25
3072.04553535535	1107.75
3074.05701964521	1104.5
3076.06796054036	1106
3078.078358294	1124.5
3080.08821315912	1099.25
3082.09752538846	1118.25
3084.10629523454	1110
3086.11452294967	1114.75
3088.12220878592	1117.25
3090.12935299515	1120.5
3092.13595582898	1119
3094.1420175388	1110.25
3096.14753837579	1112
3098.15251859088	1110.5
3100.15695843477	1108.5
3102.16085815793	1100
3104.16421801061	1120
3106.16703824282	1104.25
3108.16931910432	1118
3110.17106084464	1117.25
3112.17226371308	1109
3114.17292795872	1111.5
3116.17305383034	1128.75
3118.17264157657	1107.25
3120.17169144571	1119.25
3122.17020368587	1120.5
3124.16817854492	1118.75
3126.16561627044	1117.75
3128.16251710982	1120.25
3130.15888131017	1118.25
3132.15470911837	1119.5
3134.15000078104	1132.75
3136.14475654455	1115
3138.13897665502	1121.5
3140.13266135835	1117.5
3142.12581090014	1140.5
3144.11842552577	1124.5
3146.11050548036	1148.5
3148.10205100875	1138.5
3150.09306235557	1127.5
3152.08353976515	1117
3154.07348348158	1119
3156.06289374869	1131.5
3158.05177081006	1127
3160.04011490899	1132
3162.02792628852	1137.5
3164.01520519145	1120
3166.00195186029	1119
3167.98816653728	1129.75
3169.97384946442	1133.5
3171.95900088344	1121.25
3173.94362103577	1128.25
3175.92771016259	1121.75
3177.91126850484	1136.75
3179.89429630312	1142.75
3181.87679379782	1139.25
3183.85876122903	1134.5
3185.84019883657	1137.25
3187.82110685997	1134
3189.80148553851	1127.5
3191.78133511116	1137
3193.76065581664	1132.5
3195.73944789337	1134.5
3197.7177115795	1131.75
3199.6954471129	1144.75
3201.67265473114	1113.75
3203.64933467153	1129.75
3205.62548717107	1129.75
3207.60111246648	1144.75
3209.57621079421	1147
3211.55078239041	1138.75
3213.52482749093	1134.25
3215.49834633133	1151.5
3217.4713391469	1143.5
3219.44380617262	1135.5
3221.41574764317	1132.75
3223.38716379296	1139.25
3225.35805485607	1125.25
3227.32842106631	1130.5
3229.29826265718	1144.5
3231.26757986187	1147.75
3233.2363729133	1142.75
3235.20464204405	1141
3237.17238748643	1148.5
3239.13960947243	1139
3241.10630823374	1148.75
3243.07248400174	1140.25
3245.03813700748	1162
3247.00326748177	1130
3248.96787565503	1134
3250.93196175742	1152.25
3252.89552601877	1146.5
3254.8585686686	1146.75
3256.82108993612	1149.25
3258.78309005022	1158.75
3260.74456923948	1134
3262.70552773215	1156
3264.66596575617	1150
3266.62588353916	1158.75
3268.58528130843	1157.25
3270.54415929094	1150.25
3272.50251771336	1134
3274.46035680201	1146.5
3276.4176767829	1156
3278.37447788171	1154.75
3280.33076032379	1150.5
3282.28652433416	1145.5
3284.24177013751	1163.75
3286.1964979582	1166.5
3288.15070802027	1154
3290.10440054741	1151.75
3292.05757576298	1145.75
3294.01023389001	1158
3295.96237515119	1167.5
3297.91399976887	1142.75
3299.86510796506	1161.25
3301.81569996142	1150
3303.76577597932	1155
3305.7153362397	1143.25
3307.66438096324	1146.75
3309.61291037024	1155.5
3311.56092468064	1137.25
3313.50842411404	1132.5
3315.45540888971	1162.25
3317.40187922656	1140
3319.34783534315	1146.75
3321.29327745768	1140.25
3323.23820578801	1130.75
3325.18262055164	1138.5
3327.1265219657	1137
3329.06991024699	1152.75
3331.01278561194	1159.5
3332.95514827662	1133
3334.89699845674	1140.75
3336.83833636766	1146.75
3338.77916222434	1143.5
3340.71947624143	1144
3342.65927863317	1150.75
3344.59856961346	1142.75
3346.53734939584	1147.75
3348.47561819344	1144.75
3350.41337621906	1161
3352.35062368513	1152
3354.28736080368	1144.75
3356.22358778637	1129.25
3358.15930484452	1142.25
3360.09451218904	1156
3362.02921003047	1144.75
3363.96339857898	1145.75
3365.89707804436	1151
3367.83024863602	1150
3369.76291056299	1150.75
3371.69506403389	1147.5
3373.62670925699	1157.75
3375.55784644016	1154
3377.4884757909	1136.25
3379.41859751629	1153.25
3381.34821182305	1162.75
3383.27731891749	1155.75
3385.20591900555	1159.5
3387.13401229276	1150.5
3389.06159898426	1154
3390.9886792848	1170.75
3392.91525339872	1157
3394.84132152998	1160.75
3396.76688388213	1170.75
3398.69194065833	1147.5
3400.61649206133	1152
3402.54053829348	1162.5
3404.46407955672	1154
3406.3871160526	1156.75
3408.30964798225	1161.5
3410.23167554639	1139.25
3412.15319894535	1162.75
3414.07421837904	1157.25
3415.99473404695	1158.5
3417.91474614817	1167.5
3419.83425488136	1159.75
3421.75326044479	1157
3423.67176303631	1172
3425.58976285332	1174
3427.50726009282	1168.25
3429.42425495143	1161
3431.34074762528	1168.25
3433.25673831012	1156.75
3435.17222720127	1163
3437.08721449362	1155.25
3439.00170038164	1158
3440.91568505936	1154
3442.82916872039	1155
3444.74215155791	1158.5
3446.65463376468	1158
3448.566615533	1165.5
3450.47809705476	1167.5
3452.3890785214	1147.25
3454.29956012393	1167.5
3456.20954205293	1160.25
3458.11902449853	1155
3460.02800765041	1154.25
3461.93649169784	1188.25
3463.84447682962	1156
3465.75196323412	1158
3467.65895109925	1146.75
3469.56544061249	1148.75
3471.47143196086	1160
3473.37692533093	1143.5
3475.28192090884	1151
3477.18641888026	1163
3479.09041943039	1158.5
3480.99392274402	1145
3482.89692900545	1137.75
3484.79943839853	1168
3486.70145110666	1147
3488.60296731277	1149.25
3490.50398719933	1163
3492.40451094836	1161.25
3494.30453874141	1144.75
3496.20407075956	1163
3498.10310718342	1157
3500.00164819315	1143.75