201.866871357051	760
204.754250281454	773.75
207.640596790938	765.25
210.525911876299	765.25
213.410196525689	758.25
216.293451724508	772.5
219.175678455485	764.75
222.056877698662	773.25
224.937050431388	764
227.816197628363	767.5
230.694320261602	760
233.571419300504	772
236.447495711764	768.5
239.322550459507	765.75
242.196584505182	764.75
245.069598807626	769.25
247.941594323078	781
250.812572005154	770.5
253.682532804884	770
256.551477670699	777
259.419407548456	784.25
262.286323381439	780.75
265.152226110364	779.75
268.017116673389	778.5
270.880996006115	800.5
273.743865041622	782.25
276.605724710436	774.5
279.466575940562	788.5
282.326419657496	793
285.1852567842	782
288.043088241157	784
290.899914946349	769.25
293.75573781526	789
296.610557760898	776.5
299.464375693817	789.5
302.317192522078	795.75
305.169009151297	784
308.019826484655	778.75
310.86964542287	779.75
313.718466864233	774
316.566291704614	780.75
319.413120837457	771.25
322.258955153804	769.75
325.103795542291	776.25
327.947642889128	772.75
330.79049807819	780.25
333.632361990927	779.75
336.473235506444	773.75
339.31311950145	784.5
342.152014850322	780.5
344.989922425062	766.5
347.826843095354	780.25
350.662777728528	786.25
353.497727189577	776.5
356.331692341195	791
359.164674043732	777
361.996673155267	779.25
364.827690531536	788
367.65772702602	789.5
370.486783489887	787.25
373.314860772047	792.75
376.14195971912	781.5
378.968081175466	785.25
381.793225983212	787
384.617394982201	778
387.44058901005	791.25
390.262808902131	784.25
393.08405549161	781.75
395.904329609395	791
398.723632084213	797.75
401.541963742569	799.5
404.359325408779	796.75
407.175717904938	795.75
409.991142050982	795.75
412.805598664665	785.75
415.619088561551	799.75
418.43161255505	799.25
421.243171456415	798.25
424.053766074758	784.75
426.863397217017	789.5
429.672065688024	790
432.479772290455	803
435.286517824879	798.5
438.092303089736	802.25
440.897128881359	794.5
443.70099599399	799.5
446.503905219761	792.75
449.305857348711	805.25
452.106853168796	805.5
454.906893465919	796.25
457.705979023885	810
460.504110624439	808.75
463.3012890473	796.5
466.097515070087	794.25
468.892789468424	801
471.687113015869	796.25
474.48048648395	809.5
477.272910642198	797.75
480.064386258109	798.75
482.854914097159	797.5
485.644494922839	802.75
488.433129496636	810.5
491.220818578047	806
494.007562924584	812.25
496.793363291785	811.25
499.578220433217	803.25
502.362135100473	811
505.145108043209	810
507.927140009098	809.25
510.708231743909	812.25
513.488383991433	813
516.267597493556	819.25
519.04587299022	816
521.82321121946	812.5
524.599612917398	813.5
527.375078818233	816.5
530.149609654287	809
532.923206155967	807.5
535.695869051804	811.25
538.467599068448	810.5
541.238396930665	809.75
544.008263361364	811.25
546.777199081578	813.5
549.545204810493	800.25
552.312281265436	805.75
555.078429161898	816.5
557.843649213533	812
560.607942132156	817
563.371308627753	805.75
566.133749408495	806.75
568.895265180756	823.25
571.655856649064	816.75
574.415524516189	820.25
577.174269483075	828.25
579.932092248884	830.75
582.688993510994	822
585.444973965023	828.75
588.200034304795	824.75
590.95417522237	815.25
593.70739740807	825.5
596.459701550433	822.5
599.21108833628	821.25
601.961558450668	827.25
604.711112576933	831.25
607.459751396673	827.25
610.207475589748	816.5
612.954285834338	831.5
615.700182806879	814.25
618.445167182101	826.75
621.189239633055	832.75
623.932400831087	848.5
626.674651445839	885.5
629.415992145303	932.75
632.156423595745	932.75
634.895946461813	905
637.634561406449	868.25
640.37226909096	850.75
643.109070174978	829
645.844965316508	825.5
648.579955171888	827.5
651.314040395846	826.25
654.047221641456	827.25
656.779499560176	819.25
659.510874801828	820.25
662.241348014642	833.75
664.97091984524	815.75
667.699590938606	819.25
670.427361938164	832.75
673.15423348573	825.25
675.880206221526	831
678.605280784206	830.5
681.329457810829	829.5
684.05273793692	823.75
686.775121796389	827
689.49661002163	825.25
692.217203243454	831
694.936902091144	846.5
697.655707192425	851.25
700.373619173493	852.75
703.09063865901	855.75
705.806766272093	854
708.522002634378	847
711.236348365946	832.25
713.94980408538	835
716.662370409762	829.5
719.374047954676	831.75
722.08483733419	839.5
724.794739160909	832.25
727.503754045949	836.25
730.21188259892	824.25
732.919125427998	843.25
735.625483139855	836.25
738.330956339723	838
741.035545631374	842
743.739251617106	832.5
746.44207489779	832.5
749.144016072852	820.75
751.845075740272	826.25
754.545254496603	837.75
757.244552936976	833.5
759.94297165508	837.75
762.640511243222	833.75
765.337172292249	834.25
768.032955391649	833.5
770.727861129482	832.75
773.421890092413	839.5
776.11504286572	837.25
778.807320033298	845.5
781.49872217765	840
784.18924987991	848.5
786.87890371984	846.5
789.567684275826	849.25
792.255592124908	860
794.94262784276	866
797.628792003703	851.5
800.314085180715	853
802.998507945427	849.75
805.682060868145	850.75
808.364744517821	852.5
811.046559462105	850.25
813.727506267311	863
816.407585498422	862
819.08679771913	845.75
821.765143491822	849.25
824.442623377563	863.5
827.119237936127	858.25
829.794987726003	856
832.469873304377	859.75
835.143895227167	856.25
837.817054048985	871.75
840.489350323205	876.25
843.160784601892	874.25
845.831357435894	893
848.501069374739	926.5
851.169920966753	952
853.837912758987	1000.75
856.505045297232	1047.75
859.171319126071	1035.5
861.836734788823	998
864.501292827579	941.25
867.164993783208	911.75
869.827838195361	878.75
872.489826602454	874
875.150959541701	881.75
877.811237549104	869.5
880.470661159456	872.75
883.129230906357	870.25
885.786947322205	869.75
888.443810938206	867.75
891.099822284385	859
893.754981889586	856.75
896.409290281452	848.5
899.062747986485	864.25
901.715355529999	846.75
904.367113436154	853.25
907.01802222793	848.75
909.668082427172	853.25
912.317294554574	855.25
914.965659129659	857.75
917.613176670835	849
920.259847695364	838.25
922.90567271936	851.5
925.550652257825	848.25
928.194786824621	850.75
930.838076932512	846.75
933.480523093109	851
936.122125816953	843.25
938.762885613447	840.25
941.402802990899	855.75
944.041878456523	852.5
946.680112516428	849
949.31750567563	847.5
951.954058438081	856.5
954.589771306633	859.5
957.224644783048	847.75
959.858679368044	851.5
962.491875561238	857.75
965.12423386121	849
967.75575476545	859.5
970.386438770423	856.25
973.016286371501	871.5
975.645298063046	856.5
978.273474338355	856.5
980.900815689674	862.5
983.527322608243	863.25
986.152995584245	866.25
988.777835106834	864.5
991.401841664148	881.5
994.025015743307	890
996.647357830407	880.75
999.268868410534	879
1001.88954796777	878
1004.50939698518	878.25
1007.12841594484	876
1009.74660532783	863.25
1012.36396561423	863.75
1014.98049728314	866.75
1017.59620081267	863.25
1020.21107667995	861.5
1022.82512536112	869
1025.43834733138	865.5
1028.05074306493	859.75
1030.66231303501	861
1033.27305771392	859
1035.88297757299	862.75
1038.49207308257	865.75
1041.10034471211	867
1043.70779293008	867.5
1046.31441820402	857.25
1048.92022100052	857.75
1051.52520178525	873.5
1054.12936102295	870.75
1056.73269917742	868
1059.33521671154	870
1061.93691408729	873
1064.53779176571	874.5
1067.13785020694	865.5
1069.73708987022	878.75
1072.33551121386	879.75
1074.93311469528	885
1077.52990077103	875.25
1080.12586989674	867.75
1082.72102252714	887
1085.31535911611	901.25
1087.90888011663	930
1090.50158598078	941.75
1093.09347715979	949
1095.68455410403	969.5
1098.27481726296	938.5
1100.86426708523	931
1103.45290401857	919.25
1106.04072850991	912
1108.6277410053	899.5
1111.21394194993	912.5
1113.79933178816	932
1116.3839109635	929.5
1118.96767991862	920.75
1121.55063909539	915
1124.13278893477	912
1126.71412987696	899.25
1129.29466236132	889.25
1131.87438682637	896.5
1134.45330370982	889.5
1137.03141344858	884.75
1139.60871647872	878.75
1142.18521323554	875
1144.7609041535	880.75
1147.33578966629	886.75
1149.90987020676	880
1152.48314620702	888
1155.05561809835	871.25
1157.62728631125	877.5
1160.19815127545	878.75
1162.76821341988	882.5
1165.33747317271	871.25
1167.90593096133	875.5
1170.47358721235	888
1173.04044235163	890.5
1175.60649680425	897.5
1178.17175099454	910
1180.73620534607	915.25
1183.29986028165	910
1185.86271622336	918.75
1188.42477359249	898
1190.98603280964	900.75
1193.54649429462	893.25
1196.10615846653	892.75
1198.66502574372	873.5
1201.22309654385	876
1203.78037128378	868.5
1206.33685037971	873.75
1208.89253424709	875.5
1211.44742330063	875.75
1214.00151795438	865.5
1216.55481862163	869.25
1219.10732571497	875.25
1221.65903964631	881.25
1224.20996082683	865.5
1226.760089667	884
1229.30942657664	879.5
1231.85797196483	872
1234.40572623998	875
1236.95268980981	860.25
1239.49886308136	871.75
1242.04424646098	883.25
1244.58884035435	874.5
1247.13264516647	887.75
1249.67566130166	900
1252.21788916358	888.5
1254.75932915524	894
1257.29998167896	899
1259.83984713639	908.25
1262.37892592857	906.75
1264.91721845586	920
1267.45472511795	929
1269.9914463139	950.25
1272.52738244213	959
1275.0625339004	982.25
1277.59690108587	997.5
1280.130484395	1016.5
1282.66328422367	1030.75
1285.19530096712	1021.75
1287.72653501993	1048
1290.25698677608	1050
1292.78665662894	1039
1295.31554497125	1023.5
1297.8436521951	984.75
1300.37097869203	960.25
1302.89752485292	946.25
1305.42329106805	932.75
1307.94827772713	938.5
1310.47248521921	931.5
1312.99591393279	929.75
1315.51856425575	913.5
1318.04043657536	914
1320.56153127836	916.75
1323.08184875083	914
1325.6013893783	899.75
1328.12015354572	904.25
1330.63814163744	901
1333.15535403727	903.5
1335.67179112839	900
1338.18745329347	910
1340.70234091454	900.25
1343.21645437314	894.5
1345.72979405019	904.75
1348.24236032607	893.5
1350.75415358059	905.75
1353.26517419303	912.75
1355.7754225421	913
1358.28489900594	913.75
1360.79360396218	911.75
1363.30153778787	915.75
1365.80870085955	916
1368.31509355319	921.5
1370.82071624424	912.5
1373.32556930762	903.25
1375.8296531177	908
1378.33296804832	904.5
1380.83551447282	913.5
1383.33729276399	902.75
1385.83830329408	909.5
1388.33854643489	900.5
1390.83802255762	905.75
1393.33673203301	910.75
1395.83467523128	904.75
1398.33185252211	899.25
1400.82826427471	903.75
1403.32391085777	911
1405.81879263947	908
1408.31290998752	917
1410.80626326908	922.25
1413.29885285087	925
1415.79067909909	935.25
1418.28174237944	923.5
1420.77204305717	921.25
1423.26158149702	924.25
1425.75035806323	916
1428.2383731196	908.5
1430.72562702942	907.25
1433.21212015554	901.75
1435.69785286028	916.25
1438.18282550555	911.5
1440.66703845275	914.5
1443.15049206284	923.25
1445.6331866963	922.5
1448.11512271316	930.5
1450.59630047298	933.5
1453.07672033486	929.25
1455.55638265748	925
1458.03528779902	922
1460.51343611725	942
1462.99082796946	928.25
1465.46746371252	920.25
1467.94334370285	932.5
1470.41846829642	921.5
1472.89283784878	917.75
1475.36645271503	919
1477.83931324983	919.5
1480.31141980743	918.5
1482.78277274164	919
1485.25337240583	917.25
1487.72321915297	924.75
1490.19231333557	906.25
1492.66065530578	918
1495.12824541525	916.25
1497.5950840153	925.75
1500.06117145678	898.5
1502.52650809014	913
1504.99109426543	915.5
1507.45493033227	923.75
1509.91801663992	914
1512.38035353717	908.5
1514.84194137248	918.5
1517.30278049386	931.25
1519.76287124894	912.5
1522.22221398497	918.75
1524.68080904876	911.75
1527.13865678681	911.25
1529.59575754514	928.5
1532.05211166945	918.25
1534.50771950503	914.25
1536.96258139678	923.75
1539.41669768924	927.5
1541.87006872656	922.75
1544.32269485252	933.5
1546.77457641051	927.25
1549.22571374357	923.25
1551.67610719434	944.75
1554.12575710513	941
1556.57466381785	925
1559.02282767408	934.25
1561.47024901499	941.5
1563.91692818144	946.25
1566.3628655139	945
1568.80806135249	936
1571.252516037	948.5
1573.6962299068	950.25
1576.13920330099	945.25
1578.58143655828	957.75
1581.02293001704	964
1583.46368401528	958.5
1585.90369889071	956.75
1588.34297498065	973
1590.7815126221	964
1593.21931215173	981.5
1595.65637390588	988.5
1598.09269822053	1012
1600.52828543135	1049
1602.96313587367	1083
1605.3972498825	1170.75
1607.83062779252	1294.25
1610.26326993808	1429.75
1612.69517665322	1544.5
1615.12634827165	1509.75
1617.55678512676	1378.75
1619.98648755163	1203.25
1622.41545587902	1085.75
1624.84369044138	1018.25
1627.27119157085	994.75
1629.69795959924	986
1632.12399485808	974.5
1634.54929767859	958.75
1636.97386839165	966.25
1639.39770732789	948.75
1641.8208148176	943.75
1644.24319119078	957.5
1646.66483677715	935.75
1649.0857519061	960.5
1651.50593690677	951.5
1653.92539210795	947.25
1656.3441178382	944.25
1658.76211442575	949.75
1661.17938219855	942.75
1663.59592148428	952
1666.01173261032	956
1668.42681590377	957
1670.84117169145	958.25
1673.25480029991	958.75
1675.66770205541	958.25
1678.07987728393	964.75
1680.49132631119	966.5
1682.90204946263	964.75
1685.31204706342	982
1687.72131943846	967.5
1690.1298669124	970.5
1692.53768980957	963.25
1694.94478845411	975.25
1697.35116316982	978
1699.75681428031	977.25
1702.16174210887	994.75
1704.56594697858	985.25
1706.96942921222	1003.75
1709.37218913235	1014.5
1711.77422706125	1036.75
1714.17554332098	1071.5
1716.5761382333	1119
1718.97601211977	1159.5
1721.37516530169	1240.25
1723.77359810006	1350.75
1726.17131083572	1385.75
1728.56830382922	1362.25
1730.96457740087	1261
1733.36013187075	1190.75
1735.75496755868	1148.25
1738.14908478428	1122.75
1740.54248386689	1084.5
1742.93516512565	1060.75
1745.32712887946	1037.5
1747.71837544697	1018.5
1750.10890514662	993.75
1752.49871829661	1003.5
1754.88781521492	995.25
1757.27619621929	979.25
1759.66386162726	986.75
1762.05081175612	983
1764.43704692297	977.25
1766.82256744465	970.5
1769.20737363782	990
1771.59146581887	971.75
1773.97484430405	991.5
1776.35750940932	989.5
1778.73946145048	975.75
1781.12070074309	972.5
1783.50122760249	989
1785.88104234385	963
1788.26014528209	978.75
1790.63853673196	989.5
1793.01621700796	978
1795.39318642443	988.25
1797.76944529549	978.75
1800.14499393503	982.25
1802.51983265681	977.25
1804.8939617743	983
1807.26738160085	981
1809.64009244957	990
1812.01209463339	985.75
1814.38338846504	986.25
1816.75397425706	987.5
1819.12385232181	984
1821.49302297142	992.75
1823.86148651789	985
1826.22924327299	981.25
1828.59629354831	987
1830.96263765526	990.25
1833.32827590507	988.5
1835.69320860877	982
1838.05743607724	987.75
1840.42095862113	983
1842.78377655097	988.75
1845.14589017707	998.5
1847.50729980956	1002.25
1849.86800575843	999.25
1852.22800833346	995.5
1854.58730784427	998.25
1856.94590460032	993.75
1859.30379891087	987
1861.66099108503	998.75
1864.01748143175	982.75
1866.37327025978	1000.25
1868.72835787773	983.75
1871.08274459403	984.75
1873.43643071697	982.25
1875.78941655464	999.75
1878.14170241498	995.25
1880.4932886058	1018.25
1882.84417543469	1008.25
1885.19436320915	999.25
1887.54385223646	991.75
1889.89264282378	1012.25
1892.24073527809	1000.75
1894.58812990625	1015
1896.93482701493	1014.5
1899.28082691067	1011.75
1901.62612989984	1032
1903.97073628868	1023.75
1906.31464638326	1011.5
1908.6578604895	1032.5
1911.00037891321	1026
1913.34220196	1017.5
1915.68332993537	1035.75
1918.02376314468	1033.75
1920.36350189311	1020.75
1922.70254648573	1031.75
1925.04089722744	1015.5
1927.37855442303	1024.75
1929.71551837715	1031.75
1932.05178939426	1035.75
1934.38736777876	1026.75
1936.72225383484	1030.5
1939.0564478666	1033.75
1941.38995017799	1016.75
1943.72276107283	1031.25
1946.05488085479	1029.75
1948.38630982744	1032.5
1950.71704829419	1034.75
1953.04709655832	1029
1955.376454923	1034
1957.70512369126	1036.25
1960.03310316599	1039.75
1962.36039364999	1030.5
1964.68699544589	1028.75
1967.01290885622	1048.5
1969.33813418338	1046.25
1971.66267172965	1024.75
1973.98652179718	1034.75
1976.309684688	1048.25
1978.63216070402	1049.5
1980.95395014705	1043
1983.27505331873	1047.75
1985.59547052063	1054.5
1987.9152020542	1024.75
1990.23424822074	1049
1992.55260932146	1040.75
1994.87028565746	1046.75
1997.18727752968	1042.5
1999.503585239	1055.75
2001.81920908618	1057
2004.13414937184	1060.25
2006.44840639651	1061.25
2008.7619804606	1054.5
2011.07487186442	1065.75
2013.38708090815	1067.25
2015.6986078919	1063.25
2018.00945311564	1071.25
2020.31961687923	1076.75
2022.62909948246	1073.75
2024.93790122498	1074.5
2027.24602240636	1070
2029.55346332604	1090
2031.86022428337	1075.5
2034.16630557761	1088.75
2036.47170750791	1071.25
2038.77643037331	1083.75
2041.08047447275	1094.5
2043.38384010509	1082
2045.68652756907	1092.75
2047.98853716335	1089.25
2050.28986918648	1093.5
2052.59052393692	1077.25
2054.89050171302	1103.75
2057.18980281306	1091.25
2059.4884275352	1101.25
2061.78637617753	1092.25
2064.08364903802	1102.5
2066.38024641457	1086.25
2068.67616860497	1088
2070.97141590694	1094
2073.26598861809	1094.25
2075.55988703595	1089.75
2077.85311145796	1093.75
2080.14566218145	1100.5
2082.43753950371	1104.25
2084.72874372188	1088.25
2087.01927513307	1106
2089.30913403428	1105.5
2091.59832072241	1088.75
2093.88683549429	1102.75
2096.17467864666	1103.25
2098.46185047619	1113.25
2100.74835127944	1104
2103.03418135292	1123
2105.31934099303	1102.75
2107.6038304961	1116.75
2109.88765015838	1109.5
2112.17080027602	1108.5
2114.45328114513	1108.75
2116.7350930617	1121
2119.01623632165	1120
2121.29671122085	1115.25
2123.57651805505	1127.25
2125.85565711996	1120.25
2128.13412871117	1135.5
2130.41193312424	1124.25
2132.68907065462	1136
2134.96554159771	1111.25
2137.24134624881	1124.5
2139.51648490317	1126
2141.79095785593	1137.5
2144.0647654022	1146
2146.33790783698	1150.5
2148.61038545524	1149.75
2150.88219855182	1129.25
2153.15334742154	1151.25
2155.42383235911	1139.5
2157.6936536592	1145.25
2159.9628116164	1146
2162.23130652522	1159.75
2164.49913868011	1155.75
2166.76630837544	1137.75
2169.03281590552	1148.5
2171.2986615646	1163
2173.56384564685	1149.5
2175.82836844637	1154.5
2178.0922302572	1149.75
2180.35543137332	1159
2182.61797208862	1159.5
2184.87985269695	1164.5
2187.14107349208	1144.25
2189.40163476773	1156
2191.66153681753	1180.25
2193.92077993507	1177.75
2196.17936441386	1163.5
2198.43729054735	1161.5
2200.69455862894	1168
2202.95116895194	1156.75
2205.20712180962	1171.75
2207.46241749519	1174
2209.71705630179	1175.75
2211.97103852248	1156.5
2214.2243644503	1180.25
2216.47703437819	1170.25
2218.72904859905	1177.5
2220.98040740571	1178.5
2223.23111109095	1176.75
2225.4811599475	1169
2227.73055426799	1171
2229.97929434504	1183.5
2232.22738047118	1174.5
2234.47481293889	1189.5
2236.72159204058	1192.5
2238.96771806864	1196
2241.21319131536	1178.25
2243.458012073	1182.5
2245.70218063374	1196
2247.94569728973	1187.5
2250.18856233304	1191
2252.4307760557	1190.5
2254.67233874967	1194.25
2256.91325070687	1183.5
2259.15351221915	1190.5
2261.39312357831	1193
2263.63208507611	1196.75
2265.87039700422	1207.5
2268.1080596543	1195.5
2270.34507331792	1194.5
2272.5814382866	1198.75
2274.81715485183	1185
2277.05222330502	1207
2279.28664393755	1206.5
2281.52041704072	1212
2283.75354290581	1212.75
2285.98602182401	1212.25
2288.21785408648	1202
2290.44903998434	1215.5
2292.67957980862	1207.25
2294.90947385033	1208.5
2297.1387224004	1211.25
2299.36732574975	1216.5
2301.59528418921	1209.5
2303.82259800958	1234.5
2306.04926750158	1226.5
2308.27529295593	1225.25
2310.50067466325	1226.25
2312.72541291412	1217.5
2314.9495079991	1229.5
2317.17296020866	1221
2319.39576983323	1230.5
2321.61793716322	1224
2323.83946248894	1226.75
2326.06034610069	1212.75
2328.28058828871	1248
2330.50018934317	1239.25
2332.7191495542	1223
2334.93746921192	1242.25
2337.15514860633	1233
2339.37218802743	1242
2341.58858776516	1230.25
2343.80434810941	1232.5
2346.01946935001	1246.75
2348.23395177675	1241.5
2350.44779567939	1247.5
2352.66100134759	1238.5
2354.87356907101	1240.25
2357.08549913925	1236.75
2359.29679184185	1214.75
2361.50744746829	1238.5
2363.71746630804	1241.75
2365.92684865048	1222.75
2368.13559478499	1226
2370.34370500083	1247.25
2372.55117958727	1248.75
2374.75801883352	1238.75
2376.96422302874	1243.75
2379.16979246202	1250
2381.37472742243	1230.25
2383.57902819898	1257
2385.78269508063	1248.5
2387.98572835629	1211.25
2390.18812831482	1246.5
2392.38989524505	1249.25
2394.59102943573	1242
2396.79153117559	1239.75
2398.9914007533	1248
2401.19063845748	1262.5
2403.38924457672	1255.25
2405.58721939951	1244.75
2407.78456321435	1243.25
2409.98127630966	1248
2412.17735897382	1247
2414.37281149517	1235.5
2416.56763416198	1231.75
2418.76182726249	1268.5
2420.95539108487	1260
2423.14832591726	1254.25
2425.34063204776	1257.75
2427.53230976439	1243
2429.72335935513	1247.75
2431.91378110795	1267.25
2434.10357531071	1251.75
2436.29274225125	1263.75
2438.48128221739	1274.75
2440.66919549683	1242.25
2442.8564823773	1268.5
2445.04314314641	1257.5
2447.22917809176	1250.75
2449.4145875009	1246.25
2451.59937166131	1269.5
2453.78353086044	1253.75
2455.96706538568	1251.75
2458.14997552436	1253.25
2460.33226156379	1246.75
2462.51392379119	1266.25
2464.69496249376	1240.25
2466.87537795862	1256
2469.05517047288	1260.25
2471.23434032357	1242.25
2473.41288779767	1265.75
2475.59081318211	1252.5
2477.76811676378	1250.5
2479.9447988295	1252.25
2482.12085966605	1247.25
2484.29629956016	1252.25
2486.4711187985	1275.75
2488.64531766769	1274.5
2490.8188964543	1267.5
2492.99185544484	1259
2495.16419492579	1248
2497.33591518353	1265.75
2499.50701650444	1274.5
2501.67749917482	1266.5
2503.84736348091	1261.25
2506.01660970891	1271.5
2508.18523814496	1271.5
2510.35324907514	1266.25
2512.52064278551	1268.75
2514.68741956201	1255
2516.85357969058	1271.5
2519.01912345709	1277
2521.18405114735	1270
2523.34836304711	1262.5
2525.51205944208	1261
2527.6751406179	1261.25
2529.83760686016	1268.5
2531.99945845439	1280.75
2534.16069568606	1295.5
2536.3213188406	1287.75
2538.48132820336	1273.25
2540.64072405965	1284.75
2542.79950669471	1290
2544.95767639373	1281.75
2547.11523344184	1282.25
2549.27217812411	1271.25
2551.42851072555	1299.75
2553.58423153111	1288.25
2555.73934082569	1292
2557.89383889412	1291.75
2560.04772602118	1307.75
2562.20100249158	1287.5
2564.35366858996	1283.5
2566.50572460093	1294.75
2568.65717080901	1293.5
2570.80800749867	1306.5
2572.95823495433	1302.5
2575.10785346031	1277.25
2577.25686330093	1260.25
2579.40526476038	1290.5
2581.55305812282	1292.25
2583.70024367237	1285.5
2585.84682169303	1287
2587.99279246879	1284
2590.13815628354	1279
2592.28291342112	1287
2594.42706416531	1284.25
2596.5706087998	1281
2598.71354760826	1280.75
2600.85588087425	1300.5
2602.99760888127	1275.75
2605.13873191278	1281.25
2607.27925025214	1273.5
2609.41916418269	1264.5
2611.55847398764	1296.5
2613.69717995017	1295.75
2615.83528235339	1318
2617.97278148034	1273
2620.10967761398	1293.75
2622.2459710372	1306.5
2624.38166203284	1306.25
2626.51675088365	1306.75
2628.65123787231	1286.5
2630.78512328145	1315.25
2632.9184073936	1300.5
2635.05109049124	1301
2637.18317285676	1298.5
2639.31465477248	1310.75
2641.44553652067	1311.75
2643.5758183835	1297
2645.70550064309	1299.25
2647.83458358144	1293
2649.96306748053	1304
2652.09095262223	1312.25
2654.21823928836	1307.5
2656.34492776063	1311.25
2658.47101832071	1310.5
2660.59651125015	1314.75
2662.72140683047	1310.5
2664.84570534309	1289.75
2666.96940706934	1309.25
2669.0925122905	1307.75
2671.21502128773	1307
2673.33693434215	1331
2675.45825173479	1319.25
2677.57897374658	1312.75
2679.69910065839	1307.75
2681.818632751	1316.5
2683.93757030511	1300.25
2686.05591360133	1322.75
2688.17366292021	1314.75
2690.29081854218	1330.5
2692.40738074762	1315.25
2694.52334981681	1302
2696.63872602995	1317
2698.75350966713	1329.75
2700.86770100841	1336.75
2702.98130033371	1323.5
2705.09430792289	1330.75
2707.20672405571	1323.75
2709.31854901185	1328.5
2711.42978307091	1336.25
2713.54042651238	1322.5
2715.65047961567	1319.25
2717.7599426601	1316.5
2719.86881592491	1320.25
2721.97709968924	1334.5
2724.08479423213	1337
2726.19189983255	1324.5
2728.29841676934	1334
2730.4043453213	1322.25
2732.5096857671	1343.25
2734.61443838532	1328
2736.71860345444	1344.5
2738.82218125286	1317.5
2740.92517205889	1336.5
2743.02757615072	1343.75
2745.12939380646	1336
2747.23062530411	1355.75
2749.33127092159	1353
2751.4313309367	1358.75
2753.53080562716	1348
2755.62969527058	1351.5
2757.72800014448	1338.5
2759.82572052625	1363.5
2761.92285669323	1350.75
2764.0194089226	1361
2766.11537749147	1366.5
2768.21076267686	1371.5
2770.30556475566	1367.25
2772.39978400465	1367.75
2774.49342070054	1354
2776.58647511991	1358.25
2778.67894753923	1375.5
2780.77083823487	1368.5
2782.8621474831	1348.5
2784.95287556007	1366.75
2787.04302274184	1386.5
2789.13258930433	1371.25
2791.22157552338	1385.25
2793.30998167471	1365.75
2795.39780803392	1365.75
2797.4850548765	1375.5
2799.57172247786	1370.25
2801.65781111324	1381.25
2803.74332105781	1389.25
2805.82825258661	1373.75
2807.91260597457	1399.25
2809.9963814965	1372
2812.07957942711	1378.25
2814.16220004096	1393.25
2816.24424361252	1382.25
2818.32571041614	1389.5
2820.40660072604	1401
2822.48691481631	1412
2824.56665296098	1416
2826.64581543388	1391
2828.72440250876	1398.75
2830.80241445925	1403.25
2832.87985155885	1406.75
2834.95671408093	1396.5
2837.03300229875	1390.75
2839.10871648544	1607.25
2841.18385691399	1561.5
2843.25842385729	1419.5
2845.33241758808	1396.5
2847.40583837898	1406.5
2849.4786865025	1421
2851.550962231	1435
2853.6226658367	1428.5
2855.69379759173	1432.25
2857.76435776806	1430.75
2859.83434663753	1406.75
2861.90376447184	1443.75
2863.97261154259	1439.5
2866.0408881212	1437
2868.10859447901	1453.25
2870.17573088717	1440.75
2872.24229761673	1449
2874.30829493859	1442.25
2876.37372312352	1456.75
2878.43858244215	1458.5
2880.50287316496	1470.25
2882.56659556231	1463.75
2884.62974990439	1462.75
2886.69233646129	1467.25
2888.75435550293	1478.5
2890.81580729909	1462.25
2892.87669211941	1481.25
2894.93701023339	1486.75
2896.99676191039	1482.25
2899.05594741961	1507
2901.1145670301	1503.25
2903.1726210108	1508.25
2905.23010963045	1523.5
2907.28703315768	1508
2909.34339186096	1512.5
2911.39918600861	1501
2913.45441586879	1532.25
2915.50908170952	1499.75
2917.56318379867	1493.25
2919.61672240395	1523.25
2921.66969779291	1511.75
2923.72211023295	1514.75
2925.77395999134	1516.5
2927.82524733515	1507.5
2929.87597253132	1521.5
2931.92613584663	1531.5
2933.97573754769	1528.75
2936.02477790097	1516
2938.07325717276	1527.75
2940.1211756292	1527
2942.16853353626	1530.75
2944.21533115976	1543
2946.26156876536	1547
2948.30724661853	1524.25
2950.3523649846	1564
2952.39692412872	1558.75
2954.44092431587	1570.5
2956.48436581089	1592.5
2958.52724887843	1589.25
2960.56957378296	1606.75
2962.6113407888	1613.5
2964.65255016011	1627.25
2966.69320216083	1628.25
2968.73329705479	1612
2970.77283510559	1597.25
2972.81181657671	1604.5
2974.8502417314	1604
2976.88811083279	1597.5
2978.92542414378	1592.5
2980.96218192713	1616.25
2982.99838444541	1617.75
2985.034031961	1618
2987.06912473612	1605.5
2989.1036630328	1606
2991.13764711288	1605.5
2993.17107723804	1620
2995.20395366974	1622
2997.23627666931	1616
2999.26804649782	1635.75
3001.29926341624	1657.75
3003.32992768528	1669
3005.3600395655	1647
3007.38959931726	1659.25
3009.41860720076	1645.5
3011.44706347595	1658.5
3013.47496840263	1633
3015.50232224041	1646
3017.5291252487	1663.75
3019.5553776867	1649.5
3021.58107981344	1637
3023.60623188773	1662.5
3025.63083416822	1650
3027.65488691331	1681.5
3029.67839038125	1673.25
3031.70134483007	1660.5
3033.72375051759	1680.5
3035.74560770144	1679.25
3037.76691663907	1676
3039.78767758768	1692.75
3041.80789080431	1669.75
3043.82755654577	1676.5
3045.84667506867	1703
3047.8652466294	1697.25
3049.88327148418	1692
3051.90074988899	1697.25
3053.91768209961	1700
3055.9340683716	1698.5
3057.94990896033	1727
3059.96520412095	1736
3061.97995410838	1770.75
3063.99415917734	1768
3066.00781958234	1787.75
3068.02093557766	1817
3070.03350741738	1864
3072.04553535535	1854.5
3074.05701964521	1899
3076.06796054036	1949.5
3078.078358294	2039.25
3080.08821315912	2129.5
3082.09752538846	2135.25
3084.10629523454	2088
3086.11452294967	1965.25
3088.12220878592	1911.5
3090.12935299515	1866.75
3092.13595582898	1829.75
3094.1420175388	1822.25
3096.14753837579	1805.5
3098.15251859088	1788
3100.15695843477	1796
3102.16085815793	1812.25
3104.16421801061	1812
3106.16703824282	1794.25
3108.16931910432	1813.25
3110.17106084464	1804.25
3112.17226371308	1830.5
3114.17292795872	1833.75
3116.17305383034	1804.75
3118.17264157657	1821.5
3120.17169144571	1810.75
3122.17020368587	1800
3124.16817854492	1840.75
3126.16561627044	1850
3128.16251710982	1845
3130.15888131017	1866.5
3132.15470911837	1861.5
3134.15000078104	1870.25
3136.14475654455	1867.5
3138.13897665502	1884
3140.13266135835	1860
3142.12581090014	1873
3144.11842552577	1889.75
3146.11050548036	1906.5
3148.10205100875	1886.75
3150.09306235557	1916.5
3152.08353976515	1874
3154.07348348158	1902.75
3156.06289374869	1925.25
3158.05177081006	1896.5
3160.04011490899	1921
3162.02792628852	1928.25
3164.01520519145	1932
3166.00195186029	1942
3167.98816653728	1942
3169.97384946442	1933.25
3171.95900088344	1959.5
3173.94362103577	1966.75
3175.92771016259	1962.25
3177.91126850484	1961.25
3179.89429630312	1933
3181.87679379782	1978.75
3183.85876122903	1976.5
3185.84019883657	1986.25
3187.82110685997	1972.75
3189.80148553851	1997.5
3191.78133511116	2019.25
3193.76065581664	2026.25
3195.73944789337	1999.25
3197.7177115795	2001
3199.6954471129	2026.25
3201.67265473114	2019
3203.64933467153	2031.75
3205.62548717107	2031.75
3207.60111246648	2034.5
3209.57621079421	2071.75
3211.55078239041	2077.25
3213.52482749093	2077
3215.49834633133	2087.5
3217.4713391469	2070.5
3219.44380617262	2094
3221.41574764317	2080.25
3223.38716379296	2087
3225.35805485607	2106.25
3227.32842106631	2100.25
3229.29826265718	2149.75
3231.26757986187	2122.75
3233.2363729133	2167
3235.20464204405	2145.75
3237.17238748643	2148.75
3239.13960947243	2149
3241.10630823374	2150.75
3243.07248400174	2153
3245.03813700748	2196.75
3247.00326748177	2165.25
3248.96787565503	2183.75
3250.93196175742	2200.75
3252.89552601877	2184.5
3254.8585686686	2207.25
3256.82108993612	2205.25
3258.78309005022	2233.25
3260.74456923948	2191.5
3262.70552773215	2231
3264.66596575617	2222.75
3266.62588353916	2236
3268.58528130843	2219
3270.54415929094	2258.75
3272.50251771336	2252.75
3274.46035680201	2260.75
3276.4176767829	2266
3278.37447788171	2249.5
3280.33076032379	2268.5
3282.28652433416	2279.75
3284.24177013751	2270
3286.1964979582	2276.75
3288.15070802027	2302.25
3290.10440054741	2293.5
3292.05757576298	2304.5
3294.01023389001	2322.25
3295.96237515119	2322.75
3297.91399976887	2337.5
3299.86510796506	2337.75
3301.81569996142	2336.75
3303.76577597932	2348.25
3305.7153362397	2363
3307.66438096324	2364.5
3309.61291037024	2359.75
3311.56092468064	2374.25
3313.50842411404	2362.25
3315.45540888971	2388.25
3317.40187922656	2394
3319.34783534315	2384
3321.29327745768	2398.5
3323.23820578801	2394
3325.18262055164	2392.5
3327.1265219657	2424.25
3329.06991024699	2422.25
3331.01278561194	2407.25
3332.95514827662	2423.75
3334.89699845674	2423.5
3336.83833636766	2461.5
3338.77916222434	2396.75
3340.71947624143	2449.5
3342.65927863317	2464.25
3344.59856961346	2452.75
3346.53734939584	2480.25
3348.47561819344	2461.25
3350.41337621906	2448.25
3352.35062368513	2475
3354.28736080368	2488.5
3356.22358778637	2478
3358.15930484452	2476.75
3360.09451218904	2534.25
3362.02921003047	2503.25
3363.96339857898	2519.5
3365.89707804436	2525.75
3367.83024863602	2538.5
3369.76291056299	2544.75
3371.69506403389	2537
3373.62670925699	2540
3375.55784644016	2555
3377.4884757909	2584.5
3379.41859751629	2592.25
3381.34821182305	2586.25
3383.27731891749	2598.5
3385.20591900555	2589.25
3387.13401229276	2581.5
3389.06159898426	2599.5
3390.9886792848	2651.5
3392.91525339872	2634.5
3394.84132152998	2649.5
3396.76688388213	2657.5
3398.69194065833	2681.25
3400.61649206133	2663
3402.54053829348	2666.25
3404.46407955672	2655
3406.3871160526	2669.5
3408.30964798225	2696
3410.23167554639	2685.75
3412.15319894535	2725
3414.07421837904	2699.75
3415.99473404695	2718.75
3417.91474614817	2720.75
3419.83425488136	2728.5
3421.75326044479	2756.5
3423.67176303631	2755.5
3425.58976285332	2749.5
3427.50726009282	2751.25
3429.42425495143	2762.25
3431.34074762528	2766.5
3433.25673831012	2737
3435.17222720127	2752
3437.08721449362	2792
3439.00170038164	2756.75
3440.91568505936	2785.25
3442.82916872039	2752.5
3444.74215155791	2761
3446.65463376468	2772.5
3448.566615533	2788.25
3450.47809705476	2783.25
3452.3890785214	2782
3454.29956012393	2820
3456.20954205293	2799.75
3458.11902449853	2823.75
3460.02800765041	2824.5
3461.93649169784	2847
3463.84447682962	2809.75
3465.75196323412	2785.5
3467.65895109925	2839.25
3469.56544061249	2843
3471.47143196086	2796.75
3473.37692533093	2831
3475.28192090884	2838.5
3477.18641888026	2854
3479.09041943039	2824
3480.99392274402	2855.75
3482.89692900545	2843.25
3484.79943839853	2864
3486.70145110666	2885.75
3488.60296731277	2859.75
3490.50398719933	2858.5
3492.40451094836	2838.5
3494.30453874141	2845.75
3496.20407075956	2891.25
3498.10310718342	2895.5
