201.866871357051	1004
204.754250281454	1022.5
207.640596790938	1008
210.525911876299	1007.75
213.410196525689	1018.75
216.293451724508	1007.5
219.175678455485	1021
222.056877698662	1003.5
224.937050431388	1021.75
227.816197628363	1027
230.694320261602	1011
233.571419300504	1029.5
236.447495711764	1040.25
239.322550459507	1040.75
242.196584505182	1024.5
245.069598807626	1034.25
247.941594323078	1042.25
250.812572005154	1028.5
253.682532804884	1052
256.551477670699	1031
259.419407548456	1047.25
262.286323381439	1027.75
265.152226110364	1063.75
268.017116673389	1041.25
270.880996006115	1040.25
273.743865041622	1032.5
276.605724710436	1057
279.466575940562	1069.75
282.326419657496	1041.5
285.1852567842	1055.5
288.043088241157	1047
290.899914946349	1055.5
293.75573781526	1049.25
296.610557760898	1053.75
299.464375693817	1045.5
302.317192522078	1067.75
305.169009151297	1064
308.019826484655	1064
310.86964542287	1075
313.718466864233	1066.25
316.566291704614	1063
319.413120837457	1057.25
322.258955153804	1057.5
325.103795542291	1054
327.947642889128	1077
330.79049807819	1073.5
333.632361990927	1067
336.473235506444	1047.5
339.31311950145	1058.75
342.152014850322	1071.75
344.989922425062	1095.25
347.826843095354	1074.75
350.662777728528	1087.5
353.497727189577	1088.5
356.331692341195	1101.75
359.164674043732	1101.25
361.996673155267	1088.5
364.827690531536	1116.25
367.65772702602	1112.25
370.486783489887	1114.25
373.314860772047	1113.25
376.14195971912	1116.25
378.968081175466	1096.5
381.793225983212	1123
384.617394982201	1110.25
387.44058901005	1107.75
390.262808902131	1131
393.08405549161	1118.5
395.904329609395	1119
398.723632084213	1135.25
401.541963742569	1129.25
404.359325408779	1138
407.175717904938	1129.75
409.991142050982	1135.5
412.805598664665	1141.75
415.619088561551	1148
418.43161255505	1153.25
421.243171456415	1142
424.053766074758	1150
426.863397217017	1178
429.672065688024	1171.5
432.479772290455	1196.25
435.286517824879	1193.25
438.092303089736	1182.75
440.897128881359	1205.5
443.70099599399	1195.75
446.503905219761	1194.25
449.305857348711	1209.5
452.106853168796	1195.25
454.906893465919	1185.75
457.705979023885	1185.75
460.504110624439	1178.25
463.3012890473	1177.25
466.097515070087	1178.25
468.892789468424	1176
471.687113015869	1176.5
474.48048648395	1162
477.272910642198	1156.25
480.064386258109	1168.75
482.854914097159	1167.25
485.644494922839	1157.5
488.433129496636	1161.75
491.220818578047	1157
494.007562924584	1169.75
496.793363291785	1168.25
499.578220433217	1177
502.362135100473	1175.75
505.145108043209	1178
507.927140009098	1183.75
510.708231743909	1185
513.488383991433	1185
516.267597493556	1198
519.04587299022	1196.25
521.82321121946	1193.75
524.599612917398	1179.5
527.375078818233	1172.5
530.149609654287	1203.25
532.923206155967	1193.5
535.695869051804	1201.25
538.467599068448	1214.75
541.238396930665	1191.25
544.008263361364	1180.25
546.777199081578	1182
549.545204810493	1198.25
552.312281265436	1183
555.078429161898	1200
557.843649213533	1203
560.607942132156	1207.5
563.371308627753	1217.75
566.133749408495	1207.75
568.895265180756	1221.5
571.655856649064	1202.75
574.415524516189	1232.5
577.174269483075	1234.25
579.932092248884	1241.5
582.688993510994	1232.5
585.444973965023	1257.25
588.200034304795	1239.75
590.95417522237	1272.25
593.70739740807	1259.75
596.459701550433	1266.75
599.21108833628	1272.5
601.961558450668	1272.25
604.711112576933	1266.75
607.459751396673	1273.5
610.207475589748	1277
612.954285834338	1287.75
615.700182806879	1282.5
618.445167182101	1257.75
621.189239633055	1274.5
623.932400831087	1255.5
626.674651445839	1256.5
629.415992145303	1241
632.156423595745	1250.5
634.895946461813	1245.5
637.634561406449	1259.5
640.37226909096	1228
643.109070174978	1247.25
645.844965316508	1257.25
648.579955171888	1244.75
651.314040395846	1229
654.047221641456	1250.5
656.779499560176	1251.75
659.510874801828	1238.5
662.241348014642	1258
664.97091984524	1252.75
667.699590938606	1236
670.427361938164	1236
673.15423348573	1238.5
675.880206221526	1243
678.605280784206	1250.75
681.329457810829	1249.5
684.05273793692	1256.75
686.775121796389	1266.25
689.49661002163	1243.25
692.217203243454	1236.25
694.936902091144	1254.25
697.655707192425	1245.5
700.373619173493	1251.75
703.09063865901	1243.75
705.806766272093	1234.25
708.522002634378	1241.75
711.236348365946	1245.25
713.94980408538	1249.5
716.662370409762	1242.25
719.374047954676	1257.5
722.08483733419	1245
724.794739160909	1251.5
727.503754045949	1255.5
730.21188259892	1254.25
732.919125427998	1246
735.625483139855	1275.25
738.330956339723	1252.75
741.035545631374	1271.25
743.739251617106	1276
746.44207489779	1271.75
749.144016072852	1280
751.845075740272	1252.5
754.545254496603	1273.75
757.244552936976	1248.25
759.94297165508	1272.75
762.640511243222	1274.5
765.337172292249	1271
768.032955391649	1275
770.727861129482	1278
773.421890092413	1274.25
776.11504286572	1278
778.807320033298	1275.5
781.49872217765	1265.75
784.18924987991	1262.75
786.87890371984	1281
789.567684275826	1274
792.255592124908	1275.75
794.94262784276	1242.5
797.628792003703	1272.25
800.314085180715	1246.75
802.998507945427	1278.75
805.682060868145	1265.75
808.364744517821	1270.5
811.046559462105	1275.25
813.727506267311	1281.75
816.407585498422	1296.5
819.08679771913	1288
821.765143491822	1294
824.442623377563	1290.25
827.119237936127	1299.5
829.794987726003	1287.75
832.469873304377	1287.75
835.143895227167	1306.5
837.817054048985	1302.75
840.489350323205	1300.5
843.160784601892	1315.75
845.831357435894	1304
848.501069374739	1303.75
851.169920966753	1314.75
853.837912758987	1294.5
856.505045297232	1319.25
859.171319126071	1321.5
861.836734788823	1301.25
864.501292827579	1317
867.164993783208	1303
869.827838195361	1322.25
872.489826602454	1326.75
875.150959541701	1325.75
877.811237549104	1301.5
880.470661159456	1322.5
883.129230906357	1305.5
885.786947322205	1306.5
888.443810938206	1340.75
891.099822284385	1308
893.754981889586	1312
896.409290281452	1327.75
899.062747986485	1322.75
901.715355529999	1328.75
904.367113436154	1321.75
907.01802222793	1331
909.668082427172	1323.75
912.317294554574	1335.5
914.965659129659	1335.5
917.613176670835	1337.5
920.259847695364	1347.75
922.90567271936	1344.75
925.550652257825	1341.75
928.194786824621	1354.75
930.838076932512	1345.5
933.480523093109	1347.25
936.122125816953	1359
938.762885613447	1365
941.402802990899	1354
944.041878456523	1332
946.680112516428	1353.5
949.31750567563	1353.5
951.954058438081	1364
954.589771306633	1364.25
957.224644783048	1359.25
959.858679368044	1359.5
962.491875561238	1349.25
965.12423386121	1352.75
967.75575476545	1359.5
970.386438770423	1358
973.016286371501	1345
975.645298063046	1358.5
978.273474338355	1363.25
980.900815689674	1370.5
983.527322608243	1353
986.152995584245	1369
988.777835106834	1366.75
991.401841664148	1371.75
994.025015743307	1377.5
996.647357830407	1361.5
999.268868410534	1364.75
1001.88954796777	1377.25
1004.50939698518	1384.75
1007.12841594484	1385
1009.74660532783	1379.5
1012.36396561423	1391.25
1014.98049728314	1378.75
1017.59620081267	1396.25
1020.21107667995	1409.25
1022.82512536112	1407.25
1025.43834733138	1401
1028.05074306493	1407.5
1030.66231303501	1398.5
1033.27305771392	1406.75
1035.88297757299	1397.75
1038.49207308257	1399
1041.10034471211	1404.5
1043.70779293008	1417.25
1046.31441820402	1402.75
1048.92022100052	1431.5
1051.52520178525	1423
1054.12936102295	1442.25
1056.73269917742	1459.75
1059.33521671154	1450.75
1061.93691408729	1471.5
1064.53779176571	1448
1067.13785020694	1424
1069.73708987022	1442.75
1072.33551121386	1440.75
1074.93311469528	1435.75
1077.52990077103	1439
1080.12586989674	1423
1082.72102252714	1432.75
1085.31535911611	1426.5
1087.90888011663	1429.5
1090.50158598078	1453.5
1093.09347715979	1424.25
1095.68455410403	1445
1098.27481726296	1441.5
1100.86426708523	1444.75
1103.45290401857	1437
1106.04072850991	1454.75
1108.6277410053	1434.25
1111.21394194993	1436.75
1113.79933178816	1459.75
1116.3839109635	1450.5
1118.96767991862	1450.5
1121.55063909539	1451.5
1124.13278893477	1485.5
1126.71412987696	1516.25
1129.29466236132	1499
1131.87438682637	1498.25
1134.45330370982	1483.75
1137.03141344858	1449.75
1139.60871647872	1463
1142.18521323554	1487.25
1144.7609041535	1468.25
1147.33578966629	1492
1149.90987020676	1501.5
1152.48314620702	1488.75
1155.05561809835	1486.75
1157.62728631125	1497.25
1160.19815127545	1490
1162.76821341988	1495.75
1165.33747317271	1487
1167.90593096133	1494.75
1170.47358721235	1489
1173.04044235163	1482.25
1175.60649680425	1485.75
1178.17175099454	1483.25
1180.73620534607	1500.75
1183.29986028165	1474
1185.86271622336	1496.75
1188.42477359249	1498.75
1190.98603280964	1512
1193.54649429462	1478.5
1196.10615846653	1483
1198.66502574372	1482.5
1201.22309654385	1492.75
1203.78037128378	1505.25
1206.33685037971	1506
1208.89253424709	1482.75
1211.44742330063	1513
1214.00151795438	1493
1216.55481862163	1493.25
1219.10732571497	1514.5
1221.65903964631	1517.75
1224.20996082683	1520.25
1226.760089667	1515.25
1229.30942657664	1519
1231.85797196483	1545.75
1234.40572623998	1533
1236.95268980981	1542
1239.49886308136	1526.75
1242.04424646098	1555
1244.58884035435	1545.75
1247.13264516647	1549.25
1249.67566130166	1551.5
1252.21788916358	1561.5
1254.75932915524	1559.5
1257.29998167896	1556
1259.83984713639	1570.5
1262.37892592857	1589.5
1264.91721845586	1576.75
1267.45472511795	1588.75
1269.9914463139	1589.25
1272.52738244213	1591.5
1275.0625339004	1610.75
1277.59690108587	1609.75
1280.130484395	1601
1282.66328422367	1599
1285.19530096712	1614.75
1287.72653501993	1636
1290.25698677608	1664.25
1292.78665662894	1679.25
1295.31554497125	1675.75
1297.8436521951	1692.75
1300.37097869203	1648.5
1302.89752485292	1662.75
1305.42329106805	1657.75
1307.94827772713	1654
1310.47248521921	1652
1312.99591393279	1653.5
1315.51856425575	1665.75
1318.04043657536	1641.75
1320.56153127836	1663
1323.08184875083	1665.75
1325.6013893783	1682.5
1328.12015354572	1675.75
1330.63814163744	1701
1333.15535403727	1703.5
1335.67179112839	1729
1338.18745329347	1710.75
1340.70234091454	1729
1343.21645437314	1726.75
1345.72979405019	1720.5
1348.24236032607	1731.5
1350.75415358059	1738.25
1353.26517419303	1746.25
1355.7754225421	1761.75
1358.28489900594	1753.75
1360.79360396218	1761
1363.30153778787	1753.75
1365.80870085955	1754
1368.31509355319	1781
1370.82071624424	1782
1373.32556930762	1781
1375.8296531177	1757.25
1378.33296804832	1777.75
1380.83551447282	1766.25
1383.33729276399	1750.75
1385.83830329408	1798.5
1388.33854643489	1776.5
1390.83802255762	1754.25
1393.33673203301	1782.5
1395.83467523128	1772.75
1398.33185252211	1777
1400.82826427471	1777.25
1403.32391085777	1807
1405.81879263947	1769.5
1408.31290998752	1782
1410.80626326908	1811
1413.29885285087	1842
1415.79067909909	1842.75
1418.28174237944	1856
1420.77204305717	1852
1423.26158149702	1840.25
1425.75035806323	1866.75
1428.2383731196	1874.5
1430.72562702942	1874.5
1433.21212015554	1908.5
1435.69785286028	1934
1438.18282550555	1974
1440.66703845275	1966
1443.15049206284	1964
1445.6331866963	1994.5
1448.11512271316	1970.25
1450.59630047298	2001.75
1453.07672033486	1985.5
1455.55638265748	1995.5
1458.03528779902	2022
1460.51343611725	2018.25
1462.99082796946	2041.75
1465.46746371252	2016.75
1467.94334370285	2045
1470.41846829642	2024.75
1472.89283784878	2034.75
1475.36645271503	2050.75
1477.83931324983	2054.5
1480.31141980743	2058.5
1482.78277274164	2064.5
1485.25337240583	2069.25
1487.72321915297	2074.25
1490.19231333557	2095
1492.66065530578	2067.5
1495.12824541525	2080
1497.5950840153	2112.75
1500.06117145678	2106.75
1502.52650809014	2107.25
1504.99109426543	2110
1507.45493033227	2116.5
1509.91801663992	2121
1512.38035353717	2150.5
1514.84194137248	2150.5
1517.30278049386	2173.75
1519.76287124894	2146.25
1522.22221398497	2173
1524.68080904876	2203.75
1527.13865678681	2175
1529.59575754514	2236.25
1532.05211166945	2247.25
1534.50771950503	2235.25
1536.96258139678	2266.5
1539.41669768924	2271.75
1541.87006872656	2285.5
1544.32269485252	2283.25
1546.77457641051	2325.75
1549.22571374357	2334.25
1551.67610719434	2365.75
1554.12575710513	2335.75
1556.57466381785	2373.75
1559.02282767408	2376.5
1561.47024901499	2412.25
1563.91692818144	2403.75
1566.3628655139	2428.5
1568.80806135249	2423.5
1571.252516037	2436.5
1573.6962299068	2462
1576.13920330099	2492.25
1578.58143655828	2501.75
1581.02293001704	2514
1583.46368401528	2525.25
1585.90369889071	2539.25
1588.34297498065	2568
1590.7815126221	2519.75
1593.21931215173	2557.25
1595.65637390588	2594.5
1598.09269822053	2598
1600.52828543135	2595
1602.96313587367	2583.5
1605.3972498825	2582.75
1607.83062779252	2583
1610.26326993808	2587.25
1612.69517665322	2610
1615.12634827165	2624.25
1617.55678512676	2624.75
1619.98648755163	2597
1622.41545587902	2625.25
1624.84369044138	2637.5
1627.27119157085	2654.25
1629.69795959924	2633.5
1632.12399485808	2674.75
1634.54929767859	2643.75
1636.97386839165	2668.25
1639.39770732789	2693.75
1641.8208148176	2694.5
1644.24319119078	2693.5
1646.66483677715	2721
1649.0857519061	2724.25
1651.50593690677	2755
1653.92539210795	2746.75
1656.3441178382	2734
1658.76211442575	2748.25
1661.17938219855	2749.75
1663.59592148428	2792.75
1666.01173261032	2780.75
1668.42681590377	2813.25
1670.84117169145	2820
1673.25480029991	2811.25
1675.66770205541	2860
1678.07987728393	2855.5
1680.49132631119	2888
1682.90204946263	2883.75
1685.31204706342	2891.25
1687.72131943846	2901.25
1690.1298669124	2934
1692.53768980957	2947.5
1694.94478845411	2962
1697.35116316982	2957.5
1699.75681428031	2962.5
1702.16174210887	2952.5
1704.56594697858	2978.75
1706.96942921222	2992.25
1709.37218913235	3008
1711.77422706125	3005.5
1714.17554332098	3009.75
1716.5761382333	3016
1718.97601211977	3001.5
1721.37516530169	3013.75
1723.77359810006	3034.25
1726.17131083572	3036.5
1728.56830382922	3077.75
1730.96457740087	3085.25
1733.36013187075	3036.5
1735.75496755868	3072
1738.14908478428	3067
1740.54248386689	3116
1742.93516512565	3070.75
1745.32712887946	3102.75
1747.71837544697	3118.75
1750.10890514662	3159.5
1752.49871829661	3134.75
1754.88781521492	3162.75
1757.27619621929	3158.25
1759.66386162726	3178.5
1762.05081175612	3192.5
1764.43704692297	3215
1766.82256744465	3223.5
1769.20737363782	3264.5
1771.59146581887	3203.75
1773.97484430405	3285.25
1776.35750940932	3266
1778.73946145048	3282.75
1781.12070074309	3312.75
1783.50122760249	3333.25
1785.88104234385	3364.75
1788.26014528209	3350.75
1790.63853673196	3378.5
1793.01621700796	3411
1795.39318642443	3414.25
1797.76944529549	3447.25
1800.14499393503	3431.75
1802.51983265681	3415.5
1804.8939617743	3472.5
1807.26738160085	3501
1809.64009244957	3491.25
1812.01209463339	3489.75
1814.38338846504	3544.75
1816.75397425706	3539.5
1819.12385232181	3515.25
1821.49302297142	3548.75
1823.86148651789	3574.25
1826.22924327299	3554.5
1828.59629354831	3590
1830.96263765526	3555.75
1833.32827590507	3592.25
1835.69320860877	3595.25
1838.05743607724	3623.25
1840.42095862113	3587
1842.78377655097	3659.25
1845.14589017707	3644.5
1847.50729980956	3643
1849.86800575843	3691.5
1852.22800833346	3686.25
1854.58730784427	3685
1856.94590460032	3737
1859.30379891087	3736.5
1861.66099108503	3726.5
1864.01748143175	3768.25
1866.37327025978	3782
1868.72835787773	3765.25
1871.08274459403	3798
1873.43643071697	3792
1875.78941655464	3836.25
1878.14170241498	3828.75
1880.4932886058	3855
1882.84417543469	3868.25
1885.19436320915	3881.75
1887.54385223646	3907.75
1889.89264282378	3948
1892.24073527809	3941.25
1894.58812990625	3941
1896.93482701493	3967.25
1899.28082691067	3962.25
1901.62612989984	4036
1903.97073628868	4016.25
1906.31464638326	4018
1908.6578604895	4016.25
1911.00037891321	4073
1913.34220196	4074.25
1915.68332993537	4059.5
1918.02376314468	4064.5
1920.36350189311	4090.5
1922.70254648573	4119
1925.04089722744	4131.25
1927.37855442303	4082.75
1929.71551837715	4124.75
1932.05178939426	4108.75
1934.38736777876	4135
1936.72225383484	4115.75
1939.0564478666	4151.25
1941.38995017799	4100.75
1943.72276107283	4163.5
1946.05488085479	4127.5
1948.38630982744	4141.25
1950.71704829419	4136.5
1953.04709655832	4142.5
1955.376454923	4142.75
1957.70512369126	4147.75
1960.03310316599	4116.75
1962.36039364999	4136.25
1964.68699544589	4141.25
1967.01290885622	4177.75
1969.33813418338	4145.75
1971.66267172965	4171.25
1973.98652179718	4147.25
1976.309684688	4194.75
1978.63216070402	4175.25
1980.95395014705	4271.5
1983.27505331873	4215.25
1985.59547052063	4209.25
1987.9152020542	4213
1990.23424822074	4211.5
1992.55260932146	4240
1994.87028565746	4236.25
1997.18727752968	4218.75
1999.503585239	4276
2001.81920908618	4267.25
2004.13414937184	4276.5
2006.44840639651	4364
2008.7619804606	4319.5
2011.07487186442	4335.75
2013.38708090815	4363.5
2015.6986078919	4408
2018.00945311564	4426.5
2020.31961687923	4396.75
2022.62909948246	4406.5
2024.93790122498	4451.5
2027.24602240636	4452
2029.55346332604	4451.25
2031.86022428337	4441.25
2034.16630557761	4516.25
2036.47170750791	4498.25
2038.77643037331	4494.75
2041.08047447275	4568.75
2043.38384010509	4504.75
2045.68652756907	4530.75
2047.98853716335	4512
2050.28986918648	4530
2052.59052393692	4576.25
2054.89050171302	4580.25
2057.18980281306	4564.5
2059.4884275352	4567.5
2061.78637617753	4543.75
2064.08364903802	4608.25
2066.38024641457	4578.5
2068.67616860497	4586.5
2070.97141590694	4610
2073.26598861809	4609
2075.55988703595	4545.25
2077.85311145796	4558.75
2080.14566218145	4608
2082.43753950371	4657
2084.72874372188	4626.75
2087.01927513307	4626.25
2089.30913403428	4646
2091.59832072241	4669.5
2093.88683549429	4604.75
2096.17467864666	4651
2098.46185047619	4678.25
2100.74835127944	4679.25
2103.03418135292	4701.75
2105.31934099303	4673.25
2107.6038304961	4702.75
2109.88765015838	4704.5
2112.17080027602	4704
2114.45328114513	4711.75
2116.7350930617	4749.5
2119.01623632165	4715.75
2121.29671122085	4766
2123.57651805505	4749.75
2125.85565711996	4773.75
2128.13412871117	4772.5
2130.41193312424	4837.25
2132.68907065462	4827.25
2134.96554159771	4829.5
2137.24134624881	4771.5
2139.51648490317	4820
2141.79095785593	4822.5
2144.0647654022	4857.5
2146.33790783698	4813
2148.61038545524	4799.75
2150.88219855182	4876.5
2153.15334742154	4865.5
2155.42383235911	4903.75
2157.6936536592	4921.75
2159.9628116164	4835.75
2162.23130652522	4902.5
2164.49913868011	4896.5
2166.76630837544	4886
2169.03281590552	4885.75
2171.2986615646	4867.5
2173.56384564685	4908
2175.82836844637	4887.75
2178.0922302572	4901.5
2180.35543137332	4839.75
2182.61797208862	4897
2184.87985269695	4857.25
2187.14107349208	4886.5
2189.40163476773	4891.25
2191.66153681753	4919.5
2193.92077993507	4827.25
2196.17936441386	4851.5
2198.43729054735	4847.25
2200.69455862894	4837.25
2202.95116895194	4863.5
2205.20712180962	4844.25
2207.46241749519	4842
2209.71705630179	4839
2211.97103852248	4784.5
2214.2243644503	4828.25
2216.47703437819	4776.5
2218.72904859905	4777.25
2220.98040740571	4778.75
2223.23111109095	4750.25
2225.4811599475	4712.75
2227.73055426799	4750.75
2229.97929434504	4727.5
2232.22738047118	4683.25
2234.47481293889	4712
2236.72159204058	4778.5
2238.96771806864	4737.25
2241.21319131536	4717.75
2243.458012073	4690.25
2245.70218063374	4661.5
2247.94569728973	4684.25
2250.18856233304	4666.75
2252.4307760557	4621
2254.67233874967	4647.25
2256.91325070687	4630.25
2259.15351221915	4610
2261.39312357831	4637
2263.63208507611	4560
2265.87039700422	4572.25
2268.1080596543	4573.5
2270.34507331792	4543.75
2272.5814382866	4568.75
2274.81715485183	4578.25
2277.05222330502	4513.25
2279.28664393755	4519.75
2281.52041704072	4517.75
2283.75354290581	4473.5
2285.98602182401	4468.25
2288.21785408648	4485.25
2290.44903998434	4501.5
2292.67957980862	4478.5
2294.90947385033	4409.5
2297.1387224004	4468.25
2299.36732574975	4473.25
2301.59528418921	4432.5
2303.82259800958	4417.5
2306.04926750158	4367.75
2308.27529295593	4376.75
2310.50067466325	4389.5
2312.72541291412	4382
2314.9495079991	4369.5
2317.17296020866	4370.25
2319.39576983323	4397.25
2321.61793716322	4343.25
2323.83946248894	4343.5
2326.06034610069	4332
2328.28058828871	4288.5
2330.50018934317	4276
2332.7191495542	4302
2334.93746921192	4232.25
2337.15514860633	4277.25
2339.37218802743	4251.25
2341.58858776516	4228
2343.80434810941	4239.5
2346.01946935001	4205
2348.23395177675	4169.75
2350.44779567939	4224
2352.66100134759	4182.5
2354.87356907101	4169.25
2357.08549913925	4182.5
2359.29679184185	4135.75
2361.50744746829	4168.25
2363.71746630804	4117.25
2365.92684865048	4095.5
2368.13559478499	4051.25
2370.34370500083	4071.25
2372.55117958727	4059.5
2374.75801883352	4062.25
2376.96422302874	4060.5
2379.16979246202	4031.75
2381.37472742243	4023.25
2383.57902819898	4061.5
2385.78269508063	3954.5
2387.98572835629	3973.25
2390.18812831482	3989
2392.38989524505	4004
2394.59102943573	3949
2396.79153117559	3966.25
2398.9914007533	3949
2401.19063845748	3924.5
2403.38924457672	3916.25
2405.58721939951	3943.25
2407.78456321435	3886.5
2409.98127630966	3880.25
2412.17735897382	3943.5
2414.37281149517	3867.75
2416.56763416198	3900
2418.76182726249	3897.75
2420.95539108487	3833.25
2423.14832591726	3868
2425.34063204776	3835
2427.53230976439	3813.75
2429.72335935513	3787
2431.91378110795	3815
2434.10357531071	3761.75
2436.29274225125	3794.25
2438.48128221739	3730
2440.66919549683	3803.75
2442.8564823773	3775.5
2445.04314314641	3777.5
2447.22917809176	3754.5
2449.4145875009	3791.25
2451.59937166131	3734.25
2453.78353086044	3724.75
2455.96706538568	3695.5
2458.14997552436	3679.75
2460.33226156379	3687
2462.51392379119	3694.25
2464.69496249376	3655.75
2466.87537795862	3642.75
2469.05517047288	3631
2471.23434032357	3646.75
2473.41288779767	3647.5
2475.59081318211	3604.25
2477.76811676378	3625.25
2479.9447988295	3561.5
2482.12085966605	3587.25
2484.29629956016	3591.5
2486.4711187985	3566.5
2488.64531766769	3575.25
2490.8188964543	3570.75
2492.99185544484	3534.5
2495.16419492579	3523.25
2497.33591518353	3539.5
2499.50701650444	3511.75
2501.67749917482	3550.75
2503.84736348091	3505.75
2506.01660970891	3502
2508.18523814496	3517.75
2510.35324907514	3533.75
2512.52064278551	3522.5
2514.68741956201	3513.75
2516.85357969058	3521.75
2519.01912345709	3516.5
2521.18405114735	3485.5
2523.34836304711	3492.25
2525.51205944208	3492
2527.6751406179	3487.75
2529.83760686016	3467.25
2531.99945845439	3507.5
2534.16069568606	3499.75
2536.3213188406	3482
2538.48132820336	3473
2540.64072405965	3472.75
2542.79950669471	3472.75
2544.95767639373	3512
2547.11523344184	3456.25
2549.27217812411	3456.25
2551.42851072555	3437.25
2553.58423153111	3438.25
2555.73934082569	3404.75
2557.89383889412	3410
2560.04772602118	3416
2562.20100249158	3374.5
2564.35366858996	3404.25
2566.50572460093	3399
2568.65717080901	3362
2570.80800749867	3352.25
2572.95823495433	3344
2575.10785346031	3331.25
2577.25686330093	3346.25
2579.40526476038	3324.75
2581.55305812282	3307.5
2583.70024367237	3278.25
2585.84682169303	3287.25
2587.99279246879	3297.75
2590.13815628354	3273
2592.28291342112	3297.75
2594.42706416531	3283.75
2596.5706087998	3298
2598.71354760826	3293
2600.85588087425	3276
2602.99760888127	3256
2605.13873191278	3242.25
2607.27925025214	3197.75
2609.41916418269	3234
2611.55847398764	3239.75
2613.69717995017	3212.5
2615.83528235339	3257.75
2617.97278148034	3250
2620.10967761398	3226.5
2622.2459710372	3244.75
2624.38166203284	3200.25
2626.51675088365	3226.75
2628.65123787231	3219.25
2630.78512328145	3208.75
2632.9184073936	3207.5
2635.05109049124	3226.25
2637.18317285676	3234.5
2639.31465477248	3190.75
2641.44553652067	3229.25
2643.5758183835	3184.25
2645.70550064309	3194.25
2647.83458358144	3219
2649.96306748053	3190.5
2652.09095262223	3212
2654.21823928836	3243.5
2656.34492776063	3166
2658.47101832071	3209.5
2660.59651125015	3207.25
2662.72140683047	3194.75
2664.84570534309	3182.25
2666.96940706934	3153.5
2669.0925122905	3179
2671.21502128773	3193
2673.33693434215	3186.25
2675.45825173479	3185
2677.57897374658	3177
2679.69910065839	3147.5
2681.818632751	3166
2683.93757030511	3170.25
2686.05591360133	3151.5
2688.17366292021	3130.5
2690.29081854218	3168
2692.40738074762	3125
2694.52334981681	3142
2696.63872602995	3143
2698.75350966713	3154.25
2700.86770100841	3164.25
2702.98130033371	3143
2705.09430792289	3160
2707.20672405571	3159.25
2709.31854901185	3195.25
2711.42978307091	3144
2713.54042651238	3182.75
2715.65047961567	3155
2717.7599426601	3178.25
2719.86881592491	3191
2721.97709968924	3184.5
2724.08479423213	3154.25
2726.19189983255	3152.75
2728.29841676934	3130.75
2730.4043453213	3193.75
2732.5096857671	3177.5
2734.61443838532	3141.25
2736.71860345444	3134
2738.82218125286	3139.25
2740.92517205889	3143.25
2743.02757615072	3170.75
2745.12939380646	3094.25
2747.23062530411	3111.75
2749.33127092159	3150.25
2751.4313309367	3128.75
2753.53080562716	3136.25
2755.62969527058	3133.25
2757.72800014448	3115.75
2759.82572052625	3159
2761.92285669323	3131
2764.0194089226	3097.5
2766.11537749147	3144.5
2768.21076267686	3123.25
2770.30556475566	3115.5
2772.39978400465	3150.25
2774.49342070054	3116.75
2776.58647511991	3153.5
2778.67894753923	3161.25
2780.77083823487	3152.25
2782.8621474831	3123.75
2784.95287556007	3164.25
2787.04302274184	3131
2789.13258930433	3165.75
2791.22157552338	3116
2793.30998167471	3121
2795.39780803392	3152.5
2797.4850548765	3154
2799.57172247786	3119.25
2801.65781111324	3078
2803.74332105781	3148.25
2805.82825258661	3127
2807.91260597457	3125
2809.9963814965	3108.5
2812.07957942711	3146.5
2814.16220004096	3142.75
2816.24424361252	3152.75
2818.32571041614	3153.25
2820.40660072604	3154.5
2822.48691481631	3164.25
2824.56665296098	3193
2826.64581543388	3195.25
2828.72440250876	3229.5
2830.80241445925	3227.5
2832.87985155885	3229.75
2834.95671408093	3313.5
2837.03300229875	3355.75
2839.10871648544	3436
2841.18385691399	3555.25
2843.25842385729	3626.75
2845.33241758808	3705.75
2847.40583837898	3747.5
2849.4786865025	3725
2851.550962231	3722.5
2853.6226658367	3672
2855.69379759173	3604.75
2857.76435776806	3576
2859.83434663753	3525.25
2861.90376447184	3521.25
2863.97261154259	3523.25
2866.0408881212	3517.25
2868.10859447901	3522.25
2870.17573088717	3507.5
2872.24229761673	3548
2874.30829493859	3607.75
2876.37372312352	3652
2878.43858244215	3795.25
2880.50287316496	3889.75
2882.56659556231	3850
2884.62974990439	3767.75
2886.69233646129	3665.5
2888.75435550293	3629
2890.81580729909	3630.75
2892.87669211941	3608.5
2894.93701023339	3586.75
2896.99676191039	3594.5
2899.05594741961	3604.25
2901.1145670301	3556.75
2903.1726210108	3526.5
2905.23010963045	3550.5
2907.28703315768	3536.25
2909.34339186096	3509
2911.39918600861	3491.5
2913.45441586879	3509.75
2915.50908170952	3506
2917.56318379867	3494
2919.61672240395	3514.5
2921.66969779291	3488
2923.72211023295	3528
2925.77395999134	3517
2927.82524733515	3550.75
2929.87597253132	3515
2931.92613584663	3495.75
2933.97573754769	3466
2936.02477790097	3449.5
2938.07325717276	3456.25
2940.1211756292	3441.5
2942.16853353626	3409.25
2944.21533115976	3417.75
2946.26156876536	3368
2948.30724661853	3388.5
2950.3523649846	3355.5
2952.39692412872	3378.75
2954.44092431587	3350.25
2956.48436581089	3338
2958.52724887843	3361.5
2960.56957378296	3359.25
2962.6113407888	3412.75
2964.65255016011	3376.75
2966.69320216083	3391.75
2968.73329705479	3358.25
2970.77283510559	3366.75
2972.81181657671	3366.75
2974.8502417314	3393.75
2976.88811083279	3399.5
2978.92542414378	3417.5
2980.96218192713	3404.25
2982.99838444541	3402
2985.034031961	3398
2987.06912473612	3413.5
2989.1036630328	3447.25
2991.13764711288	3444.75
2993.17107723804	3462
2995.20395366974	3441
2997.23627666931	3455.25
2999.26804649782	3472.25
3001.29926341624	3508.25
3003.32992768528	3474.75
3005.3600395655	3490.5
3007.38959931726	3500.75
3009.41860720076	3526.25
3011.44706347595	3529.75
3013.47496840263	3541
3015.50232224041	3558.75
3017.5291252487	3537
3019.5553776867	3559.25
3021.58107981344	3552.5
3023.60623188773	3577.5
3025.63083416822	3599.75
3027.65488691331	3620.25
3029.67839038125	3638.25
3031.70134483007	3608.75
3033.72375051759	3644.5
3035.74560770144	3615.25
3037.76691663907	3650
3039.78767758768	3699.5
3041.80789080431	3631.25
3043.82755654577	3667.5
3045.84667506867	3658.25
3047.8652466294	3691.75
3049.88327148418	3672
3051.90074988899	3662.75
3053.91768209961	3692
3055.9340683716	3659.25
3057.94990896033	3632.5
3059.96520412095	3621.5
3061.97995410838	3695.25
3063.99415917734	3688.5
3066.00781958234	3664.25
3068.02093557766	3716.75
3070.03350741738	3687.25
3072.04553535535	3709
3074.05701964521	3687
3076.06796054036	3684.25
3078.078358294	3671.5
3080.08821315912	3701.25
3082.09752538846	3753
3084.10629523454	3690.75
3086.11452294967	3705.5
3088.12220878592	3736
3090.12935299515	3718.75
3092.13595582898	3728.5
3094.1420175388	3738.5
3096.14753837579	3763
3098.15251859088	3762.5
3100.15695843477	3727.5
3102.16085815793	3726.75
3104.16421801061	3731
3106.16703824282	3779.25
3108.16931910432	3765.5
3110.17106084464	3783.5
3112.17226371308	3801.75
3114.17292795872	3824.25
3116.17305383034	3801.5
3118.17264157657	3813.5
3120.17169144571	3816.75
3122.17020368587	3837.25
3124.16817854492	3825
3126.16561627044	3814.5
3128.16251710982	3876.25
3130.15888131017	3872.25
3132.15470911837	3847
3134.15000078104	3914.5
3136.14475654455	3862.5
3138.13897665502	3900.75
3140.13266135835	3869.5
3142.12581090014	3863
3144.11842552577	3912
3146.11050548036	3969
3148.10205100875	3932
3150.09306235557	3935.25
3152.08353976515	3929.5
3154.07348348158	3880.25
3156.06289374869	3942.5
3158.05177081006	3958.5
3160.04011490899	3959.75
3162.02792628852	4000
3164.01520519145	3943.25
3166.00195186029	3954.25
3167.98816653728	3999
3169.97384946442	3969.75
3171.95900088344	3945.5
3173.94362103577	4011
3175.92771016259	4003.5
3177.91126850484	4009.25
3179.89429630312	4024.75
3181.87679379782	3983
3183.85876122903	4023.5
3185.84019883657	4030.5
3187.82110685997	4039.25
3189.80148553851	4039.5
3191.78133511116	4086.75
3193.76065581664	4029
3195.73944789337	4060
3197.7177115795	4051
3199.6954471129	4057.75
3201.67265473114	4095
3203.64933467153	4052.5
3205.62548717107	4073.75
3207.60111246648	4108
3209.57621079421	4113
3211.55078239041	4107.25
3213.52482749093	4113.75
3215.49834633133	4129.25
3217.4713391469	4178.5
3219.44380617262	4158.75
3221.41574764317	4200.75
3223.38716379296	4113
3225.35805485607	4168.75
3227.32842106631	4194.5
3229.29826265718	4215
3231.26757986187	4195.5
3233.2363729133	4242.25
3235.20464204405	4247.5
3237.17238748643	4220.75
3239.13960947243	4265
3241.10630823374	4278
3243.07248400174	4240.25
3245.03813700748	4308.75
3247.00326748177	4313.25
3248.96787565503	4235
3250.93196175742	4314.5
3252.89552601877	4322.5
3254.8585686686	4301.25
3256.82108993612	4352.5
3258.78309005022	4329.5
3260.74456923948	4332
3262.70552773215	4315.5
3264.66596575617	4366
3266.62588353916	4308.75
3268.58528130843	4325.5
3270.54415929094	4300.25
3272.50251771336	4371.5
3274.46035680201	4375.25
3276.4176767829	4431.5
3278.37447788171	4354
3280.33076032379	4384
3282.28652433416	4405.25
3284.24177013751	4380.25
3286.1964979582	4339.75
3288.15070802027	4400
3290.10440054741	4375.25
3292.05757576298	4410.25
3294.01023389001	4347
3295.96237515119	4378
3297.91399976887	4413.5
3299.86510796506	4395
3301.81569996142	4440.5
3303.76577597932	4417.5
3305.7153362397	4402.75
3307.66438096324	4433.5
3309.61291037024	4419.5
3311.56092468064	4432.75
3313.50842411404	4379
3315.45540888971	4415.5
3317.40187922656	4381.75
3319.34783534315	4419.75
3321.29327745768	4423.75
3323.23820578801	4364.5
3325.18262055164	4395.25
3327.1265219657	4386.5
3329.06991024699	4384.25
3331.01278561194	4412
3332.95514827662	4413.75
3334.89699845674	4379
3336.83833636766	4386.75
3338.77916222434	4355.75
3340.71947624143	4434.5
3342.65927863317	4445
3344.59856961346	4370.25
3346.53734939584	4395.25
3348.47561819344	4462
3350.41337621906	4387
3352.35062368513	4415
3354.28736080368	4387.5
3356.22358778637	4410.25
3358.15930484452	4419.75
3360.09451218904	4432
3362.02921003047	4422.5
3363.96339857898	4438.25
3365.89707804436	4407.25
3367.83024863602	4331
3369.76291056299	4453
3371.69506403389	4450
3373.62670925699	4423.25
3375.55784644016	4450
3377.4884757909	4475
3379.41859751629	4451
3381.34821182305	4466
3383.27731891749	4480.75
3385.20591900555	4448
3387.13401229276	4457.75
3389.06159898426	4437.5
3390.9886792848	4500.25
3392.91525339872	4489.25
3394.84132152998	4469.75
3396.76688388213	4528.25
3398.69194065833	4475.25
3400.61649206133	4482
3402.54053829348	4487.25
3404.46407955672	4471.25
3406.3871160526	4501.25
3408.30964798225	4535.5
3410.23167554639	4550
3412.15319894535	4525
3414.07421837904	4506.25
3415.99473404695	4503.75
3417.91474614817	4535.25
3419.83425488136	4514.5
3421.75326044479	4532.75
3423.67176303631	4537
3425.58976285332	4502.25
3427.50726009282	4500.75
3429.42425495143	4530.5
3431.34074762528	4527.75
3433.25673831012	4524.25
3435.17222720127	4477
3437.08721449362	4488.75
3439.00170038164	4460
3440.91568505936	4530.5
3442.82916872039	4456.5
3444.74215155791	4507.25
3446.65463376468	4517.5
3448.566615533	4505
3450.47809705476	4518
3452.3890785214	4527.5
3454.29956012393	4491.75
3456.20954205293	4502.5
3458.11902449853	4469.75
3460.02800765041	4495.75
3461.93649169784	4448.75
3463.84447682962	4470.5
3465.75196323412	4476
3467.65895109925	4465
3469.56544061249	4437.5
3471.47143196086	4420
3473.37692533093	4482.25
3475.28192090884	4460.25
3477.18641888026	4461
3479.09041943039	4473.25
3480.99392274402	4458
3482.89692900545	4454
3484.79943839853	4467.5
3486.70145110666	4445.25
3488.60296731277	4441
3490.50398719933	4455.25
3492.40451094836	4400.75
3494.30453874141	4431.25
3496.20407075956	4487.25
3498.10310718342	4448.5
3500.00164819315	4426.5