201.866871357051	1163.75
204.754250281454	1148.5
207.640596790938	1136.5
210.525911876299	1149
213.410196525689	1159.25
216.293451724508	1153.5
219.175678455485	1149.75
222.056877698662	1149.5
224.937050431388	1153.25
227.816197628363	1149
230.694320261602	1149
233.571419300504	1145.25
236.447495711764	1143
239.322550459507	1155
242.196584505182	1142
245.069598807626	1158.25
247.941594323078	1129.25
250.812572005154	1153.75
253.682532804884	1150
256.551477670699	1156.75
259.419407548456	1175
262.286323381439	1160.75
265.152226110364	1162.75
268.017116673389	1161
270.880996006115	1150.25
273.743865041622	1157.5
276.605724710436	1160.75
279.466575940562	1155.5
282.326419657496	1177
285.1852567842	1171.25
288.043088241157	1163
290.899914946349	1173.75
293.75573781526	1183.25
296.610557760898	1161.5
299.464375693817	1171.5
302.317192522078	1178.75
305.169009151297	1168
308.019826484655	1169.75
310.86964542287	1172.75
313.718466864233	1185.25
316.566291704614	1181.75
319.413120837457	1189
322.258955153804	1194.25
325.103795542291	1180.75
327.947642889128	1207.75
330.79049807819	1189.5
333.632361990927	1209.25
336.473235506444	1197.25
339.31311950145	1199.25
342.152014850322	1193.5
344.989922425062	1205.75
347.826843095354	1226.75
350.662777728528	1229.75
353.497727189577	1230.75
356.331692341195	1228.5
359.164674043732	1235.25
361.996673155267	1229.75
364.827690531536	1246
367.65772702602	1253.75
370.486783489887	1247.5
373.314860772047	1252.5
376.14195971912	1259.75
378.968081175466	1225.75
381.793225983212	1238.5
384.617394982201	1239.5
387.44058901005	1245
390.262808902131	1259.5
393.08405549161	1256.25
395.904329609395	1250
398.723632084213	1248.75
401.541963742569	1252.75
404.359325408779	1255.5
407.175717904938	1282.75
409.991142050982	1273.5
412.805598664665	1267.25
415.619088561551	1278.75
418.43161255505	1287.25
421.243171456415	1278.75
424.053766074758	1323
426.863397217017	1304.75
429.672065688024	1322.5
432.479772290455	1315
435.286517824879	1317.75
438.092303089736	1320.5
440.897128881359	1328.75
443.70099599399	1314.5
446.503905219761	1323.25
449.305857348711	1320
452.106853168796	1333.5
454.906893465919	1334
457.705979023885	1336.5
460.504110624439	1332.75
463.3012890473	1335.75
466.097515070087	1324.75
468.892789468424	1340.25
471.687113015869	1332
474.48048648395	1336.25
477.272910642198	1343.25
480.064386258109	1362.5
482.854914097159	1351.75
485.644494922839	1377.75
488.433129496636	1369.5
491.220818578047	1380.25
494.007562924584	1398.75
496.793363291785	1387.25
499.578220433217	1402.25
502.362135100473	1404
505.145108043209	1417.75
507.927140009098	1424.5
510.708231743909	1425.25
513.488383991433	1421.5
516.267597493556	1436.75
519.04587299022	1436
521.82321121946	1427.75
524.599612917398	1425.25
527.375078818233	1444.25
530.149609654287	1439
532.923206155967	1447.25
535.695869051804	1449.5
538.467599068448	1449.75
541.238396930665	1431.25
544.008263361364	1438.25
546.777199081578	1444.75
549.545204810493	1436.5
552.312281265436	1436
555.078429161898	1461.75
557.843649213533	1450.75
560.607942132156	1465.25
563.371308627753	1468.25
566.133749408495	1480.25
568.895265180756	1494
571.655856649064	1484.5
574.415524516189	1482.25
577.174269483075	1479
579.932092248884	1504
582.688993510994	1501
585.444973965023	1494
588.200034304795	1520.25
590.95417522237	1526.25
593.70739740807	1522.75
596.459701550433	1548
599.21108833628	1545
601.961558450668	1533.5
604.711112576933	1552
607.459751396673	1520.5
610.207475589748	1564.75
612.954285834338	1553.75
615.700182806879	1550.75
618.445167182101	1538
621.189239633055	1529.75
623.932400831087	1548.25
626.674651445839	1563.5
629.415992145303	1573.25
632.156423595745	1573.5
634.895946461813	1572
637.634561406449	1569.25
640.37226909096	1595.25
643.109070174978	1581.25
645.844965316508	1611.25
648.579955171888	1580
651.314040395846	1597.5
654.047221641456	1613.25
656.779499560176	1623.5
659.510874801828	1632.25
662.241348014642	1641.75
664.97091984524	1651.75
667.699590938606	1662
670.427361938164	1659.25
673.15423348573	1670.75
675.880206221526	1657.75
678.605280784206	1669.75
681.329457810829	1678.5
684.05273793692	1691
686.775121796389	1696
689.49661002163	1693.25
692.217203243454	1689.5
694.936902091144	1725
697.655707192425	1713.5
700.373619173493	1729.5
703.09063865901	1725.25
705.806766272093	1712
708.522002634378	1759
711.236348365946	1767
713.94980408538	1778.5
716.662370409762	1797.75
719.374047954676	1767.25
722.08483733419	1768.75
724.794739160909	1790
727.503754045949	1792.5
730.21188259892	1809.75
732.919125427998	1803
735.625483139855	1816.5
738.330956339723	1842
741.035545631374	1851.75
743.739251617106	1893.25
746.44207489779	1910
749.144016072852	1915
751.845075740272	1923.75
754.545254496603	1896.5
757.244552936976	1922.75
759.94297165508	1888.75
762.640511243222	1921
765.337172292249	1912
768.032955391649	1935.25
770.727861129482	1951.5
773.421890092413	1937.5
776.11504286572	1974.25
778.807320033298	1951.25
781.49872217765	1967
784.18924987991	1965.75
786.87890371984	1975.5
789.567684275826	1963.25
792.255592124908	1987.25
794.94262784276	1980
797.628792003703	1999
800.314085180715	1996.25
802.998507945427	2004
805.682060868145	2016.75
808.364744517821	2041.5
811.046559462105	2041.5
813.727506267311	2060.5
816.407585498422	2069.75
819.08679771913	2067.75
821.765143491822	2088.25
824.442623377563	2097.5
827.119237936127	2128.75
829.794987726003	2134
832.469873304377	2167.75
835.143895227167	2152.25
837.817054048985	2162.25
840.489350323205	2199.5
843.160784601892	2190.75
845.831357435894	2198.5
848.501069374739	2246.25
851.169920966753	2249.5
853.837912758987	2251.75
856.505045297232	2246.5
859.171319126071	2255
861.836734788823	2260.75
864.501292827579	2307
867.164993783208	2292.75
869.827838195361	2280.75
872.489826602454	2318.75
875.150959541701	2336.75
877.811237549104	2316.75
880.470661159456	2329.75
883.129230906357	2333.5
885.786947322205	2343.25
888.443810938206	2384.75
891.099822284385	2343.25
893.754981889586	2379
896.409290281452	2400.25
899.062747986485	2410.5
901.715355529999	2450.75
904.367113436154	2423.5
907.01802222793	2422.25
909.668082427172	2437.5
912.317294554574	2458.75
914.965659129659	2459.5
917.613176670835	2493.25
920.259847695364	2482.75
922.90567271936	2509.75
925.550652257825	2507.75
928.194786824621	2529.25
930.838076932512	2543.5
933.480523093109	2566.75
936.122125816953	2569.25
938.762885613447	2588.75
941.402802990899	2602
944.041878456523	2643.25
946.680112516428	2655.5
949.31750567563	2664.5
951.954058438081	2687.5
954.589771306633	2716
957.224644783048	2728.5
959.858679368044	2769.25
962.491875561238	2765.5
965.12423386121	2785.75
967.75575476545	2796.75
970.386438770423	2814.25
973.016286371501	2847.5
975.645298063046	2798.5
978.273474338355	2807.25
980.900815689674	2843.5
983.527322608243	2789
986.152995584245	2899.75
988.777835106834	2867.25
991.401841664148	2867.5
994.025015743307	2893
996.647357830407	2908.5
999.268868410534	2931.75
1001.88954796777	2933.75
1004.50939698518	2960.5
1007.12841594484	2979.75
1009.74660532783	3021.25
1012.36396561423	3051.75
1014.98049728314	3059.5
1017.59620081267	3074.5
1020.21107667995	3138.25
1022.82512536112	3093.5
1025.43834733138	3151.5
1028.05074306493	3174.75
1030.66231303501	3190.25
1033.27305771392	3194.5
1035.88297757299	3280
1038.49207308257	3268.5
1041.10034471211	3265.5
1043.70779293008	3318.75
1046.31441820402	3333
1048.92022100052	3321
1051.52520178525	3381.75
1054.12936102295	3433.5
1056.73269917742	3497.25
1059.33521671154	3595.75
1061.93691408729	3644.5
1064.53779176571	3606.75
1067.13785020694	3594.25
1069.73708987022	3590.25
1072.33551121386	3532
1074.93311469528	3519.75
1077.52990077103	3594
1080.12586989674	3604.75
1082.72102252714	3636
1085.31535911611	3612
1087.90888011663	3662.5
1090.50158598078	3639.5
1093.09347715979	3710.25
1095.68455410403	3691
1098.27481726296	3707.75
1100.86426708523	3774.5
1103.45290401857	3779.5
1106.04072850991	3768.5
1108.6277410053	3803.25
1111.21394194993	3837.5
1113.79933178816	3877.75
1116.3839109635	3970.75
1118.96767991862	3968.75
1121.55063909539	4039.75
1124.13278893477	4176.75
1126.71412987696	4216.25
1129.29466236132	4203.5
1131.87438682637	4145.5
1134.45330370982	4159.5
1137.03141344858	4112.75
1139.60871647872	4106.25
1142.18521323554	4104.75
1144.7609041535	4163.25
1147.33578966629	4158.5
1149.90987020676	4212
1152.48314620702	4262.5
1155.05561809835	4234
1157.62728631125	4301.5
1160.19815127545	4317.5
1162.76821341988	4369.5
1165.33747317271	4412.75
1167.90593096133	4391.5
1170.47358721235	4493.25
1173.04044235163	4581.5
1175.60649680425	4581.75
1178.17175099454	4633
1180.73620534607	4678.5
1183.29986028165	4638.25
1185.86271622336	4590.75
1188.42477359249	4648
1190.98603280964	4614.75
1193.54649429462	4599
1196.10615846653	4589
1198.66502574372	4651.25
1201.22309654385	4647
1203.78037128378	4668.75
1206.33685037971	4701.25
1208.89253424709	4754.75
1211.44742330063	4773.5
1214.00151795438	4852.75
1216.55481862163	4894.25
1219.10732571497	4957.25
1221.65903964631	4958.75
1224.20996082683	5004.75
1226.760089667	5079
1229.30942657664	5100
1231.85797196483	5210
1234.40572623998	5170.25
1236.95268980981	5205.25
1239.49886308136	5230.75
1242.04424646098	5266.25
1244.58884035435	5265.25
1247.13264516647	5336.5
1249.67566130166	5369
1252.21788916358	5367.25
1254.75932915524	5452.25
1257.29998167896	5536.25
1259.83984713639	5584
1262.37892592857	5641.5
1264.91721845586	5684.5
1267.45472511795	5741.25
1269.9914463139	5686.5
1272.52738244213	5756.75
1275.0625339004	5734.75
1277.59690108587	5761.25
1280.130484395	5833.5
1282.66328422367	5839
1285.19530096712	5867
1287.72653501993	6034.75
1290.25698677608	6109
1292.78665662894	6289
1295.31554497125	6399.5
1297.8436521951	6345.5
1300.37097869203	6319.75
1302.89752485292	6249.75
1305.42329106805	6241.25
1307.94827772713	6326
1310.47248521921	6306.5
1312.99591393279	6328.25
1315.51856425575	6341.75
1318.04043657536	6342.25
1320.56153127836	6367.75
1323.08184875083	6465.25
1325.6013893783	6448.25
1328.12015354572	6506.5
1330.63814163744	6556.75
1333.15535403727	6614.75
1335.67179112839	6686.75
1338.18745329347	6672
1340.70234091454	6800.5
1343.21645437314	6816.25
1345.72979405019	6854
1348.24236032607	6918.75
1350.75415358059	7086
1353.26517419303	7186.5
1355.7754225421	7314.25
1358.28489900594	7503.75
1360.79360396218	7624
1363.30153778787	7659.75
1365.80870085955	7614.75
1368.31509355319	7562.5
1370.82071624424	7506
1373.32556930762	7428.5
1375.8296531177	7406.25
1378.33296804832	7391.75
1380.83551447282	7402.5
1383.33729276399	7407.5
1385.83830329408	7434.25
1388.33854643489	7430
1390.83802255762	7423.25
1393.33673203301	7435.25
1395.83467523128	7399.5
1398.33185252211	7454.5
1400.82826427471	7522.5
1403.32391085777	7476
1405.81879263947	7657.5
1408.31290998752	7573
1410.80626326908	7615
1413.29885285087	7679.25
1415.79067909909	7769
1418.28174237944	7845.25
1420.77204305717	7853
1423.26158149702	7883.25
1425.75035806323	8010.25
1428.2383731196	8058.5
1430.72562702942	8113.75
1433.21212015554	8370.25
1435.69785286028	8450
1438.18282550555	8614.75
1440.66703845275	8618
1443.15049206284	8591.5
1445.6331866963	8618.25
1448.11512271316	8690.75
1450.59630047298	8796.75
1453.07672033486	8810.75
1455.55638265748	8828.75
1458.03528779902	8837.5
1460.51343611725	8864
1462.99082796946	8935.75
1465.46746371252	8885.75
1467.94334370285	8982.5
1470.41846829642	8885
1472.89283784878	9032
1475.36645271503	8983.5
1477.83931324983	9049.5
1480.31141980743	9059
1482.78277274164	9182.5
1485.25337240583	9161.75
1487.72321915297	9216.5
1490.19231333557	9233.25
1492.66065530578	9239
1495.12824541525	9252.5
1497.5950840153	9235.5
1500.06117145678	9196
1502.52650809014	9213.5
1504.99109426543	9174
1507.45493033227	9178.25
1509.91801663992	9120.75
1512.38035353717	9181
1514.84194137248	9233
1517.30278049386	9228.75
1519.76287124894	9243.75
1522.22221398497	9225.75
1524.68080904876	9297.25
1527.13865678681	9291
1529.59575754514	9456
1532.05211166945	9449
1534.50771950503	9482.75
1536.96258139678	9593.5
1539.41669768924	9614
1541.87006872656	9603.25
1544.32269485252	9707.75
1546.77457641051	9835
1549.22571374357	9916.75
1551.67610719434	9884.25
1554.12575710513	9992.75
1556.57466381785	10021.75
1559.02282767408	9987
1561.47024901499	10061.25
1563.91692818144	10123.5
1566.3628655139	10137.25
1568.80806135249	10178.25
1571.252516037	10234.5
1573.6962299068	10415.5
1576.13920330099	10340.75
1578.58143655828	10425
1581.02293001704	10493.75
1583.46368401528	10538.5
1585.90369889071	10595.5
1588.34297498065	10607.5
1590.7815126221	10674.75
1593.21931215173	10767.25
1595.65637390588	10775.75
1598.09269822053	10791
1600.52828543135	10888.25
1602.96313587367	10882.25
1605.3972498825	10861.25
1607.83062779252	10774.75
1610.26326993808	10722.25
1612.69517665322	10763
1615.12634827165	10764.5
1617.55678512676	10717
1619.98648755163	10727.5
1622.41545587902	10741.25
1624.84369044138	10743
1627.27119157085	10801
1629.69795959924	10825.5
1632.12399485808	10912.5
1634.54929767859	10842.75
1636.97386839165	10896
1639.39770732789	10906.75
1641.8208148176	10905
1644.24319119078	10952.25
1646.66483677715	11038.5
1649.0857519061	11020.25
1651.50593690677	11135.75
1653.92539210795	11133.75
1656.3441178382	11167.25
1658.76211442575	11236
1661.17938219855	11259.25
1663.59592148428	11336.25
1666.01173261032	11359.25
1668.42681590377	11490.75
1670.84117169145	11485.75
1673.25480029991	11495
1675.66770205541	11566.5
1678.07987728393	11607
1680.49132631119	11731
1682.90204946263	11745.5
1685.31204706342	11764.5
1687.72131943846	11836.75
1690.1298669124	11842.25
1692.53768980957	11967.75
1694.94478845411	11927.75
1697.35116316982	11911.75
1699.75681428031	11986
1702.16174210887	11976.25
1704.56594697858	12089.5
1706.96942921222	12139.5
1709.37218913235	12122
1711.77422706125	12021.25
1714.17554332098	12026.25
1716.5761382333	12130
1718.97601211977	12126.5
1721.37516530169	12043.75
1723.77359810006	12085.5
1726.17131083572	12088.75
1728.56830382922	12138
1730.96457740087	12120.75
1733.36013187075	12031.75
1735.75496755868	12145.5
1738.14908478428	12070
1740.54248386689	12072.25
1742.93516512565	12133.5
1745.32712887946	12096.5
1747.71837544697	12140.25
1750.10890514662	12236.75
1752.49871829661	12231.5
1754.88781521492	12256
1757.27619621929	12285.75
1759.66386162726	12176
1762.05081175612	12282.5
1764.43704692297	12351
1766.82256744465	12267
1769.20737363782	12384.25
1771.59146581887	12364.75
1773.97484430405	12436.75
1776.35750940932	12468.75
1778.73946145048	12437.25
1781.12070074309	12519.5
1783.50122760249	12585
1785.88104234385	12587.5
1788.26014528209	12664.5
1790.63853673196	12664.75
1793.01621700796	12675
1795.39318642443	12781.5
1797.76944529549	12754.25
1800.14499393503	12758
1802.51983265681	12672.25
1804.8939617743	12874.75
1807.26738160085	12901.25
1809.64009244957	12820.75
1812.01209463339	12791
1814.38338846504	12982.5
1816.75397425706	12867
1819.12385232181	12886.75
1821.49302297142	12981
1823.86148651789	12850
1826.22924327299	12838.25
1828.59629354831	13003.25
1830.96263765526	12930.75
1833.32827590507	12966.75
1835.69320860877	13001.75
1838.05743607724	12957.25
1840.42095862113	12944.5
1842.78377655097	12963.5
1845.14589017707	12926
1847.50729980956	12947.5
1849.86800575843	13022.25
1852.22800833346	12910.75
1854.58730784427	12978.5
1856.94590460032	13061.75
1859.30379891087	13160.75
1861.66099108503	13087
1864.01748143175	13161.5
1866.37327025978	13137.75
1868.72835787773	13045
1871.08274459403	13190.25
1873.43643071697	13215.75
1875.78941655464	13339.5
1878.14170241498	13252
1880.4932886058	13344.5
1882.84417543469	13471.25
1885.19436320915	13361.5
1887.54385223646	13348
1889.89264282378	13458.75
1892.24073527809	13462
1894.58812990625	13492
1896.93482701493	13719.5
1899.28082691067	13652.25
1901.62612989984	13691
1903.97073628868	13773.75
1906.31464638326	13813.5
1908.6578604895	13794.25
1911.00037891321	13863.5
1913.34220196	13858.75
1915.68332993537	13931.75
1918.02376314468	13939.75
1920.36350189311	14006.5
1922.70254648573	13909.75
1925.04089722744	13879.5
1927.37855442303	13954.5
1929.71551837715	14023.5
1932.05178939426	13948.5
1934.38736777876	14024.75
1936.72225383484	13886.25
1939.0564478666	14158
1941.38995017799	14063
1943.72276107283	14047.5
1946.05488085479	14045.75
1948.38630982744	14015.5
1950.71704829419	14086.25
1953.04709655832	14027
1955.376454923	14019
1957.70512369126	13999.5
1960.03310316599	13978.25
1962.36039364999	13944.25
1964.68699544589	13996
1967.01290885622	14038
1969.33813418338	14019
1971.66267172965	14029
1973.98652179718	14151.75
1976.309684688	14183.5
1978.63216070402	14168.5
1980.95395014705	14425.25
1983.27505331873	14125.5
1985.59547052063	14302
1987.9152020542	14221.5
1990.23424822074	14303
1992.55260932146	14231.75
1994.87028565746	14294.5
1997.18727752968	14327.25
1999.503585239	14452
2001.81920908618	14392
2004.13414937184	14425.75
2006.44840639651	14699.75
2008.7619804606	14631.5
2011.07487186442	14636.5
2013.38708090815	14859.5
2015.6986078919	14683.25
2018.00945311564	14823.25
2020.31961687923	14759.5
2022.62909948246	14881.5
2024.93790122498	14847.75
2027.24602240636	15049.5
2029.55346332604	14996.25
2031.86022428337	14890
2034.16630557761	15119.75
2036.47170750791	15008.25
2038.77643037331	15088
2041.08047447275	15161
2043.38384010509	15019.25
2045.68652756907	15151.5
2047.98853716335	15099
2050.28986918648	15208.25
2052.59052393692	15259
2054.89050171302	15254.75
2057.18980281306	15181.75
2059.4884275352	15293.75
2061.78637617753	15205.75
2064.08364903802	15245.5
2066.38024641457	15202
2068.67616860497	15225
2070.97141590694	15200.5
2073.26598861809	15206
2075.55988703595	15163.75
2077.85311145796	15230.75
2080.14566218145	15255.75
2082.43753950371	15275
2084.72874372188	15189.25
2087.01927513307	15276.5
2089.30913403428	15236.5
2091.59832072241	15176.25
2093.88683549429	15164
2096.17467864666	15301.25
2098.46185047619	15334.75
2100.74835127944	15397.75
2103.03418135292	15433.75
2105.31934099303	15321.75
2107.6038304961	15458.5
2109.88765015838	15463.25
2112.17080027602	15414.25
2114.45328114513	15568
2116.7350930617	15515.25
2119.01623632165	15588.75
2121.29671122085	15521.5
2123.57651805505	15655
2125.85565711996	15613.5
2128.13412871117	15705.75
2130.41193312424	15841.75
2132.68907065462	15763
2134.96554159771	15819.75
2137.24134624881	15828.5
2139.51648490317	15910.75
2141.79095785593	15768.5
2144.0647654022	15897.25
2146.33790783698	15952
2148.61038545524	15898.5
2150.88219855182	16022
2153.15334742154	15986
2155.42383235911	16181.25
2157.6936536592	16134.75
2159.9628116164	16110.25
2162.23130652522	16054.25
2164.49913868011	16113
2166.76630837544	16201.5
2169.03281590552	16174.75
2171.2986615646	16228.5
2173.56384564685	16237.75
2175.82836844637	16204
2178.0922302572	16321
2180.35543137332	16331
2182.61797208862	16362.75
2184.87985269695	16317
2187.14107349208	16283.25
2189.40163476773	16332.25
2191.66153681753	16397.25
2193.92077993507	16252.75
2196.17936441386	16323.5
2198.43729054735	16427.75
2200.69455862894	16252.25
2202.95116895194	16435
2205.20712180962	16343.5
2207.46241749519	16326.75
2209.71705630179	16416.75
2211.97103852248	16366.5
2214.2243644503	16479.25
2216.47703437819	16483.5
2218.72904859905	16477.5
2220.98040740571	16520.75
2223.23111109095	16562.75
2225.4811599475	16459
2227.73055426799	16561
2229.97929434504	16624.75
2232.22738047118	16475.5
2234.47481293889	16570.5
2236.72159204058	16766.5
2238.96771806864	16601.5
2241.21319131536	16614.75
2243.458012073	16601.25
2245.70218063374	16692.75
2247.94569728973	16757.25
2250.18856233304	16671
2252.4307760557	16532.25
2254.67233874967	16673.5
2256.91325070687	16729.75
2259.15351221915	16809
2261.39312357831	16750
2263.63208507611	16670.5
2265.87039700422	16736.25
2268.1080596543	16808.5
2270.34507331792	16731.5
2272.5814382866	16774.5
2274.81715485183	16884.25
2277.05222330502	16877.25
2279.28664393755	16957.25
2281.52041704072	16900.5
2283.75354290581	16947.25
2285.98602182401	16882.75
2288.21785408648	16876.5
2290.44903998434	17040
2292.67957980862	17087
2294.90947385033	16963
2297.1387224004	16920.5
2299.36732574975	17103
2301.59528418921	17055
2303.82259800958	17087.75
2306.04926750158	17101.25
2308.27529295593	17070.75
2310.50067466325	17121
2312.72541291412	17182.25
2314.9495079991	17207.75
2317.17296020866	17122.5
2319.39576983323	17252.25
2321.61793716322	17218
2323.83946248894	17143.5
2326.06034610069	17211.75
2328.28058828871	17212.25
2330.50018934317	17244.5
2332.7191495542	17239
2334.93746921192	17208.75
2337.15514860633	17164.75
2339.37218802743	17253
2341.58858776516	17146.25
2343.80434810941	17168.75
2346.01946935001	17330.75
2348.23395177675	17262
2350.44779567939	17301
2352.66100134759	17195.25
2354.87356907101	17329
2357.08549913925	17223.5
2359.29679184185	17216.5
2361.50744746829	17358.5
2363.71746630804	17353.5
2365.92684865048	17169.25
2368.13559478499	17224.25
2370.34370500083	17244.25
2372.55117958727	17278.75
2374.75801883352	17227.75
2376.96422302874	17112
2379.16979246202	17133.25
2381.37472742243	17195
2383.57902819898	17193.75
2385.78269508063	17087.75
2387.98572835629	17215.25
2390.18812831482	17148.25
2392.38989524505	17137.75
2394.59102943573	17226
2396.79153117559	17126.75
2398.9914007533	17165
2401.19063845748	17247.5
2403.38924457672	17145.25
2405.58721939951	17118.5
2407.78456321435	17121
2409.98127630966	17067.5
2412.17735897382	17201.25
2414.37281149517	17132.25
2416.56763416198	17098.25
2418.76182726249	17252
2420.95539108487	17141
2423.14832591726	17091.25
2425.34063204776	17134.25
2427.53230976439	17085.25
2429.72335935513	17165.5
2431.91378110795	17061.25
2434.10357531071	17036
2436.29274225125	17191.25
2438.48128221739	16976.5
2440.66919549683	17029
2442.8564823773	17077
2445.04314314641	17131.5
2447.22917809176	17110.25
2449.4145875009	17192.25
2451.59937166131	17065.5
2453.78353086044	17094.75
2455.96706538568	17136.5
2458.14997552436	16985
2460.33226156379	16986.25
2462.51392379119	17070
2464.69496249376	16915
2466.87537795862	16880.25
2469.05517047288	16928.75
2471.23434032357	16963
2473.41288779767	16985.25
2475.59081318211	16969
2477.76811676378	16895
2479.9447988295	16873
2482.12085966605	16793
2484.29629956016	16850.75
2486.4711187985	16911.75
2488.64531766769	16979.5
2490.8188964543	16914.25
2492.99185544484	16910.25
2495.16419492579	17002.5
2497.33591518353	16949.5
2499.50701650444	16878.25
2501.67749917482	16973.25
2503.84736348091	16861.75
2506.01660970891	16895.75
2508.18523814496	16919.5
2510.35324907514	16889.75
2512.52064278551	16989.5
2514.68741956201	16957.75
2516.85357969058	17228
2519.01912345709	17144.75
2521.18405114735	17037
2523.34836304711	17021.5
2525.51205944208	17070.75
2527.6751406179	17042.75
2529.83760686016	17051.75
2531.99945845439	17129.25
2534.16069568606	17090
2536.3213188406	17289
2538.48132820336	17000
2540.64072405965	17187.75
2542.79950669471	17107
2544.95767639373	17298.75
2547.11523344184	17200.5
2549.27217812411	17042.5
2551.42851072555	17129.25
2553.58423153111	17183.25
2555.73934082569	17029
2557.89383889412	17137.5
2560.04772602118	17174
2562.20100249158	17027
2564.35366858996	17032
2566.50572460093	17033
2568.65717080901	16994.25
2570.80800749867	17027.75
2572.95823495433	16986
2575.10785346031	16915.75
2577.25686330093	16910
2579.40526476038	16808.75
2581.55305812282	16771.75
2583.70024367237	16796.5
2585.84682169303	16863.75
2587.99279246879	16746.75
2590.13815628354	16655.5
2592.28291342112	16714.5
2594.42706416531	16798.5
2596.5706087998	16794.5
2598.71354760826	16886
2600.85588087425	16752
2602.99760888127	16832
2605.13873191278	16734.25
2607.27925025214	16735.25
2609.41916418269	16770.25
2611.55847398764	16727.25
2613.69717995017	16708.75
2615.83528235339	16857.75
2617.97278148034	16847
2620.10967761398	16776.5
2622.2459710372	16807
2624.38166203284	16876
2626.51675088365	16910.5
2628.65123787231	16731.75
2630.78512328145	16863.25
2632.9184073936	16823.75
2635.05109049124	16905.25
2637.18317285676	16795.25
2639.31465477248	16935
2641.44553652067	16889.75
2643.5758183835	16826
2645.70550064309	16844.5
2647.83458358144	16812.75
2649.96306748053	17016.5
2652.09095262223	16918
2654.21823928836	17007.75
2656.34492776063	17017.25
2658.47101832071	16890.5
2660.59651125015	17022
2662.72140683047	16856.75
2664.84570534309	16985.75
2666.96940706934	16908.25
2669.0925122905	16954.75
2671.21502128773	16937.5
2673.33693434215	16985.75
2675.45825173479	17025.5
2677.57897374658	16994.75
2679.69910065839	17073.75
2681.818632751	16987
2683.93757030511	17025.5
2686.05591360133	16964.75
2688.17366292021	17026.25
2690.29081854218	16980
2692.40738074762	16847.75
2694.52334981681	16887.25
2696.63872602995	16835.25
2698.75350966713	17090.5
2700.86770100841	17096.25
2702.98130033371	16957.25
2705.09430792289	16892.75
2707.20672405571	17061
2709.31854901185	17161.25
2711.42978307091	17090.5
2713.54042651238	17171.25
2715.65047961567	17186.25
2717.7599426601	17186.75
2719.86881592491	17232
2721.97709968924	17172
2724.08479423213	17125.5
2726.19189983255	17234.75
2728.29841676934	17126.75
2730.4043453213	17225.75
2732.5096857671	17216.75
2734.61443838532	17067.25
2736.71860345444	17024.75
2738.82218125286	17091.75
2740.92517205889	17146
2743.02757615072	17119.25
2745.12939380646	17126.75
2747.23062530411	16986.75
2749.33127092159	17042.5
2751.4313309367	17036
2753.53080562716	17212.25
2755.62969527058	17137
2757.72800014448	17072
2759.82572052625	16999.5
2761.92285669323	17029
2764.0194089226	17068
2766.11537749147	17031
2768.21076267686	17068.25
2770.30556475566	17066.5
2772.39978400465	17122.25
2774.49342070054	16993.25
2776.58647511991	17140.5
2778.67894753923	17117.75
2780.77083823487	17129.25
2782.8621474831	17000
2784.95287556007	17112.75
2787.04302274184	16954
2789.13258930433	17102
2791.22157552338	16959.75
2793.30998167471	16987
2795.39780803392	17178.75
2797.4850548765	17167.75
2799.57172247786	16996.5
2801.65781111324	16953.5
2803.74332105781	17059.25
2805.82825258661	17108.25
2807.91260597457	17128.5
2809.9963814965	17118.25
2812.07957942711	17136.75
2814.16220004096	17019.75
2816.24424361252	17111.5
2818.32571041614	17270.75
2820.40660072604	17231
2822.48691481631	17331.25
2824.56665296098	17300.75
2826.64581543388	17453.75
2828.72440250876	17622.75
2830.80241445925	17679
2832.87985155885	17999.5
2834.95671408093	18297.75
2837.03300229875	18759
2839.10871648544	19295.25
2841.18385691399	20054.75
2843.25842385729	20876.5
2845.33241758808	21397.5
2847.40583837898	21975.5
2849.4786865025	22196.75
2851.550962231	22012.25
2853.6226658367	21666.75
2855.69379759173	21258.25
2857.76435776806	21002.5
2859.83434663753	20542
2861.90376447184	20369
2863.97261154259	20236.75
2866.0408881212	20044.5
2868.10859447901	20084
2870.17573088717	20218.75
2872.24229761673	20314.25
2874.30829493859	20451.75
2876.37372312352	20826.5
2878.43858244215	21745.25
2880.50287316496	22245.25
2882.56659556231	22292.5
2884.62974990439	21729.25
2886.69233646129	21241
2888.75435550293	20813.5
2890.81580729909	20838.75
2892.87669211941	20693.25
2894.93701023339	20501.75
2896.99676191039	20582.75
2899.05594741961	20627.75
2901.1145670301	20458.25
2903.1726210108	20117.5
2905.23010963045	20170.75
2907.28703315768	19904
2909.34339186096	19988.5
2911.39918600861	19743.75
2913.45441586879	19574
2915.50908170952	19588
2917.56318379867	19627.25
2919.61672240395	19693.75
2921.66969779291	19568.25
2923.72211023295	19713.25
2925.77395999134	19615.25
2927.82524733515	19621.25
2929.87597253132	19574.25
2931.92613584663	19350.25
2933.97573754769	19242.25
2936.02477790097	18881
2938.07325717276	18753.75
2940.1211756292	18579.75
2942.16853353626	18326
2944.21533115976	18207.75
2946.26156876536	17949.25
2948.30724661853	17828.5
2950.3523649846	17827.5
2952.39692412872	17709.5
2954.44092431587	17710
2956.48436581089	17609.75
2958.52724887843	17523
2960.56957378296	17577.25
2962.6113407888	17608.75
2964.65255016011	17534.75
2966.69320216083	17691
2968.73329705479	17499
2970.77283510559	17434.75
2972.81181657671	17489.25
2974.8502417314	17543.25
2976.88811083279	17447.5
2978.92542414378	17467.25
2980.96218192713	17510
2982.99838444541	17585.25
2985.034031961	17474.5
2987.06912473612	17581.25
2989.1036630328	17455.25
2991.13764711288	17443.5
2993.17107723804	17506.25
2995.20395366974	17533
2997.23627666931	17545.5
2999.26804649782	17594.75
3001.29926341624	17674
3003.32992768528	17494.75
3005.3600395655	17625
3007.38959931726	17672.5
3009.41860720076	17675
3011.44706347595	17873.25
3013.47496840263	17722.75
3015.50232224041	17768.25
3017.5291252487	17825.25
3019.5553776867	17729.25
3021.58107981344	17911.75
3023.60623188773	17977
3025.63083416822	17891.25
3027.65488691331	17950
3029.67839038125	17971.5
3031.70134483007	17797
3033.72375051759	18035.5
3035.74560770144	17967.75
3037.76691663907	17910.5
3039.78767758768	18066.75
3041.80789080431	17867.75
3043.82755654577	18074.25
3045.84667506867	17924.5
3047.8652466294	18011.25
3049.88327148418	17874.25
3051.90074988899	17970.5
3053.91768209961	18024.75
3055.9340683716	17818.75
3057.94990896033	17892
3059.96520412095	17981
3061.97995410838	17992.5
3063.99415917734	17966
3066.00781958234	17881.25
3068.02093557766	17862.75
3070.03350741738	17829.5
3072.04553535535	17860
3074.05701964521	17896.5
3076.06796054036	17850
3078.078358294	17752.5
3080.08821315912	17945.5
3082.09752538846	18084.75
3084.10629523454	17656.5
3086.11452294967	17883.5
3088.12220878592	17810.25
3090.12935299515	17880
3092.13595582898	17821
3094.1420175388	17828
3096.14753837579	17841
3098.15251859088	17863.5
3100.15695843477	17860
3102.16085815793	17813.5
3104.16421801061	17762
3106.16703824282	17790.25
3108.16931910432	17912
3110.17106084464	17749.25
3112.17226371308	17951.5
3114.17292795872	17854
3116.17305383034	17912.25
3118.17264157657	17871
3120.17169144571	17908.75
3122.17020368587	17838.75
3124.16817854492	17909.25
3126.16561627044	17898.25
3128.16251710982	17886.75
3130.15888131017	18129.25
3132.15470911837	18109.75
3134.15000078104	18096.5
3136.14475654455	18135
3138.13897665502	18085
3140.13266135835	18057
3142.12581090014	18061.5
3144.11842552577	18198
3146.11050548036	18260
3148.10205100875	18198.25
3150.09306235557	18277.5
3152.08353976515	18122.75
3154.07348348158	17970.25
3156.06289374869	18225.75
3158.05177081006	18076.25
3160.04011490899	18119.75
3162.02792628852	18259
3164.01520519145	18115.5
3166.00195186029	18166.25
3167.98816653728	18161.5
3169.97384946442	18132.25
3171.95900088344	18103
3173.94362103577	18202.25
3175.92771016259	18112.75
3177.91126850484	18250.25
3179.89429630312	18177.5
3181.87679379782	18108
3183.85876122903	18256.5
3185.84019883657	18284.5
3187.82110685997	18175.5
3189.80148553851	18090
3191.78133511116	18303.25
3193.76065581664	18222.25
3195.73944789337	18252.5
3197.7177115795	18238
3199.6954471129	18205.25
3201.67265473114	18323
3203.64933467153	18165
3205.62548717107	18260.5
3207.60111246648	18377.75
3209.57621079421	18243.25
3211.55078239041	18365.5
3213.52482749093	18224
3215.49834633133	18286.5
3217.4713391469	18471.25
3219.44380617262	18434.5
3221.41574764317	18451.25
3223.38716379296	18363.25
3225.35805485607	18448.75
3227.32842106631	18454.5
3229.29826265718	18703
3231.26757986187	18578.75
3233.2363729133	18677.75
3235.20464204405	18522.25
3237.17238748643	18564.75
3239.13960947243	18542.5
3241.10630823374	18633.25
3243.07248400174	18673.75
3245.03813700748	18901.5
3247.00326748177	18777.25
3248.96787565503	18639.25
3250.93196175742	18742.5
3252.89552601877	18689.75
3254.8585686686	18690
3256.82108993612	18817.5
3258.78309005022	18803
3260.74456923948	18685
3262.70552773215	18751.25
3264.66596575617	18814.25
3266.62588353916	18723.25
3268.58528130843	18592
3270.54415929094	18593.5
3272.50251771336	18730.5
3274.46035680201	18815.75
3276.4176767829	18859
3278.37447788171	18668.5
3280.33076032379	18841.5
3282.28652433416	18697.75
3284.24177013751	18734.25
3286.1964979582	18712.75
3288.15070802027	18744.5
3290.10440054741	18738
3292.05757576298	18569.75
3294.01023389001	18700
3295.96237515119	18806.75
3297.91399976887	18666
3299.86510796506	18760.75
3301.81569996142	18720
3303.76577597932	18684.25
3305.7153362397	18836.5
3307.66438096324	18760.5
3309.61291037024	18721.5
3311.56092468064	18650.5
3313.50842411404	18609.75
3315.45540888971	18753.75
3317.40187922656	18581
3319.34783534315	18675.75
3321.29327745768	18603.5
3323.23820578801	18426
3325.18262055164	18635.25
3327.1265219657	18539
3329.06991024699	18630.25
3331.01278561194	18609.75
3332.95514827662	18520
3334.89699845674	18652.5
3336.83833636766	18506.25
3338.77916222434	18316
3340.71947624143	18573
3342.65927863317	18566
3344.59856961346	18482.5
3346.53734939584	18603.5
3348.47561819344	18454
3350.41337621906	18389.75
3352.35062368513	18460.75
3354.28736080368	18498.5
3356.22358778637	18515.25
3358.15930484452	18411.75
3360.09451218904	18651.75
3362.02921003047	18552.25
3363.96339857898	18553
3365.89707804436	18602.25
3367.83024863602	18461
3369.76291056299	18506
3371.69506403389	18406
3373.62670925699	18475
3375.55784644016	18486.5
3377.4884757909	18504.5
3379.41859751629	18624.75
3381.34821182305	18529
3383.27731891749	18495.25
3385.20591900555	18637.25
3387.13401229276	18655.5
3389.06159898426	18686.75
3390.9886792848	18752.75
3392.91525339872	18743.75
3394.84132152998	18726
3396.76688388213	18759.5
3398.69194065833	18719.5
3400.61649206133	18658
3402.54053829348	18751.75
3404.46407955672	18618.75
3406.3871160526	18597.5
3408.30964798225	18677
3410.23167554639	18630.5
3412.15319894535	18760.75
3414.07421837904	18655.5
3415.99473404695	18672.75
3417.91474614817	18722.75
3419.83425488136	18766
3421.75326044479	18819
3423.67176303631	18720
3425.58976285332	18719.25
3427.50726009282	18775.5
3429.42425495143	18648.5
3431.34074762528	18741
3433.25673831012	18534.75
3435.17222720127	18636.75
3437.08721449362	18606
3439.00170038164	18477.5
3440.91568505936	18651.25
3442.82916872039	18462.75
3444.74215155791	18596.25
3446.65463376468	18534.5
3448.566615533	18525
3450.47809705476	18506.5
3452.3890785214	18422.25
3454.29956012393	18431.75
3456.20954205293	18589.5
3458.11902449853	18442.25
3460.02800765041	18363.5
3461.93649169784	18420.25
3463.84447682962	18309.5
3465.75196323412	18355
3467.65895109925	18345.5
3469.56544061249	18330.75
3471.47143196086	18281.25
3473.37692533093	18280.25
3475.28192090884	18357.5
3477.18641888026	18300.25
3479.09041943039	18326.5
3480.99392274402	18318.25
3482.89692900545	18227.25
3484.79943839853	18298
3486.70145110666	18275.5
3488.60296731277	18167
3490.50398719933	18209
3492.40451094836	18086
3494.30453874141	18155.75
3496.20407075956	18252.25
3498.10310718342	18315
3500.00164819315	18104