200.090469251521	23120
202.974751419364	23306
205.858021632265	23422
208.740280737522	23427
211.621529580445	23545
214.501769004372	23624
217.380999850628	23895
220.259222958593	23923
223.136439165649	23973
226.012649307235	23904
228.887854216822	24485
231.762054725918	24247
234.635251664113	24473
237.507445859023	24926
240.378638136347	24970
243.248829319856	24875
246.118020231373	25223
248.986211690827	25287
251.853404516227	25443
254.719599523657	25614
257.584797527337	25553
260.448999339541	25957
263.312205770686	26022
266.174417629303	25818
269.035635722017	26231
271.89586085361	26223
274.755093826979	26127
277.613335443147	26596
280.470586501312	26461
283.326847798768	26584
286.18212013102	26683
289.036404291687	26730
291.889701072576	26562
294.742011263643	26480
297.593335653049	26487
300.443675027094	26643
303.293030170298	26808
306.141401865367	26850
308.988790893176	26701
311.835198032838	26925
314.680624061637	26702
317.525069755113	26606
320.36853588697	26671
323.211023229181	26576
326.052532551923	26756
328.893064623606	26763
331.732620210886	26816
334.571200078671	27077
337.408804990093	26999
340.245435706565	26750
343.081092987735	27062
345.915777591524	27081
348.749490274149	27526
351.582231790051	27403
354.414002892	27498
357.244804331024	27760
360.074636856445	27789
362.903501215886	27944
365.731398155266	28048
368.558328418816	28156
371.384292749062	28428
374.209291886871	28299
377.033326571409	28438
379.856397540173	28365
382.678505529011	28332
385.499651272066	28530
388.319835501873	28277
391.139058949262	28457
393.957322343455	28501
396.774626412012	28548
399.590971880849	28727
402.406359474259	28895
405.220789914895	29076
408.034263923803	28860
410.846782220402	29086
413.658345522482	28931
416.468954546245	29575
419.278610006279	29422
422.087312615559	29741
424.895063085505	29782
427.701862125904	29957
430.507710444984	29679
433.312608749369	29718
436.116557744146	30035
438.919558132792	30065
441.72161061724	30241
444.522715897858	30011
447.322874673459	30198
450.122087641299	30201
452.920355497093	30129
455.71767893501	30045
458.514058647682	29838
461.30949532622	30210
464.10398966019	30298
466.897542337651	30195
469.690154045117	30344
472.481825467627	30140
475.272557288677	30125
478.062350190282	30403
480.851204852952	30633
483.639121955686	30625
486.426102176009	30689
489.212146189958	30443
491.997254672092	30485
494.781428295473	31141
497.564667731718	31009
500.346973650961	30806
503.12834672188	31052
505.908787611691	31139
508.688296986151	31103
511.466875509572	31020
514.244523844834	31150
517.021242653355	31200
519.797032595132	31404
522.571894328732	31088
525.34582851128	31204
528.118835798493	31359
530.890916844657	30734
533.66207230267	30984
536.432302823987	30760
539.201609058685	30823
541.969991655422	30654
544.737451261476	30676
547.503988522724	30212
550.269604083663	30464
553.034298587396	30176
555.798072675669	30389
558.560926988819	30634
561.322862165851	30595
564.083878844371	30482
566.843977660657	30568
569.603159249605	30655
572.361424244772	30598
575.118773278369	31006
577.875206981241	31231
580.630725982908	31016
583.385330911566	31272
586.139022394078	31240
588.891801055957	31033
591.643667521408	31542
594.394622413318	31224
597.144666353275	31253
599.893799961513	31224
602.642023857012	31267
605.389338657416	31187
608.13574497909	31363
610.881243437093	31225
613.625834645192	31219
616.369519215883	31130
619.112297760377	31163
621.854170888605	31112
624.595139209227	31212
627.335203329614	31398
630.074363855917	31348
632.81262139299	31168
635.549976544439	30998
638.286429912615	31068
641.021982098637	31197
643.756633702364	31550
646.490385322412	31296
649.223237556177	31450
651.955190999809	31391
654.686246248224	31557
657.416403895136	31482
660.145664533012	31601
662.874028753135	31909
665.601497145537	31819
668.328070299073	31810
671.05374880138	31766
673.778533238886	31842
676.502424196839	31804
679.225422259297	31707
681.947528009102	31690
684.66874202793	31568
687.389064896282	31523
690.108497193467	31360
692.827039497622	31500
695.544692385727	31690
698.261456433588	31628
700.97733221585	31387
703.692320305984	31293
706.406421276339	31127
709.119635698082	31242
711.831964141257	31265
714.543407174743	31114
717.253965366306	31107
719.963639282554	31214
722.672429488964	30894
725.380336549907	30915
728.087361028599	31186
730.793503487167	30976
733.498764486595	31117
736.203144586759	30884
738.906644346449	30904
741.609264323313	31185
744.311005073915	31281
747.01186715373	31269
749.711851117123	31051
752.410957517377	31542
755.109186906677	31338
757.806539836135	31368
760.503016855782	31079
763.198618514553	30957
765.893345360349	30812
768.587197939965	31282
771.280176799143	31037
773.972282482569	30911
776.66351553386	30636
779.353876495577	30799
782.043365909243	30664
784.731984315328	30592
787.419732253236	30487
790.106610261368	30367
792.792618877059	30681
795.477758636619	30579
798.162030075316	30708
800.845433727424	30534
803.527970126152	30209
806.209639803714	30512
808.890443291307	30731
811.5703811191	30624
814.249453816264	30588
816.927661910961	30427
819.605005930361	31089
822.281486400606	30516
824.957103846867	30415
827.631858793319	31214
830.305751763137	31032
832.978783278521	30790
835.650953860679	31133
838.322264029851	31017
840.992714305294	31326
843.662305205292	31349
846.331037247159	31143
848.998910947244	31419
851.665926820937	31063
854.332085382674	31121
856.997387145915	31459
859.661832623193	31474
862.325422326067	31371
864.988156765174	31216
867.650036450184	31358
870.311061889847	31309
872.971233591961	30905
875.630552063409	31012
878.28901781013	31297
880.946631337141	31130
883.603393148535	31095
886.259303747486	31115
888.914363636247	31031
891.568573316158	31143
894.22193328767	30797
896.874444050283	30824
899.526106102627	30861
902.176919942417	31154
904.826886066483	30680
907.47600497075	31085
910.124277150257	31231
912.771703099131	31300
915.418283310643	31228
918.064018277177	31098
920.708908490222	30974
923.352954440405	30852
925.996156617489	30994
928.638515510336	30917
931.280031606966	30325
933.920705394522	30567
936.560537359305	30402
939.19952798674	30692
941.837677761394	30548
944.474987167007	30667
947.111456686439	30531
949.747086801736	30473
952.381877994073	30557
955.015830743793	30189
957.648945530419	30666
960.281222832634	30302
962.912663128263	30237
965.543266894337	30267
968.173034607059	30240
970.80196674178	30311
973.430063773072	30249
976.057326174661	30289
978.683754419475	29964
981.309348979625	30175
983.934110326421	30113
986.558038930362	29939
989.181135261147	30045
991.803399787692	30304
994.424832978086	30192
997.045435299653	30252
999.665207218908	30343
1002.2841492016	30365
1004.90226171266	30584
1007.51954521628	30391
1010.13600017584	30405
1012.75162705397	30272
1015.3664263125	30236
1017.98039841251	30579
1020.5935438143	30601
1023.20586297741	30609
1025.81735636063	30689
1028.42802442196	30512
1031.03786761869	30772
1033.64688640732	30976
1036.2550812436	30932
1038.86245258256	31263
1041.46900087844	30791
1044.07472658479	30990
1046.67963015438	31050
1049.28371203926	31222
1051.88697269076	31147
1054.48941255943	30726
1057.09103209513	31098
1059.691831747	31232
1062.29181196343	31130
1064.89097319211	31069
1067.48931587999	31098
1070.08684047333	30977
1072.68354741766	30917
1075.2794371578	30987
1077.87451013787	30910
1080.46876680127	31040
1083.06220759071	30860
1085.65483294822	30677
1088.24664331509	30760
1090.83763913194	31195
1093.4278208387	31060
1096.01718887459	30859
1098.60574367818	31036
1101.19348568732	30887
1103.78041533919	31027
1106.3665330703	31105
1108.95183931646	31088
1111.53633451284	30497
1114.12001909391	30830
1116.70289349349	31507
1119.28495814471	31204
1121.86621348006	31441
1124.44665993134	31555
1127.02629792974	31593
1129.60512790574	31343
1132.18315028919	31358
1134.76036550929	31203
1137.3367739946	31299
1139.912376173	31077
1142.48717247176	30915
1145.06116331749	30984
1147.63434913616	31353
1150.20673035312	31035
1152.77830739307	31426
1155.34908068007	31044
1157.91905063757	31238
1160.48821768838	31209
1163.05658225471	31242
1165.6241447581	30954
1168.19090561951	30990
1170.75686525927	30926
1173.32202409709	31149
1175.88638255206	30783
1178.44994104269	30678
1181.01269998685	30450
1183.57465980182	30620
1186.13582090427	30396
1188.69618371026	30306
1191.25574863529	30587
1193.8145160942	30489
1196.37248650129	30605
1198.92966027025	30331
1201.48603781417	30333
1204.04161954556	30035
1206.59640587635	30221
1209.15039721788	30428
1211.70359398092	30467
1214.25599657564	30401
1216.80760541166	30626
1219.35842089801	30742
1221.90844344314	30783
1224.45767345496	30784
1227.00611134077	30776
1229.55375750736	30968
1232.10061236092	30947
1234.64667630707	31378
1237.1919497509	31393
1239.73643309692	31596
1242.28012674912	31638
1244.82303111089	31556
1247.36514658511	31722
1249.90647357411	31736
1252.44701247964	31770
1254.98676370294	31699
1257.52572764469	32108
1260.06390470506	32083
1262.60129528365	32492
1265.13789977955	32229
1267.67371859128	32698
1270.20875211688	32735
1272.74300075384	32521
1275.2764648991	32564
1277.80914494911	32775
1280.34104129979	32848
1282.87215434652	32485
1285.40248448419	32454
1287.93203210715	32862
1290.46079760927	32213
1292.98878138385	32411
1295.51598382375	32241
1298.04240532127	32306
1300.56804626823	32416
1303.09290705594	32376
1305.6169880752	32194
1308.14028971632	32466
1310.66281236913	32450
1313.18455642292	32357
1315.70552226653	32537
1318.22571028829	32424
1320.74512087603	32682
1323.26375441711	32498
1325.7816112984	32616
1328.29869190629	32495
1330.81499662667	32909
1333.33052584497	32735
1335.84527994613	33096
1338.35925931464	33250
1340.87246433447	33317
1343.38489538916	33390
1345.89655286177	33389
1348.40743713487	33326
1350.91754859059	33344
1353.42688761059	33230
1355.93545457606	33409
1358.44324986772	33246
1360.95027386588	33765
1363.45652695032	33399
1365.96200950043	33569
1368.4667218951	33641
1370.97066451281	33695
1373.47383773156	33291
1375.97624192891	33436
1378.47787748199	33380
1380.97874476746	33731
1383.47884416157	33393
1385.9781760401	32952
1388.4767407784	32998
1390.9745387514	32830
1393.47157033358	32882
1395.96783589898	33197
1398.46333582124	32838
1400.95807047355	33070
1403.45204022865	32921
1405.94524545889	32677
1408.4376865362	32873
1410.92936383205	32770
1413.42027771753	33054
1415.91042856328	33028
1418.39981673955	33376
1420.88844261615	33158
1423.37630656249	33281
1425.86340894757	33244
1428.34975013999	33584
1430.83533050792	33690
1433.32015041912	34017
1435.80421024098	33950
1438.28751034046	34334
1440.77005108411	34440
1443.25183283812	34834
1445.73285596824	35285
1448.21312083984	34886
1450.69262781791	35047
1453.17137726702	35110
1455.64936955137	35137
1458.12660503477	35278
1460.60308408063	35364
1463.07880705198	35360
1465.55377431145	35475
1468.02798622133	35558
1470.50144314349	35204
1472.97414543941	35343
1475.44609347025	35414
1477.91728759673	35452
1480.38772817924	35989
1482.85741557777	35695
1485.32635015194	35539
1487.79453226103	35617
1490.26196226392	35601
1492.72864051911	35742
1495.1945673848	35401
1497.65974321875	35797
1500.1241683784	35514
1502.58784322083	35584
1505.05076810274	35460
1507.51294338049	35482
1509.97436941009	35688
1512.43504654718	35675
1514.89497514704	35620
1517.35415556462	35580
1519.8125881545	35977
1522.27027327095	35372
1524.72721126785	35697
1527.18340249875	35855
1529.63884731684	36170
1532.09354607502	35980
1534.5474991258	36077
1537.00070682136	36297
1539.45316951355	35794
1541.90488755388	36065
1544.35586129354	35912
1546.80609108336	36234
1549.25557727385	36171
1551.70432021519	36274
1554.15232025725	36349
1556.59957774954	36221
1559.04609304125	36458
1561.49186648127	36409
1563.93689841815	36259
1566.38118920011	36560
1568.82473917506	36566
1571.2675486906	36941
1573.70961809399	37231
1576.15094773219	37007
1578.59153795185	37110
1581.03138909928	37275
1583.47050152051	37254
1585.90887556123	37220
1588.34651156686	37564
1590.78340988246	37736
1593.21957085283	37898
1595.65499482245	38225
1598.08968213547	38184
1600.52363313578	37946
1602.95684816695	38068
1605.38932757224	37728
1607.82107169462	37431
1610.25208087678	37329
1612.68235546107	37533
1615.1118957896	37141
1617.54070220415	37082
1619.96877504622	36993
1622.39611465702	37111
1624.82272137746	37342
1627.24859554818	37286
1629.67373750953	37351
1632.09814760155	37284
1634.52182616404	37085
1636.94477353648	37608
1639.36699005807	37444
1641.78847606776	37632
1644.20923190419	37350
1646.62925790573	37488
1649.04855441048	37546
1651.46712175628	37876
1653.88496028066	38058
1656.3020703209	38138
1658.71845221401	38144
1661.13410629671	38432
1663.54903290548	38890
1665.96323237649	38737
1668.37670504571	38621
1670.78945124877	38744
1673.20147132109	39149
1675.61276559779	39629
1678.02333441377	39430
1680.43317810362	39406
1682.84229700171	40008
1685.25069144213	39851
1687.65836175872	39720
1690.06530828507	40024
1692.47153135451	39986
1694.8770313001	40128
1697.28180845468	40082
1699.6858631508	40309
1702.08919572081	40363
1704.49180649676	40654
1706.89369581049	40575
1709.29486399356	40583
1711.69531137731	40620
1714.09503829282	40370
1716.49404507096	40464
1718.89233204229	40716
1721.28989953721	40548
1723.68674788581	40438
1726.08287741798	40413
1728.47828846338	40816
1730.87298135139	40151
1733.26695641119	41082
1735.66021397173	40507
1738.05275436169	40263
1740.44457790955	40734
1742.83568494355	40610
1745.22607579168	41017
1747.61575078175	40638
1750.00471024128	41221
1752.39295449761	41021
1754.78048387783	40486
1757.16729870881	40924
1759.5533993172	41081
1761.93878602942	41110
1764.32345917168	40935
1766.70741906995	41260
1769.09066604999	41377
1771.47320043736	41657
1773.85502255735	41711
1776.2361327351	41318
1778.61653129548	41376
1780.99621856318	41545
1783.37519486264	41933
1785.75346051813	42056
1788.13101585368	42112
1790.50786119311	42312
1792.88399686002	42231
1795.25942317785	41957
1797.63414046977	42503
1800.00814905878	42360
1802.38144926766	42346
1804.75404141898	42685
1807.12592583514	42363
1809.49710283829	43170
1811.86757275039	42846
1814.23733589322	43012
1816.60639258834	43021
1818.97474315712	43068
1821.34238792073	43247
1823.70932720012	43306
1826.07556131608	43333
1828.44109058918	43307
1830.8059153398	43266
1833.17003588812	43351
1835.53345255413	43236
1837.89616565765	43899
1840.25817551827	43653
1842.61948245541	44044
1844.9800867883	43797
1847.33998883598	44141
1849.6991889173	44110
1852.05768735091	44773
1854.4154844553	44458
1856.77258054875	44511
1859.12897594938	44803
1861.48467097511	44788
1863.83966594367	44558
1866.19396117261	44726
1868.54755697932	44785
1870.90045368099	45514
1873.25265159463	45347
1875.60415103708	45599
1877.95495232501	46143
1880.30505577487	46089
1882.65446170299	46502
1885.00317042549	46847
1887.35118225832	46791
1889.69849751726	46873
1892.04511651792	46636
1894.39103957574	47229
1896.73626700596	47437
1899.08079912369	47559
1901.42463624384	47744
1903.76777868116	47567
1906.11022675025	48196
1908.4519807655	47904
1910.79304104117	48128
1913.13340789134	48548
1915.47308162993	47962
1917.81206257067	48218
1920.15035102718	48361
1922.48794731286	48420
1924.82485174096	48653
1927.16106462461	48503
1929.49658627672	48521
1931.83141701008	48698
1934.1655571373	48406
1936.49900697085	48566
1938.83176682301	48658
1941.16383700594	48528
1943.49521783161	48622
1945.82590961186	48571
1948.15591265835	48108
1950.48522728262	48391
1952.81385379602	48428
1955.14179250976	48109
1957.46904373489	48468
1959.79560778233	48494
1962.12148496284	48425
1964.44667558701	48377
1966.77117996529	48481
1969.094998408	48734
1971.41813122527	48899
1973.74057872714	49263
1976.06234122345	49469
1978.38341902391	48957
1980.7038124381	49402
1983.02352177544	49491
1985.34254734518	49383
1987.66088945649	49884
1989.97854841833	50190
1992.29552453956	50092
1994.61181812887	49998
1996.92742949483	50243
1999.24235894586	50787
2001.55660679023	50886
2003.87017333609	51040
2006.18305889143	51404
2008.49526376413	51361
2010.80678826189	51367
2013.1176326923	51831
2015.42779736282	52234
2017.73728258075	52149
2020.04608865326	51987
2022.35421588741	52335
2024.66166459008	53224
2026.96843506807	53112
2029.274527628	53516
2031.57994257638	53791
2033.88468021957	53529
2036.18874086383	53478
2038.49212481526	53845
2040.79483237983	54196
2043.0968638634	54252
2045.39821957169	54234
2047.69889981028	54431
2049.99890488462	54502
2052.29823510007	54602
2054.59689076181	54470
2056.89487217492	54916
2059.19217964437	54539
2061.48881347497	54941
2063.7847739714	55447
2066.08006143827	55497
2068.37467618	55116
2070.66861850093	55100
2072.96188870527	55605
2075.25448709708	55807
2077.54641398031	55601
2079.83766965881	56305
2082.12825443629	55828
2084.41816861634	56093
2086.70741250242	56201
2088.99598639789	56517
2091.28389060597	56303
2093.57112542978	56408
2095.85769117232	56854
2098.14358813644	57031
2100.42881662491	56696
2102.71337694037	57133
2104.99726938533	57124
2107.28049426219	56877
2109.56305187326	57402
2111.84494252069	57822
2114.12616650655	58140
2116.40672413278	57817
2118.68661570121	57643
2120.96584151355	58660
2123.24440187139	58845
2125.52229707622	58837
2127.79952742943	58555
2130.07609323227	59156
2132.35199478588	59241
2134.62723239132	59292
2136.90180634949	59392
2139.17571696123	59497
2141.44896452723	59811
2143.72154934809	60017
2145.9934717243	60206
2148.26473195623	59906
2150.53533034415	60449
2152.80526718822	60982
2155.07454278848	60378
2157.3431574449	60245
2159.61111145728	60608
2161.87840512538	60485
2164.1450387488	60643
2166.41101262707	61263
2168.67632705959	61017
2170.94098234567	60696
2173.20497878451	61069
2175.4683166752	61339
2177.73099631673	61218
2179.99301800797	60893
2182.25438204773	61025
2184.51508873466	60813
2186.77513836735	60976
2189.03453124427	61582
2191.29326766378	61373
2193.55134792416	61294
2195.80877232355	61855
2198.06554116004	61753
2200.32165473157	61466
2202.577113336	61579
2204.83191727111	62067
2207.08606683453	62261
2209.33956232384	62539
2211.59240403649	62191
2213.84459226982	62493
2216.09612732112	62723
2218.34700948753	62402
2220.59723906612	62964
2222.84681635385	62907
2225.09574164758	62839
2227.34401524408	63255
2229.59163744002	63189
2231.83860853197	63475
2234.08492881639	63472
2236.33059858968	63331
2238.5756181481	64394
2240.81998778785	64626
2243.06370780499	64269
2245.30677849555	64780
2247.54920015539	64905
2249.79097308033	64772
2252.03209756607	65222
2254.27257390822	64724
2256.51240240228	64987
2258.75158334369	65535
2260.99011702777	65492
2263.22800374976	65535
2265.46524380477	65535
2267.70183748787	65535
2269.93778509399	65535
2272.17308691801	65535
2274.40774325467	65535
2276.64175439866	65535
2278.87512064454	65535
2281.10784228682	65535
2283.33991961987	65535
2285.571352938	65535
2287.80214253541	65535
2290.03228870623	65535
2292.26179174449	65535
2294.4906519441	65535
2296.71886959893	65535
2298.94644500271	65535
2301.1733784491	65535
2303.39967023169	65535
2305.62532064395	65535
2307.85032997926	65535
2310.07469853093	65535
2312.29842659216	65535
2314.52151445608	65535
2316.7439624157	65535
2318.96577076398	65535
2321.18693979374	65535
2323.40746979777	65535
2325.62736106873	65535
2327.8466138992	65535
2330.06522858166	65535
2332.28320540853	65535
2334.50054467212	65535
2336.71724666465	65535
2338.93331167827	65535
2341.14874000501	65535
2343.36353193685	65535
2345.57768776564	65535
2347.79120778319	65535
2350.00409228117	65535
2352.21634155121	65535
2354.42795588482	65535
2356.63893557343	65535
2358.84928090839	65535
2361.05899218094	65535
2363.26806968228	65535
2365.47651370347	65535
2367.68432453552	65535
2369.89150246933	65535
2372.09804779571	65535
2374.30396080541	65535
2376.50924178907	65535
2378.71389103725	65535
2380.91790884042	65535
2383.12129548898	65535
2385.32405127321	65535
2387.52617648332	65535
2389.72767140946	65535
2391.92853634165	65535
2394.12877156985	65535
2396.32837738393	65535
2398.52735407365	65535
2400.72570192873	65535
2402.92342123875	65535
2405.12051229325	65535
2407.31697538167	65535
2409.51281079334	65535
2411.70801881751	65535
2413.90259974339	65535
2416.09655386005	65535
2418.28988145648	65535
2420.48258282163	65535
2422.6746582443	65535
2424.86610801325	65535
2427.05693241713	65535
2429.24713174452	65535
2431.43670628389	65535
2433.62565632365	65535
2435.81398215213	65535
2438.00168405752	65535
2440.18876232799	65535
2442.37521725158	65535
2444.56104911628	65535
2446.74625820994	65535
2448.93084482038	65535
2451.1148092353	65535
2453.29815174233	65535
2455.480872629	65535
2457.66297218276	65535
2459.84445069097	65535
2462.02530844092	65535
2464.2055457198	65535
2466.38516281471	65535
2468.56416001267	65535
2470.74253760061	65535
2472.92029586537	65535
2475.09743509372	65535
2477.27395557232	65535
2479.44985758777	65535
2481.62514142655	65535
2483.79980737509	65535
2485.97385571969	65535
2488.1472867466	65535
2490.32010074198	65535
2492.49229799188	65535
2494.66387878228	65535
2496.83484339905	65535
2499.00519212802	65535
2501.17492525489	65535
2503.34404306528	65535
2505.51254584473	65535
2507.6804338787	65535
2509.84770745254	65535
2512.01436685153	65535
2514.18041236085	65535
2516.34584426561	65535
2518.51066285081	65535
2520.67486840138	65535
2522.83846120214	65535
2525.00144153785	65535
2527.16380969314	65535
2529.32556595261	65535
2531.48671060072	65535
2533.64724392186	65535
2535.80716620033	65535
2537.96647772035	65535
2540.12517876602	65535
2542.2832696214	65535
2544.44075057041	65535
2546.59762189692	65535
2548.75388388467	65535
2550.90953681735	65535
2553.06458097853	65535
2555.21901665172	65535
2557.37284412031	65535
2559.5260636676	65535
2561.67867557684	65535
2563.83068013113	65535
2565.98207761352	65535
2568.13286830695	65535
2570.28305249429	65535
2572.43263045829	65535
2574.58160248163	65535
2576.72996884689	65535
2578.87772983656	65535
2581.02488573303	65535
2583.1714368186	65535
2585.3173833755	65535
2587.46272568582	65535
2589.60746403161	65535
2591.75159869479	65535
2593.89512995722	65535
2596.03805810062	65535
2598.18038340665	65535
2600.32210615686	65535
2602.46322663274	65535
2604.60374511563	65535
2606.74366188683	65535
2608.88297722751	65535
2611.02169141875	65535
2613.15980474156	65535
2615.29731747681	65535
2617.43422990532	65535
2619.57054230779	65535
2621.70625496483	65535
2623.84136815695	65535
2625.97588216456	65535
2628.10979726799	65535
2630.24311374746	65535
2632.3758318831	65535
2634.50795195493	65535
2636.6394742429	65535
2638.77039902682	65535
2640.90072658645	65535
2643.0304572014	65535
2645.15959115123	65535
2647.28812871538	65535
2649.41607017319	65535
2651.5434158039	65535
2653.67016588665	65535
2655.79632070049	65535
2657.92188052436	65535
2660.04684563712	65535
2662.17121631749	65535
2664.29499284413	65535
2666.41817549558	65535
2668.54076455028	65535
2670.66276028656	65535
2672.78416298267	65535
2674.90497291675	65535
2677.02519036682	65535
2679.14481561082	65535
2681.26384892658	65535
2683.38229059183	65535
2685.50014088417	65535
2687.61740008115	65535
2689.73406846017	65535
2691.85014629854	65535
2693.96563387347	65535
2696.08053146206	65535
2698.1948393413	65535
2700.3085577881	65535
2702.42168707924	65535
2704.53422749139	65535
2706.64617930112	65535
2708.75754278492	65535
2710.86831821914	65535
2712.97850588002	65535
2715.08810604372	65535
2717.19711898628	65535
2719.30554498363	65535
2721.41338431159	65535
2723.52063724587	65535
2725.62730406207	65535
2727.73338503569	65535
2729.83888044213	65535
2731.94379055665	65535
2734.04811565441	65535
2736.15185601048	65535
2738.25501189979	65535
2740.35758359718	65535
2742.45957137738	65535
2744.56097551499	65535
2746.6617962845	65535
2748.7620339603	65535
2750.86168881666	65535
2752.96076112774	65535
2755.05925116759	65535
2757.15715921013	65535
2759.25448552917	65535
2761.35123039843	65535
2763.44739409148	65535
2765.54297688181	65535
2767.63797904275	65535
2769.73240084756	65535
2771.82624256935	65535
2773.91950448113	65535
2776.01218685579	65535
2778.10428996609	65535
2780.1958140847	65535
2782.28675948414	65535
2784.37712643683	65535
2786.46691521507	65535
2788.55612609103	65535
2790.64475933678	65535
2792.73281522425	65535
2794.82029402525	65535
2796.90719601149	65535
2798.99352145453	65535
2801.07927062583	65535
2803.16444379672	65535
2805.24904123841	65535
2807.33306322197	65535
2809.41651001838	65535
2811.49938189847	65535
2813.58167913296	65535
2815.66340199243	65535
2817.74455074734	65535
2819.82512566805	65535
2821.90512702475	65535
2823.98455508754	65535
2826.06341012637	65535
2828.14169241109	65535
2830.2194022114	65535
2832.29653979686	65535
2834.37310543694	65535
2836.44909940096	65535
2838.52452195811	65535
2840.59937337745	65535
2842.67365392791	65535
2844.7473638783	65535
2846.82050349728	65535
2848.8930730534	65535
2850.96507281507	65535
2853.03650305056	65535
2855.10736402802	65535
2857.17765601545	65535
2859.24737928075	65535
2861.31653409164	65535
2863.38512071574	65535
2865.45313942054	65535
2867.52059047335	65535
2869.58747414139	65535
2871.65379069173	65535
2873.7195403913	65535
2875.78472350688	65535
2877.84934030515	65535
2879.91339105262	65535
2881.97687601567	65535
2884.03979546054	65535
2886.10214965333	65535
2888.16393886001	65535
2890.22516334639	65535
2892.28582337816	65535
2894.34591922087	65535
2896.40545113992	65535
2898.46441940054	65535
2900.52282426787	65535
2902.58066600687	65535
2904.63794488237	65535
2906.69466115906	65535
2908.75081510147	65535
2910.806406974	65535
2912.86143704089	65535
2914.91590556626	65535
2916.96981281405	65535
2919.02315904807	65535
2921.07594453199	65535
2923.12816952932	65535
2925.17983430343	65535
2927.23093911753	65535
2929.28148423469	65535
2931.33146991782	65535
2933.3808964297	65535
2935.42976403294	65535
2937.47807299	65535
2939.5258235632	65535
2941.57301601469	65535
2943.61965060648	65535
2945.66572760042	65535
2947.71124725823	65535
2949.75620984144	65535
2951.80061561143	65535
2953.84446482945	65535
2955.88775775656	65535
2957.9304946537	65535
2959.97267578162	65535
2962.01430140095	65535
2964.05537177211	65535
2966.09588715541	65535
2968.13584781097	65535
2970.17525399875	65535
2972.21410597859	65535
2974.25240401012	65535
2976.29014835283	65535
2978.32733926604	65535
2980.36397700893	65535
2982.40006184049	65535
2984.43559401955	65535
2986.4705738048	65535
2988.50500145474	65535
2990.53887722771	65535
2992.57220138189	65535
2994.6049741753	65535
2996.63719586576	65535
2998.66886671097	65535
3000.69998696843	65535
3002.73055689549	65535
3004.7605767493	65535
3006.79004678688	65535
3008.81896726505	65535
3010.84733844048	65535
3012.87516056966	65535
3014.9024339089	65535
3016.92915871434	65535
3018.95533524196	65535
3020.98096374756	65535
3023.00604448676	65535
3025.030577715	65535
3027.05456368757	65535
3029.07800265956	65535
3031.10089488589	65535
3033.12324062131	65535
3035.14504012038	65535
3037.16629363749	65535
3039.18700142685	65535
3041.20716374249	65535
3043.22678083826	65535
3045.24585296783	65535
3047.26438038468	65535
3049.28236334212	65535
3051.29980209329	65535
3053.31669689111	65535
3055.33304798835	65535
3057.34885563757	65535
3059.36412009117	65535
3061.37884160135	65535
3063.39302042012	65535
3065.40665679932	65535
3067.41975099059	65535
3069.43230324538	65535
3071.44431381495	65535
3073.45578295041	65535
3075.46671090261	65535
3077.47709792227	65535
3079.48694425989	65535
3081.49625016579	65535
3083.50501589008	65535
3085.51324168271	65535
3087.5209277934	65535
3089.52807447169	65535
3091.53468196695	65535
3093.54075052832	65535
3095.54628040476	65535
3097.55127184503	65535
3099.55572509769	65535
3101.55964041111	65535
3103.56301803346	65535
3105.5658582127	65535
3107.56816119661	65535
3109.56992723275	65535
3111.5711565685	65535
3113.57184945101	65535
3115.57200612724	65535
3117.57162684397	65535
3119.57071184775	65535
3121.56926138493	65535
3123.56727570166	65535
3125.56475504389	65535
3127.56169965735	65535
3129.55810978757	65535
3131.55398567988	65535
3133.54932757938	65535
3135.54413573099	65535
3137.53841037939	65535
3139.53215176909	65535
3141.52536014435	65535
3143.51803574925	65535
3145.51017882762	65535
3147.50178962312	65535
3149.49286837916	65535
3151.48341533897	65535
3153.47343074553	65535
3155.46291484164	65535
3157.45186786985	65535
3159.44029007252	65535
3161.42818169179	65535
3163.41554296956	65535
3165.40237414753	65535
3167.38867546717	65535
3169.37444716976	65535
3171.35968949631	65535
3173.34440268765	65535
3175.32858698436	65535
3177.31224262683	65535
3179.29536985518	65535
3181.27796890934	65535
3183.26004002902	65535
3185.24158345368	65535
3187.22259942256	65535
3189.2030881747	65535
3191.18304994886	65535
3193.16248498363	65535
3195.14139351733	65535
3197.11977578807	65535
3199.09763203372	65535
3201.07496249191	65535
3203.05176740007	65535
3205.02804699537	65535
3207.00380151475	65535
3208.97903119493	65535
3210.95373627239	65535
3212.92791698335	65535
3214.90157356383	65535
3216.8747062496	65535
3218.84731527619	65535
3220.81940087889	65535
3222.79096329275	65535
3224.76200275259	65535
3226.73251949298	65535
3228.70251374826	65535
3230.67198575251	65535
3232.64093573959	65535
3234.6093639431	65535
3236.57727059641	65535
3238.54465593262	65535
3240.51152018462	65535
3242.47786358502	65535
3244.44368636621	65535
3246.40898876032	65535
3248.37377099923	65535
3250.33803331458	65535
3252.30177593775	65535
3254.26499909988	65535
3256.22770303184	65535
3258.18988796427	65535
3260.15155412755	65535
3262.1127017518	65535
3264.0733310669	65535
3266.03344230246	65535
3267.99303568784	65535
3269.95211145215	65535
3271.91066982422	65535
3273.86871103267	65535
3275.82623530581	65535
3277.78324287171	65535
3279.73973395818	65535
3281.69570879278	65535
3283.65116760281	65535
3285.60611061527	65535
3287.56053805694	65535
3289.51445015432	65535
3291.46784713364	65535
3293.42072922088	65535
3295.37309664173	65535
3297.32494962163	65535
3299.27628838576	65535
3301.22711315901	65535
3303.17742416601	65535
3305.12722163114	65535
3307.07650577848	65535
3309.02527683185	65535
3310.9735350148	65535
3312.9212805506	65535
3314.86851366225	65535
3316.81523457249	65535
3318.76144350377	65535
3320.70714067825	65535
3322.65232631784	65535
3324.59700064415	65535
3326.54116387854	65535
3328.48481624207	65535
3330.42795795552	65535
3332.37058923938	65535
3334.31271031389	65535
3336.25432139899	65535
3338.19542271433	65535
3340.13601447927	65535
3342.07609691292	65535
3344.01567023407	65535
3345.95473466125	65535
3347.89329041266	65535
3349.83133770628	65535
3351.76887675973	65535
3353.70590779039	65535
3355.64243101534	65535
3357.57844665135	65535
3359.51395491492	65535
3361.44895602224	65535
3363.38345018922	65535
3365.31743763148	65535
3367.25091856432	65535
3369.18389320278	65535
3371.11636176156	65535
3373.0483244551	65535
3374.97978149754	65535
3376.91073310269	65535
3378.84117948409	65535
3380.77112085498	65535
3382.70055742827	65535
3384.62948941659	65535
3386.55791703227	65535
3388.48584048733	65535
3390.41325999348	65535
3392.34017576214	65535
3394.26658800441	65535
3396.19249693107	65535
3398.11790275263	65535
3400.04280567926	65535
3401.96720592084	65535
3403.89110368692	65535
3405.81449918675	65535
3407.73739262928	65535
3409.65978422312	65535
3411.58167417659	65535
3413.50306269768	65535
3415.42394999408	65535
3417.34433627316	65535
3419.26422174196	65535
3421.18360660721	65535
3423.10249107532	65535
3425.0208753524	65535
3426.93875964421	65535
3428.85614415621	65535
3430.77302909353	65535
3432.68941466097	65535
3434.60530106302	65535
3436.52068850384	65535
3438.43557718726	65535
3440.34996731681	65535
3442.26385909565	65535
3444.17725272664	65535
3446.09014841231	65535
3448.00254635485	65535
3449.91444675614	65535
3451.82584981771	65535
3453.73675574076	65535
3455.64716472616	65535
3457.55707697445	65535
3459.46649268584	65535
3461.37541206019	65535
3463.28383529703	65535
3465.19176259556	65535
3467.09919415464	65535
3469.00613017278	65535
3470.91257084817	65535
3472.81851637863	65535
3474.72396696168	65535
3476.62892279446	65535
3478.5333840738	65535
3480.43735099614	65535
3482.34082375764	65535
3484.24380255404	65535
3486.1462875808	65535
3488.048279033	65535
3489.94977710537	65535
3491.85078199231	65535
3493.75129388784	65535
3495.65131298566	65535
3497.5508394791	65535
3499.44987356115	65535