201.866871357051	11064.75
204.754250281454	11168
207.640596790938	11103.75
210.525911876299	11150.25
213.410196525689	11141.75
216.293451724508	11136.5
219.175678455485	11221.25
222.056877698662	11173.75
224.937050431388	11138.25
227.816197628363	11279
230.694320261602	11272.75
233.571419300504	11295.25
236.447495711764	11348.5
239.322550459507	11280
242.196584505182	11475
245.069598807626	11396.75
247.941594323078	11403.75
250.812572005154	11461
253.682532804884	11488.5
256.551477670699	11526.75
259.419407548456	11577.75
262.286323381439	11579.25
265.152226110364	11585.75
268.017116673389	11545.5
270.880996006115	11579.25
273.743865041622	11588.75
276.605724710436	11576.25
279.466575940562	11630.25
282.326419657496	11657.5
285.1852567842	11626.25
288.043088241157	11679.75
290.899914946349	11667
293.75573781526	11701.75
296.610557760898	11758.75
299.464375693817	11813
302.317192522078	11748.75
305.169009151297	11742
308.019826484655	11740
310.86964542287	11811.75
313.718466864233	11695.75
316.566291704614	11687.25
319.413120837457	11794
322.258955153804	11720.25
325.103795542291	11684
327.947642889128	11773.25
330.79049807819	11831.5
333.632361990927	11790.75
336.473235506444	11788.25
339.31311950145	11823.5
342.152014850322	11744.5
344.989922425062	12022.75
347.826843095354	11940.75
350.662777728528	11940.25
353.497727189577	11976
356.331692341195	12005.5
359.164674043732	12095.25
361.996673155267	12079.75
364.827690531536	12170
367.65772702602	12115.25
370.486783489887	12181
373.314860772047	12261
376.14195971912	12160.5
378.968081175466	12155.75
381.793225983212	12204.5
384.617394982201	12217.75
387.44058901005	12186.5
390.262808902131	12165.75
393.08405549161	12183.5
395.904329609395	12225.25
398.723632084213	12202.5
401.541963742569	12152
404.359325408779	12241.25
407.175717904938	12196
409.991142050982	12263.5
412.805598664665	12301
415.619088561551	12315.25
418.43161255505	12351.75
421.243171456415	12340.5
424.053766074758	12511.25
426.863397217017	12472.75
429.672065688024	12410.75
432.479772290455	12490.75
435.286517824879	12532.5
438.092303089736	12575.5
440.897128881359	12549.5
443.70099599399	12599.75
446.503905219761	12549.25
449.305857348711	12552
452.106853168796	12486.75
454.906893465919	12491.5
457.705979023885	12495.5
460.504110624439	12480.5
463.3012890473	12429.75
466.097515070087	12370.25
468.892789468424	12298.75
471.687113015869	12375.25
474.48048648395	12329
477.272910642198	12359.75
480.064386258109	12415
482.854914097159	12398
485.644494922839	12394
488.433129496636	12480
491.220818578047	12460.25
494.007562924584	12543.75
496.793363291785	12606.75
499.578220433217	12650.5
502.362135100473	12612
505.145108043209	12627.25
507.927140009098	12662.5
510.708231743909	12687.25
513.488383991433	12605.25
516.267597493556	12745
519.04587299022	12731
521.82321121946	12707.25
524.599612917398	12628.5
527.375078818233	12734.25
530.149609654287	12645.5
532.923206155967	12595.5
535.695869051804	12567.75
538.467599068448	12566.5
541.238396930665	12647.25
544.008263361364	12547.25
546.777199081578	12464.25
549.545204810493	12529.75
552.312281265436	12475.75
555.078429161898	12535.75
557.843649213533	12573.25
560.607942132156	12454
563.371308627753	12575.25
566.133749408495	12636.25
568.895265180756	12705.75
571.655856649064	12694
574.415524516189	12766
577.174269483075	12738.25
579.932092248884	12760.25
582.688993510994	12955.75
585.444973965023	12832.25
588.200034304795	12826.5
590.95417522237	12894.25
593.70739740807	12867.75
596.459701550433	12954.5
599.21108833628	12865
601.961558450668	12818.75
604.711112576933	12850.25
607.459751396673	12783.25
610.207475589748	12719.5
612.954285834338	12872.75
615.700182806879	12687.75
618.445167182101	12723.75
621.189239633055	12600.75
623.932400831087	12668.75
626.674651445839	12558.5
629.415992145303	12540.25
632.156423595745	12561.75
634.895946461813	12460.75
637.634561406449	12573.25
640.37226909096	12526.75
643.109070174978	12556.5
645.844965316508	12602.75
648.579955171888	12593
651.314040395846	12544.75
654.047221641456	12556.25
656.779499560176	12634.5
659.510874801828	12704
662.241348014642	12632.25
664.97091984524	12703.25
667.699590938606	12704.25
670.427361938164	12725.75
673.15423348573	12641.75
675.880206221526	12769.75
678.605280784206	12763
681.329457810829	12711.75
684.05273793692	12682
686.775121796389	12773.75
689.49661002163	12764.5
692.217203243454	12804.75
694.936902091144	12750.75
697.655707192425	12655.25
700.373619173493	12646.5
703.09063865901	12560.5
705.806766272093	12592.5
708.522002634378	12707.25
711.236348365946	12633.75
713.94980408538	12560.75
716.662370409762	12600.75
719.374047954676	12568.5
722.08483733419	12590
724.794739160909	12573
727.503754045949	12611.75
730.21188259892	12615.25
732.919125427998	12641.75
735.625483139855	12680.25
738.330956339723	12656
741.035545631374	12780.5
743.739251617106	12684
746.44207489779	12735.75
749.144016072852	12790
751.845075740272	12803.25
754.545254496603	12881.75
757.244552936976	12815
759.94297165508	12832.25
762.640511243222	12824.75
765.337172292249	12783.75
768.032955391649	12746
770.727861129482	12812.25
773.421890092413	12815.75
776.11504286572	12860.75
778.807320033298	12800.5
781.49872217765	12802.75
784.18924987991	12705.75
786.87890371984	12711.5
789.567684275826	12715.75
792.255592124908	12737.25
794.94262784276	12585
797.628792003703	12628.25
800.314085180715	12545
802.998507945427	12637.75
805.682060868145	12655.75
808.364744517821	12736.5
811.046559462105	12691.25
813.727506267311	12661.75
816.407585498422	12737.75
819.08679771913	12706.75
821.765143491822	12724.5
824.442623377563	12873.5
827.119237936127	12810.25
829.794987726003	12787.25
832.469873304377	12929
835.143895227167	12845
837.817054048985	12808
840.489350323205	12884.75
843.160784601892	12950
845.831357435894	12868.5
848.501069374739	12886
851.169920966753	12919.25
853.837912758987	12884.75
856.505045297232	12953.75
859.171319126071	13008.5
861.836734788823	12979.75
864.501292827579	13077.25
867.164993783208	12950
869.827838195361	12893.75
872.489826602454	12936.75
875.150959541701	13018.75
877.811237549104	12791.75
880.470661159456	13003.25
883.129230906357	12958.25
885.786947322205	12828.25
888.443810938206	12906
891.099822284385	12905.25
893.754981889586	12931.25
896.409290281452	12963.25
899.062747986485	13048.25
901.715355529999	13074.75
904.367113436154	12910.5
907.01802222793	13053
909.668082427172	12894.25
912.317294554574	12985.75
914.965659129659	13091.75
917.613176670835	13035.5
920.259847695364	13103.5
922.90567271936	13088
925.550652257825	13102.25
928.194786824621	13020.75
930.838076932512	13052.25
933.480523093109	13124.75
936.122125816953	13110
938.762885613447	13128.25
941.402802990899	13186.75
944.041878456523	13333.25
946.680112516428	13216.5
949.31750567563	13136
951.954058438081	13357.75
954.589771306633	13262.5
957.224644783048	13339
959.858679368044	13292
962.491875561238	13200.25
965.12423386121	13274.75
967.75575476545	13211.25
970.386438770423	13223.25
973.016286371501	13398.5
975.645298063046	13282.25
978.273474338355	13291
980.900815689674	13278.75
983.527322608243	13291.25
986.152995584245	13321.5
988.777835106834	13364.25
991.401841664148	13354.5
994.025015743307	13327
996.647357830407	13272.5
999.268868410534	13350
1001.88954796777	13401.75
1004.50939698518	13404
1007.12841594484	13429
1009.74660532783	13447
1012.36396561423	13562.25
1014.98049728314	13514
1017.59620081267	13481.75
1020.21107667995	13577.75
1022.82512536112	13646.5
1025.43834733138	13638.5
1028.05074306493	13707.75
1030.66231303501	13736.5
1033.27305771392	13814.75
1035.88297757299	13763.5
1038.49207308257	13711.5
1041.10034471211	13718.5
1043.70779293008	13898
1046.31441820402	13867
1048.92022100052	13861
1051.52520178525	13989.5
1054.12936102295	14055.75
1056.73269917742	14103
1059.33521671154	14160.25
1061.93691408729	14190.5
1064.53779176571	14177.75
1067.13785020694	13998
1069.73708987022	14102
1072.33551121386	13993.5
1074.93311469528	13973.5
1077.52990077103	13988.25
1080.12586989674	13946
1082.72102252714	14024.25
1085.31535911611	14012
1087.90888011663	14016
1090.50158598078	14057
1093.09347715979	14083.75
1095.68455410403	14067.75
1098.27481726296	14095.75
1100.86426708523	14110.5
1103.45290401857	14163
1106.04072850991	14142.75
1108.6277410053	14114.25
1111.21394194993	14100
1113.79933178816	14266.5
1116.3839109635	14316.25
1118.96767991862	14360
1121.55063909539	14428.25
1124.13278893477	14634.5
1126.71412987696	14695.75
1129.29466236132	14725.5
1131.87438682637	14652.5
1134.45330370982	14612.5
1137.03141344858	14575.25
1139.60871647872	14546
1142.18521323554	14610
1144.7609041535	14547.5
1147.33578966629	14626
1149.90987020676	14662.75
1152.48314620702	14651.25
1155.05561809835	14738
1157.62728631125	14691
1160.19815127545	14682.5
1162.76821341988	14811
1165.33747317271	14794
1167.90593096133	14805.75
1170.47358721235	14748.75
1173.04044235163	14782.25
1175.60649680425	14762.5
1178.17175099454	14780
1180.73620534607	14789
1183.29986028165	14741.75
1185.86271622336	14705
1188.42477359249	14694.25
1190.98603280964	14784.25
1193.54649429462	14771.25
1196.10615846653	14761
1198.66502574372	14735.25
1201.22309654385	14758.75
1203.78037128378	14835.25
1206.33685037971	14873.25
1208.89253424709	14899.25
1211.44742330063	14812.5
1214.00151795438	14834
1216.55481862163	14871.75
1219.10732571497	14871.75
1221.65903964631	15005.75
1224.20996082683	15035.75
1226.760089667	14959.25
1229.30942657664	15077.25
1231.85797196483	15223.5
1234.40572623998	15190.75
1236.95268980981	15267.75
1239.49886308136	15326.75
1242.04424646098	15322
1244.58884035435	15432.5
1247.13264516647	15517.25
1249.67566130166	15546.75
1252.21788916358	15530.25
1254.75932915524	15667.5
1257.29998167896	15764.5
1259.83984713639	15724.5
1262.37892592857	15792
1264.91721845586	15808.25
1267.45472511795	15941.25
1269.9914463139	15906.5
1272.52738244213	16044.25
1275.0625339004	15905.75
1277.59690108587	16056.5
1280.130484395	16255
1282.66328422367	16069
1285.19530096712	16232.25
1287.72653501993	16404.25
1290.25698677608	16520
1292.78665662894	16853.25
1295.31554497125	16765
1297.8436521951	16790.5
1300.37097869203	16593.25
1302.89752485292	16599
1305.42329106805	16559.25
1307.94827772713	16686.75
1310.47248521921	16703.5
1312.99591393279	16790
1315.51856425575	16771.5
1318.04043657536	16815.5
1320.56153127836	16813.75
1323.08184875083	17003
1325.6013893783	17022
1328.12015354572	17310.5
1330.63814163744	17294.75
1333.15535403727	17217.25
1335.67179112839	17436.5
1338.18745329347	17502
1340.70234091454	17563.25
1343.21645437314	17551.75
1345.72979405019	17681.5
1348.24236032607	17782.5
1350.75415358059	18033.25
1353.26517419303	18043
1355.7754225421	18018.25
1358.28489900594	18226.75
1360.79360396218	18347.25
1363.30153778787	18301.5
1365.80870085955	18273.75
1368.31509355319	18331.5
1370.82071624424	18345.25
1373.32556930762	18451.75
1375.8296531177	18406.75
1378.33296804832	18492.5
1380.83551447282	18539
1383.33729276399	18493
1385.83830329408	18493.75
1388.33854643489	18574.5
1390.83802255762	18601.75
1393.33673203301	18567
1395.83467523128	18624
1398.33185252211	18553.5
1400.82826427471	18758.75
1403.32391085777	18618.5
1405.81879263947	18876.5
1408.31290998752	18948.25
1410.80626326908	18843.5
1413.29885285087	19036.5
1415.79067909909	19143.25
1418.28174237944	19254.75
1420.77204305717	19448.25
1423.26158149702	19405.75
1425.75035806323	19592.25
1428.2383731196	19756.5
1430.72562702942	19895.5
1433.21212015554	20090
1435.69785286028	20270.5
1438.18282550555	20801.25
1440.66703845275	20729.5
1443.15049206284	20763.25
1445.6331866963	20836.75
1448.11512271316	20998.5
1450.59630047298	21134
1453.07672033486	21214.25
1455.55638265748	21339.5
1458.03528779902	21528.75
1460.51343611725	21568.75
1462.99082796946	21742
1465.46746371252	21687
1467.94334370285	21833.25
1470.41846829642	21780.25
1472.89283784878	22072
1475.36645271503	22154
1477.83931324983	22156.5
1480.31141980743	22291.5
1482.78277274164	22419.25
1485.25337240583	22259.25
1487.72321915297	22340.25
1490.19231333557	22457.25
1492.66065530578	22466.5
1495.12824541525	22706.25
1497.5950840153	22801.75
1500.06117145678	22794.75
1502.52650809014	23016.25
1504.99109426543	23065.25
1507.45493033227	23258.5
1509.91801663992	23254
1512.38035353717	23534.25
1514.84194137248	23485.25
1517.30278049386	23706
1519.76287124894	23840.75
1522.22221398497	23879.75
1524.68080904876	23983.5
1527.13865678681	24169.25
1529.59575754514	24378.5
1532.05211166945	24645
1534.50771950503	24728.5
1536.96258139678	24874.25
1539.41669768924	25033.5
1541.87006872656	25299.5
1544.32269485252	25310.25
1546.77457641051	25571.75
1549.22571374357	25932.25
1551.67610719434	26168.75
1554.12575710513	26304.25
1556.57466381785	26375
1559.02282767408	26520.25
1561.47024901499	26687.5
1563.91692818144	26905
1566.3628655139	27249
1568.80806135249	27282.5
1571.252516037	27402.25
1573.6962299068	27919
1576.13920330099	27958.25
1578.58143655828	28141.25
1581.02293001704	28372
1583.46368401528	28334
1585.90369889071	28595.25
1588.34297498065	28779.25
1590.7815126221	28890.5
1593.21931215173	29184
1595.65637390588	29269
1598.09269822053	29169.75
1600.52828543135	29414.75
1602.96313587367	29361.5
1605.3972498825	29293.5
1607.83062779252	29232.5
1610.26326993808	29623
1612.69517665322	29608.25
1615.12634827165	29785.75
1617.55678512676	29639
1619.98648755163	29532
1622.41545587902	29735.5
1624.84369044138	29845.5
1627.27119157085	29976.5
1629.69795959924	30030.5
1632.12399485808	30113
1634.54929767859	30266.5
1636.97386839165	30275.75
1639.39770732789	30308.5
1641.8208148176	30471.5
1644.24319119078	30496.25
1646.66483677715	30666.5
1649.0857519061	30815.5
1651.50593690677	31002.75
1653.92539210795	31305
1656.3441178382	31161
1658.76211442575	31338.25
1661.17938219855	31398.75
1663.59592148428	31735.75
1666.01173261032	31707.25
1668.42681590377	32128
1670.84117169145	32109.5
1673.25480029991	32119.5
1675.66770205541	32235
1678.07987728393	32421.75
1680.49132631119	32800.5
1682.90204946263	32785
1685.31204706342	32883.25
1687.72131943846	33160.25
1690.1298669124	33249
1692.53768980957	33667.25
1694.94478845411	33292.5
1697.35116316982	33375.5
1699.75681428031	33504.25
1702.16174210887	33552.5
1704.56594697858	33579.75
1706.96942921222	33796.75
1709.37218913235	33822
1711.77422706125	33751
1714.17554332098	33631.5
1716.5761382333	34083.25
1718.97601211977	33818.75
1721.37516530169	33881
1723.77359810006	33733
1726.17131083572	33893.25
1728.56830382922	34067.25
1730.96457740087	34004.5
1733.36013187075	33673.25
1735.75496755868	33969
1738.14908478428	33938.75
1740.54248386689	33976.5
1742.93516512565	33920.5
1745.32712887946	34245.75
1747.71837544697	34194.25
1750.10890514662	34276.75
1752.49871829661	34286
1754.88781521492	34442.75
1757.27619621929	34588
1759.66386162726	34446.5
1762.05081175612	34490.75
1764.43704692297	34747.75
1766.82256744465	34643.75
1769.20737363782	35132.25
1771.59146581887	34858.25
1773.97484430405	35124.75
1776.35750940932	35317.25
1778.73946145048	35308.5
1781.12070074309	35263.5
1783.50122760249	35659.5
1785.88104234385	35743
1788.26014528209	35835.25
1790.63853673196	35856.5
1793.01621700796	36036.25
1795.39318642443	36263.5
1797.76944529549	36158.5
1800.14499393503	36250.75
1802.51983265681	36197.25
1804.8939617743	36652
1807.26738160085	36933
1809.64009244957	36736.5
1812.01209463339	36593.25
1814.38338846504	37062
1816.75397425706	36644
1819.12385232181	36927.25
1821.49302297142	36980.5
1823.86148651789	37018
1826.22924327299	36973.75
1828.59629354831	37345
1830.96263765526	37037.5
1833.32827590507	37153.25
1835.69320860877	37308.5
1838.05743607724	37502
1840.42095862113	37279.25
1842.78377655097	37281.25
1845.14589017707	37363
1847.50729980956	37527.75
1849.86800575843	37500.5
1852.22800833346	37437
1854.58730784427	37689.25
1856.94590460032	38056
1859.30379891087	37983
1861.66099108503	37899.25
1864.01748143175	38251.75
1866.37327025978	38209.5
1868.72835787773	38198
1871.08274459403	38482.5
1873.43643071697	38548.5
1875.78941655464	38925.5
1878.14170241498	38688.75
1880.4932886058	39058.5
1882.84417543469	39242.5
1885.19436320915	39276.25
1887.54385223646	39294.25
1889.89264282378	39731.25
1892.24073527809	39658.5
1894.58812990625	39843
1896.93482701493	40271.5
1899.28082691067	40227
1901.62612989984	40507.5
1903.97073628868	40525.75
1906.31464638326	40533.5
1908.6578604895	40676.5
1911.00037891321	41082.25
1913.34220196	41304.25
1915.68332993537	41367.25
1918.02376314468	41322
1920.36350189311	41366.25
1922.70254648573	41372.25
1925.04089722744	41354.25
1927.37855442303	41494.25
1929.71551837715	41626.25
1932.05178939426	41316
1934.38736777876	41652.25
1936.72225383484	41464.25
1939.0564478666	42070.5
1941.38995017799	41551.75
1943.72276107283	41717.5
1946.05488085479	41707.25
1948.38630982744	41370
1950.71704829419	41806
1953.04709655832	41630
1955.376454923	41594
1957.70512369126	41691.5
1960.03310316599	41738.25
1962.36039364999	41593.5
1964.68699544589	41599.25
1967.01290885622	41920.25
1969.33813418338	41950.75
1971.66267172965	41862.25
1973.98652179718	42036.5
1976.309684688	42321.5
1978.63216070402	42289.5
1980.95395014705	42779.25
1983.27505331873	42152.5
1985.59547052063	42509.5
1987.9152020542	42614.25
1990.23424822074	42853
1992.55260932146	42498
1994.87028565746	42817.25
1997.18727752968	43094.5
1999.503585239	43384.25
2001.81920908618	43155.5
2004.13414937184	43315.25
2006.44840639651	43921
2008.7619804606	43944
2011.07487186442	44129.5
2013.38708090815	44596.25
2015.6986078919	44335.75
2018.00945311564	44507.5
2020.31961687923	44686.75
2022.62909948246	45091.25
2024.93790122498	45146
2027.24602240636	45190
2029.55346332604	45260.75
2031.86022428337	45436.5
2034.16630557761	45499
2036.47170750791	45487.5
2038.77643037331	45550.75
2041.08047447275	45842.5
2043.38384010509	45575
2045.68652756907	45801.75
2047.98853716335	45702.75
2050.28986918648	45807
2052.59052393692	46034.5
2054.89050171302	45961
2057.18980281306	45989
2059.4884275352	46140.75
2061.78637617753	45954.75
2064.08364903802	45988
2066.38024641457	46024.75
2068.67616860497	46177.75
2070.97141590694	46100.75
2073.26598861809	46198
2075.55988703595	46077.5
2077.85311145796	46189.25
2080.14566218145	46167
2082.43753950371	46282.25
2084.72874372188	46349.25
2087.01927513307	46210.25
2089.30913403428	46314.25
2091.59832072241	46364.75
2093.88683549429	46287
2096.17467864666	46595.25
2098.46185047619	46657.25
2100.74835127944	46766.75
2103.03418135292	46899
2105.31934099303	46605.75
2107.6038304961	46976
2109.88765015838	47047
2112.17080027602	47053.5
2114.45328114513	47126
2116.7350930617	47163
2119.01623632165	47170.25
2121.29671122085	47006.75
2123.57651805505	47215.75
2125.85565711996	47528.25
2128.13412871117	47442
2130.41193312424	47646.25
2132.68907065462	47731.75
2134.96554159771	47887.25
2137.24134624881	47800
2139.51648490317	47994.5
2141.79095785593	47965.75
2144.0647654022	48138
2146.33790783698	48021.5
2148.61038545524	47929.25
2150.88219855182	48501.5
2153.15334742154	48221
2155.42383235911	48484.75
2157.6936536592	48570.5
2159.9628116164	48418
2162.23130652522	48445.5
2164.49913868011	48559
2166.76630837544	48506.75
2169.03281590552	48546.25
2171.2986615646	48545.25
2173.56384564685	48687
2175.82836844637	48552
2178.0922302572	48603
2180.35543137332	48499.75
2182.61797208862	48560.75
2184.87985269695	48498
2187.14107349208	48367.5
2189.40163476773	48710
2191.66153681753	48518.75
2193.92077993507	48314
2196.17936441386	48360.5
2198.43729054735	48483
2200.69455862894	48428.25
2202.95116895194	48412.25
2205.20712180962	48414.75
2207.46241749519	48349.5
2209.71705630179	48570.75
2211.97103852248	48328
2214.2243644503	48395
2216.47703437819	48435.5
2218.72904859905	48321.25
2220.98040740571	48424.5
2223.23111109095	48479
2225.4811599475	48276
2227.73055426799	48392
2229.97929434504	48311
2232.22738047118	48125.75
2234.47481293889	48265.5
2236.72159204058	48473.5
2238.96771806864	48244.25
2241.21319131536	48114.25
2243.458012073	48186.25
2245.70218063374	48217.25
2247.94569728973	48332
2250.18856233304	48067.25
2252.4307760557	47854.25
2254.67233874967	47991.5
2256.91325070687	47997.5
2259.15351221915	47892.25
2261.39312357831	47914
2263.63208507611	47793.5
2265.87039700422	47890.25
2268.1080596543	48015.5
2270.34507331792	47799.75
2272.5814382866	47759
2274.81715485183	47957
2277.05222330502	47957.25
2279.28664393755	47852
2281.52041704072	47725.25
2283.75354290581	47970.75
2285.98602182401	47713
2288.21785408648	47669.75
2290.44903998434	47799
2292.67957980862	47855.25
2294.90947385033	47567.5
2297.1387224004	47619
2299.36732574975	47788.75
2301.59528418921	47665
2303.82259800958	47625
2306.04926750158	47521.75
2308.27529295593	47424.75
2310.50067466325	47567.25
2312.72541291412	47505.25
2314.9495079991	47431.25
2317.17296020866	47241.5
2319.39576983323	47502
2321.61793716322	47325.25
2323.83946248894	47277.25
2326.06034610069	47263.25
2328.28058828871	47246.5
2330.50018934317	47195.75
2332.7191495542	47151.25
2334.93746921192	47114
2337.15514860633	47092.25
2339.37218802743	46958.75
2341.58858776516	46948.25
2343.80434810941	47059.25
2346.01946935001	47022.5
2348.23395177675	46792.75
2350.44779567939	46947
2352.66100134759	46722.75
2354.87356907101	46700
2357.08549913925	46613
2359.29679184185	46514.5
2361.50744746829	46850.5
2363.71746630804	46688.25
2365.92684865048	46405.25
2368.13559478499	46484.5
2370.34370500083	46536.25
2372.55117958727	46416.5
2374.75801883352	46368.75
2376.96422302874	46162.25
2379.16979246202	46217.5
2381.37472742243	46116.75
2383.57902819898	46167.5
2385.78269508063	46017.5
2387.98572835629	45859.75
2390.18812831482	45628
2392.38989524505	45701.75
2394.59102943573	45574
2396.79153117559	45509.5
2398.9914007533	45501.75
2401.19063845748	45531
2403.38924457672	44975.25
2405.58721939951	45179.5
2407.78456321435	44972.75
2409.98127630966	45013.75
2412.17735897382	45243.75
2414.37281149517	44988
2416.56763416198	44913
2418.76182726249	45221.75
2420.95539108487	44727.75
2423.14832591726	44868.75
2425.34063204776	44639
2427.53230976439	44515.5
2429.72335935513	44629.75
2431.91378110795	44505.5
2434.10357531071	44297
2436.29274225125	44523.75
2438.48128221739	44174.25
2440.66919549683	44076.5
2442.8564823773	44146.25
2445.04314314641	44051.75
2447.22917809176	44003.25
2449.4145875009	44185
2451.59937166131	43961.5
2453.78353086044	43676
2455.96706538568	43957
2458.14997552436	43758.25
2460.33226156379	43540.25
2462.51392379119	43409.5
2464.69496249376	43184.75
2466.87537795862	43171.5
2469.05517047288	43206.25
2471.23434032357	43156
2473.41288779767	43280.25
2475.59081318211	42961.75
2477.76811676378	42937.75
2479.9447988295	42818
2482.12085966605	42520.25
2484.29629956016	42448
2486.4711187985	42742.75
2488.64531766769	42951.5
2490.8188964543	42775.5
2492.99185544484	42520
2495.16419492579	42593.25
2497.33591518353	42560.5
2499.50701650444	42370.75
2501.67749917482	42467.75
2503.84736348091	42351
2506.01660970891	42378.25
2508.18523814496	42395.5
2510.35324907514	42435
2512.52064278551	42582.5
2514.68741956201	42465.25
2516.85357969058	43074
2519.01912345709	42715
2521.18405114735	42407
2523.34836304711	42392
2525.51205944208	42475.25
2527.6751406179	42390
2529.83760686016	42626.25
2531.99945845439	42623
2534.16069568606	42600.25
2536.3213188406	42557.5
2538.48132820336	42193.5
2540.64072405965	42611
2542.79950669471	42319.75
2544.95767639373	42738
2547.11523344184	42397.25
2549.27217812411	42375
2551.42851072555	42495.5
2553.58423153111	42359.75
2555.73934082569	42004.75
2557.89383889412	42052.75
2560.04772602118	42048
2562.20100249158	41864.25
2564.35366858996	41805
2566.50572460093	41874.75
2568.65717080901	41638.75
2570.80800749867	41967
2572.95823495433	41646.25
2575.10785346031	41457.25
2577.25686330093	41237.25
2579.40526476038	40909.75
2581.55305812282	41197
2583.70024367237	40880.5
2585.84682169303	40922.75
2587.99279246879	40773.5
2590.13815628354	40828.25
2592.28291342112	40767.5
2594.42706416531	40796.5
2596.5706087998	40795.25
2598.71354760826	41139.5
2600.85588087425	40851.25
2602.99760888127	40714.5
2605.13873191278	40661.75
2607.27925025214	40626
2609.41916418269	40733.75
2611.55847398764	40632.5
2613.69717995017	40595.5
2615.83528235339	40950.5
2617.97278148034	40904.75
2620.10967761398	40835.75
2622.2459710372	40877.25
2624.38166203284	40967.25
2626.51675088365	40833.75
2628.65123787231	40709.25
2630.78512328145	40835
2632.9184073936	40763.5
2635.05109049124	40897.25
2637.18317285676	40850.5
2639.31465477248	41038.5
2641.44553652067	40992.5
2643.5758183835	40865
2645.70550064309	40933.25
2647.83458358144	41025.75
2649.96306748053	41148.25
2652.09095262223	41102.5
2654.21823928836	41291.25
2656.34492776063	40926.75
2658.47101832071	40847
2660.59651125015	41134
2662.72140683047	41080.5
2664.84570534309	41109.75
2666.96940706934	40975.25
2669.0925122905	40847.75
2671.21502128773	41084.25
2673.33693434215	41192.75
2675.45825173479	41121.75
2677.57897374658	40993.25
2679.69910065839	41356.5
2681.818632751	41041.25
2683.93757030511	41301.75
2686.05591360133	41073.5
2688.17366292021	41209
2690.29081854218	41217
2692.40738074762	40863.25
2694.52334981681	41040.25
2696.63872602995	41033.75
2698.75350966713	41345
2700.86770100841	41349
2702.98130033371	40945.5
2705.09430792289	41065.5
2707.20672405571	41215
2709.31854901185	41544.75
2711.42978307091	41371
2713.54042651238	41442
2715.65047961567	41419.25
2717.7599426601	41528.5
2719.86881592491	41539.75
2721.97709968924	41616.75
2724.08479423213	41318.75
2726.19189983255	41539.5
2728.29841676934	41475
2730.4043453213	41714
2732.5096857671	41810.25
2734.61443838532	41666
2736.71860345444	41492.25
2738.82218125286	41646.5
2740.92517205889	41700
2743.02757615072	41989.25
2745.12939380646	41503.75
2747.23062530411	41803
2749.33127092159	42283.5
2751.4313309367	41770.75
2753.53080562716	42133.25
2755.62969527058	42354.75
2757.72800014448	41983.75
2759.82572052625	42195.75
2761.92285669323	42101.5
2764.0194089226	42147.25
2766.11537749147	42165.25
2768.21076267686	42395.5
2770.30556475566	42197.25
2772.39978400465	42382
2774.49342070054	42248.25
2776.58647511991	42372.5
2778.67894753923	42449.25
2780.77083823487	42630.5
2782.8621474831	42241.5
2784.95287556007	42228.5
2787.04302274184	42197.25
2789.13258930433	42533.75
2791.22157552338	42426.5
2793.30998167471	42431.25
2795.39780803392	42746.5
2797.4850548765	42747
2799.57172247786	42468.5
2801.65781111324	42625.5
2803.74332105781	42765
2805.82825258661	42861
2807.91260597457	42749
2809.9963814965	42764.75
2812.07957942711	42909.25
2814.16220004096	42589
2816.24424361252	42916
2818.32571041614	42936.25
2820.40660072604	43037
2822.48691481631	43343.5
2824.56665296098	43332
2826.64581543388	43250.25
2828.72440250876	43645.25
2830.80241445925	43755
2832.87985155885	44074.5
2834.95671408093	44231.5
2837.03300229875	44847
2839.10871648544	45233.5
2841.18385691399	46225.5
2843.25842385729	46719
2845.33241758808	47135.5
2847.40583837898	47931
2849.4786865025	47941.25
2851.550962231	47751.75
2853.6226658367	47664.5
2855.69379759173	47402
2857.76435776806	47321
2859.83434663753	47026
2861.90376447184	46892.5
2863.97261154259	46828.5
2866.0408881212	46808.75
2868.10859447901	46786.25
2870.17573088717	47219.75
2872.24229761673	47494
2874.30829493859	47414.25
2876.37372312352	47822.75
2878.43858244215	48696
2880.50287316496	49371.25
2882.56659556231	49352.75
2884.62974990439	49179.75
2886.69233646129	48787.25
2888.75435550293	48500
2890.81580729909	48782
2892.87669211941	48571.75
2894.93701023339	48621.5
2896.99676191039	48630.5
2899.05594741961	48793.25
2901.1145670301	48511.75
2903.1726210108	48182.25
2905.23010963045	48494
2907.28703315768	48135.5
2909.34339186096	48365.75
2911.39918600861	48443.75
2913.45441586879	48082.75
2915.50908170952	48287
2917.56318379867	48400.75
2919.61672240395	48570.5
2921.66969779291	48427.5
2923.72211023295	48633
2925.77395999134	48615
2927.82524733515	48672.75
2929.87597253132	48658.25
2931.92613584663	48599.75
2933.97573754769	48496
2936.02477790097	48093.75
2938.07325717276	47896
2940.1211756292	48159
2942.16853353626	47763.5
2944.21533115976	48157.25
2946.26156876536	47519.25
2948.30724661853	47553.25
2950.3523649846	47943.25
2952.39692412872	47423
2954.44092431587	47413.25
2956.48436581089	47389.5
2958.52724887843	47384.5
2960.56957378296	47483.25
2962.6113407888	47867.25
2964.65255016011	47600.75
2966.69320216083	48079.25
2968.73329705479	47556
2970.77283510559	47782.5
2972.81181657671	47802
2974.8502417314	48099
2976.88811083279	48087.25
2978.92542414378	48286.5
2980.96218192713	48260.75
2982.99838444541	48505.75
2985.034031961	48515.5
2987.06912473612	48617.5
2989.1036630328	48406.75
2991.13764711288	48584
2993.17107723804	48581.75
2995.20395366974	48822.75
2997.23627666931	48971.75
2999.26804649782	48979
3001.29926341624	49251.5
3003.32992768528	49160
3005.3600395655	49300.5
3007.38959931726	49416
3009.41860720076	49427.5
3011.44706347595	49664
3013.47496840263	49698
3015.50232224041	49734
3017.5291252487	49954.5
3019.5553776867	49708.5
3021.58107981344	50000.75
3023.60623188773	50189.25
3025.63083416822	50102.25
3027.65488691331	50264.5
3029.67839038125	50401.25
3031.70134483007	50222.75
3033.72375051759	50478.75
3035.74560770144	50405.5
3037.76691663907	50592.75
3039.78767758768	50762.25
3041.80789080431	50671.5
3043.82755654577	50622.5
3045.84667506867	50748.75
3047.8652466294	50786.25
3049.88327148418	50610.25
3051.90074988899	50783.25
3053.91768209961	50742.75
3055.9340683716	50705.5
3057.94990896033	50767.75
3059.96520412095	51038.25
3061.97995410838	50996.5
3063.99415917734	50944.25
3066.00781958234	50923.5
3068.02093557766	51060.25
3070.03350741738	50816.25
3072.04553535535	50915.5
3074.05701964521	50880.25
3076.06796054036	50853.75
3078.078358294	50956
3080.08821315912	51065.25
3082.09752538846	51223.25
3084.10629523454	50741.5
3086.11452294967	51102
3088.12220878592	51027
3090.12935299515	51289
3092.13595582898	51208.25
3094.1420175388	51087.5
3096.14753837579	51217.75
3098.15251859088	51211.75
3100.15695843477	51201.5
3102.16085815793	51325.75
3104.16421801061	51165
3106.16703824282	51240.25
3108.16931910432	51465.5
3110.17106084464	51278.25
3112.17226371308	51470.5
3114.17292795872	51552
3116.17305383034	51730.75
3118.17264157657	51499.5
3120.17169144571	51699.25
3122.17020368587	51619.75
3124.16817854492	51653
3126.16561627044	51696.75
3128.16251710982	52166
3130.15888131017	52177.5
3132.15470911837	52146.75
3134.15000078104	52064.75
3136.14475654455	52105.5
3138.13897665502	52396.75
3140.13266135835	52294.25
3142.12581090014	52130.5
3144.11842552577	52525.5
3146.11050548036	52692
3148.10205100875	52540.5
3150.09306235557	52783
3152.08353976515	52456.5
3154.07348348158	52178.5
3156.06289374869	52713.5
3158.05177081006	52550.5
3160.04011490899	52589
3162.02792628852	52893.5
3164.01520519145	52627.5
3166.00195186029	52597.5
3167.98816653728	52970.75
3169.97384946442	52717.25
3171.95900088344	52686
3173.94362103577	52870
3175.92771016259	52966.25
3177.91126850484	52989
3179.89429630312	52921.25
3181.87679379782	52684
3183.85876122903	53161.75
3185.84019883657	53210.5
3187.82110685997	53044
3189.80148553851	53000.75
3191.78133511116	53358.25
3193.76065581664	53310.25
3195.73944789337	53181.75
3197.7177115795	53354.75
3199.6954471129	53326.75
3201.67265473114	53384.5
3203.64933467153	53195.75
3205.62548717107	53577.25
3207.60111246648	53556.5
3209.57621079421	53501.5
3211.55078239041	53517.5
3213.52482749093	53628.25
3215.49834633133	53857.25
3217.4713391469	54052.75
3219.44380617262	53709.75
3221.41574764317	54163.5
3223.38716379296	53892
3225.35805485607	54089
3227.32842106631	54156.75
3229.29826265718	54433.75
3231.26757986187	54452
3233.2363729133	54543.25
3235.20464204405	54566.75
3237.17238748643	54491
3239.13960947243	54815.75
3241.10630823374	54684
3243.07248400174	54865.5
3245.03813700748	55338.75
3247.00326748177	54957.75
3248.96787565503	54931.25
3250.93196175742	55264.5
3252.89552601877	55021
3254.8585686686	55023
3256.82108993612	55392.25
3258.78309005022	55357
3260.74456923948	55195.5
3262.70552773215	55411.75
3264.66596575617	55341.75
3266.62588353916	55314.75
3268.58528130843	55305.5
3270.54415929094	55127.75
3272.50251771336	55351.25
3274.46035680201	55501.75
3276.4176767829	55583.25
3278.37447788171	55429.5
3280.33076032379	55606.25
3282.28652433416	55469.75
3284.24177013751	55530
3286.1964979582	55718.5
3288.15070802027	55754.75
3290.10440054741	55742.25
3292.05757576298	55544.75
3294.01023389001	55646
3295.96237515119	55850.75
3297.91399976887	55710.5
3299.86510796506	55782.75
3301.81569996142	55973.25
3303.76577597932	55826.25
3305.7153362397	56007.75
3307.66438096324	55871.25
3309.61291037024	55948.5
3311.56092468064	55857.75
3313.50842411404	55772
3315.45540888971	56098
3317.40187922656	55881
3319.34783534315	55903.75
3321.29327745768	55806.25
3323.23820578801	55569
3325.18262055164	55728.25
3327.1265219657	55652
3329.06991024699	55877.25
3331.01278561194	55955
3332.95514827662	55695
3334.89699845674	56021.5
3336.83833636766	55872.25
3338.77916222434	55602.75
3340.71947624143	55806.25
3342.65927863317	55871
3344.59856961346	55775.25
3346.53734939584	56119.75
3348.47561819344	55826.5
3350.41337621906	55601.25
3352.35062368513	55779.25
3354.28736080368	55756
3356.22358778637	55845.25
3358.15930484452	55787.25
3360.09451218904	56171
3362.02921003047	56002.5
3363.96339857898	56156.5
3365.89707804436	55936.75
3367.83024863602	56058.5
3369.76291056299	55865.25
3371.69506403389	55782.75
3373.62670925699	56148
3375.55784644016	56242.75
3377.4884757909	56082
3379.41859751629	56426.5
3381.34821182305	56322.75
3383.27731891749	56447
3385.20591900555	56480.5
3387.13401229276	56696
3389.06159898426	56508.25
3390.9886792848	56774.25
3392.91525339872	56876.75
3394.84132152998	56890.25
3396.76688388213	56788.5
3398.69194065833	56698.25
3400.61649206133	56842
3402.54053829348	57002.5
3404.46407955672	56860.25
3406.3871160526	56771.5
3408.30964798225	57073.25
3410.23167554639	56931.75
3412.15319894535	57237.5
3414.07421837904	56859.25
3415.99473404695	57206
3417.91474614817	57123.75
3419.83425488136	57286.5
3421.75326044479	57360.75
3423.67176303631	57134.5
3425.58976285332	57214.25
3427.50726009282	57201.75
3429.42425495143	56981.5
3431.34074762528	57025.75
3433.25673831012	56941.5
3435.17222720127	56969.75
3437.08721449362	57122.75
3439.00170038164	56651
3440.91568505936	57073
3442.82916872039	56577.5
3444.74215155791	57069.25
3446.65463376468	57009
3448.566615533	56964.5
3450.47809705476	56870.25
3452.3890785214	56777.5
3454.29956012393	57044
3456.20954205293	57089.5
3458.11902449853	56943.75
3460.02800765041	56783.25
3461.93649169784	56925.5
3463.84447682962	56732.25
3465.75196323412	56691.5
3467.65895109925	56660.75
3469.56544061249	56719.25
3471.47143196086	56661.75
3473.37692533093	56719.75
3475.28192090884	56568.5
3477.18641888026	56923.75
3479.09041943039	56733.5
3480.99392274402	56764.25
3482.89692900545	56657.75
3484.79943839853	56764
3486.70145110666	56661.5
3488.60296731277	56637
3490.50398719933	56537.25
3492.40451094836	56195
3494.30453874141	56424.5
3496.20407075956	56836
3498.10310718342	56845.75
3500.00164819315	56389.75