200.090469251518	2881
202.974751419362	2863
205.858021632263	2923
208.740280737522	2952
211.621529580443	3043
214.501769004371	2991
217.380999850626	3108
220.25922295859	3142
223.136439165646	3137
226.012649307235	3201
228.88785421682	3247
231.762054725918	3294
234.635251664113	3276
237.507445859021	3322
240.378638136346	3278
243.248829319855	3351
246.11802023137	3296
248.986211690826	3212
251.853404516227	3329
254.719599523654	3230
257.584797527335	3251
260.44899933954	3119
263.312205770682	3154
266.174417629303	3098
269.035635722015	3042
271.895860853609	3065
274.755093826978	3099
277.613335443144	3078
280.470586501309	3036
283.326847798766	3021
286.182120131019	3035
289.036404291684	2980
291.889701072574	2927
294.742011263643	2950
297.593335653048	2911
300.443675027094	2846
303.293030170295	2849
306.141401865367	2905
308.988790893174	2871
311.835198032837	2910
314.680624061635	2896
317.525069755113	2905
320.36853588697	2934
323.211023229178	2952
326.052532551923	2936
328.893064623604	2966
331.732620210885	3005
334.57120007867	3004
337.408804990093	3035
340.245435706565	3033
343.081092987733	3012
345.915777591523	3019
348.749490274145	3041
351.582231790049	3068
354.414002891997	3090
357.244804331021	3059
360.074636856443	3107
362.903501215886	3203
365.731398155265	3194
368.558328418814	3161
371.384292749062	3192
374.209291886869	3226
377.033326571407	3219
379.85639754017	3270
382.678505529009	3259
385.499651272065	3256
388.319835501872	3218
391.139058949258	3350
393.957322343453	3296
396.774626412011	3360
399.590971880847	3433
402.406359474258	3489
405.220789914893	3597
408.034263923801	3614
410.8467822204	3695
413.658345522483	3814
416.468954546242	4014
419.278610006277	4119
422.087312615557	4296
424.895063085503	4407
427.701862125901	4502
430.507710444981	4705
433.312608749366	4864
436.116557744146	4870
438.919558132791	4992
441.721610617238	5141
444.522715897856	5089
447.322874673457	5152
450.122087641299	4910
452.920355497092	4786
455.717678935009	4548
458.514058647681	4321
461.309495326219	4162
464.103989660191	3899
466.89754233765	3805
469.690154045114	3628
472.481825467625	3595
475.272557288674	3451
478.062350190281	3354
480.851204852952	3378
483.639121955683	3332
486.426102176007	3245
489.212146189955	3266
491.997254672093	3199
494.781428295471	3151
497.564667731716	3207
500.346973650958	3157
503.128346721878	3218
505.90878761169	3133
508.688296986151	3243
511.46687550957	3191
514.244523844831	3221
517.021242653354	3218
519.797032595132	3164
522.571894328732	3211
525.345828511279	3177
528.11883579849	3263
530.890916844655	3194
533.662072302668	3210
536.432302823985	3201
539.201609058684	3181
541.96999165542	3260
544.737451261473	3254
547.503988522723	3248
550.26960408366	3302
553.034298587394	3341
555.798072675669	3290
558.560926988819	3369
561.322862165849	3409
564.083878844369	3439
566.843977660654	3536
569.603159249604	3582
572.361424244769	3680
575.118773278369	3761
577.87520698124	3808
580.630725982905	3969
583.385330911566	4006
586.139022394076	4144
588.891801055954	4233
591.643667521406	4360
594.394622413318	4490
597.144666353273	4686
599.893799961512	4765
602.64202385701	4877
605.389338657413	4892
608.135744979089	4967
610.881243437092	4888
613.625834645191	4846
616.369519215881	4743
619.112297760374	4566
621.854170888604	4469
624.595139209225	4228
627.335203329614	4185
630.074363855914	3998
632.81262139299	3866
635.549976544436	3740
638.286429912612	3624
641.021982098635	3582
643.756633702364	3600
646.49038532241	3507
649.223237556176	3432
651.955190999808	3366
654.686246248224	3439
657.416403895135	3356
660.145664533011	3350
662.874028753133	3374
665.601497145537	3384
668.328070299071	3365
671.05374880138	3334
673.778533238885	3267
676.502424196839	3316
679.225422259297	3365
681.947528009099	3308
684.668742027927	3208
687.389064896281	3210
690.108497193465	3248
692.827039497621	3286
695.544692385724	3290
698.261456433585	3232
700.977332215847	3186
703.692320305981	3210
706.406421276337	3213
709.11963569808	3231
711.831964141256	3241
714.54340717474	3203
717.253965366304	3225
719.963639282552	3155
722.672429488961	3132
725.380336549904	3147
728.087361028596	3204
730.793503487166	3136
733.498764486594	3139
736.203144586758	3097
738.906644346447	3106
741.60926432331	3183
744.311005073912	3150
747.011867153727	3173
749.711851117121	3160
752.410957517375	3114
755.109186906677	3154
757.806539836132	3170
760.503016855779	3112
763.198618514551	3174
765.893345360346	3166
768.587197939964	3140
771.28017679914	3107
773.972282482566	3123
776.663515533859	3128
779.353876495581	3106
782.043365909241	3133
784.731984315327	3131
787.419732253235	3122
790.106610261366	3120
792.792618877058	3096
795.477758636618	3126
798.162030075313	3197
800.845433727423	3153
803.52797012615	3081
806.209639803714	3224
808.890443291304	3185
811.570381119098	3181
814.249453816265	3236
816.927661910959	3177
819.60500593036	3156
822.281486400603	3163
824.957103846864	3213
827.631858793316	3215
830.305751763135	3174
832.978783278519	3166
835.650953860677	3216
838.322264029848	3246
840.992714305292	3222
843.662305205289	3268
846.331037247157	3212
848.998910947241	3246
851.665926820933	3243
854.332085382674	3228
856.997387145915	3219
859.661832623191	3304
862.325422326066	3254
864.988156765172	3244
867.650036450181	3318
870.311061889846	3261
872.971233591961	3275
875.630552063409	3262
878.28901781013	3200
880.946631337138	3261
883.603393148533	3301
886.259303747484	3259
888.914363636246	3234
891.568573316155	3225
894.22193328767	3222
896.874444050281	3206
899.526106102625	3286
902.176919942416	3281
904.826886066483	3252
907.476004970747	3305
910.124277150255	3287
912.77170309913	3309
915.418283310642	3287
918.064018277175	3364
920.708908490222	3307
923.352954440405	3294
925.996156617486	3240
928.638515510334	3371
931.280031606966	3356
933.920705394521	3385
936.560537359303	3313
939.199527986737	3326
941.837677761392	3365
944.474987167006	3353
947.111456686438	3412
949.747086801734	3401
952.38187799407	3393
955.015830743792	3354
957.648945530418	3399
960.281222832633	3433
962.91266312826	3387
965.543266894336	3371
968.173034607058	3355
970.801966741779	3448
973.43006377307	3467
976.057326174661	3450
978.683754419471	3461
981.309348979623	3420
983.93411032642	3472
986.558038930361	3387
989.181135261144	3470
991.803399787692	3501
994.424832978086	3481
997.045435299653	3456
999.665207218906	3445
1002.2841492016	3519
1004.90226171266	3459
1007.51954521628	3472
1010.13600017584	3570
1012.75162705397	3538
1015.3664263125	3517
1017.9803984125	3608
1020.5935438143	3548
1023.20586297741	3557
1025.81735636063	3510
1028.42802442196	3600
1031.03786761869	3591
1033.64688640732	3612
1036.2550812436	3564
1038.86245258255	3628
1041.46900087844	3546
1044.07472658479	3592
1046.67963015438	3607
1049.28371203927	3657
1051.88697269075	3743
1054.48941255943	3674
1057.09103209513	3727
1059.691831747	3750
1062.29181196343	3837
1064.89097319211	3766
1067.48931587999	3770
1070.08684047333	3704
1072.68354741766	3693
1075.27943715779	3736
1077.87451013787	3693
1080.46876680127	3709
1083.06220759071	3660
1085.65483294822	3699
1088.24664331509	3633
1090.83763913194	3741
1093.42782083869	3676
1096.01718887459	3733
1098.60574367818	3702
1101.19348568732	3735
1103.78041533919	3769
1106.3665330703	3733
1108.95183931646	3758
1111.53633451284	3769
1114.12001909391	3837
1116.70289349349	3883
1119.2849581447	3808
1121.86621348005	3906
1124.44665993134	3947
1127.02629792973	3954
1129.60512790574	3947
1132.18315028919	3909
1134.76036550929	3858
1137.3367739946	3890
1139.912376173	3864
1142.48717247176	3895
1145.06116331748	3852
1147.63434913616	3948
1150.20673035312	3812
1152.77830739307	3903
1155.34908068007	3809
1157.91905063757	3942
1160.48821768838	3895
1163.05658225471	3887
1165.6241447581	3855
1168.19090561951	3957
1170.75686525927	3963
1173.32202409708	3907
1175.88638255206	3846
1178.44994104269	3888
1181.01269998684	3881
1183.57465980182	3853
1186.13582090427	3836
1188.69618371026	3837
1191.25574863529	3915
1193.8145160942	3859
1196.37248650129	3914
1198.92966027025	3873
1201.48603781416	3832
1204.04161954556	3881
1206.59640587635	3915
1209.15039721788	3847
1211.70359398092	3870
1214.25599657564	3980
1216.80760541166	3875
1219.35842089801	3963
1221.90844344314	3928
1224.45767345496	3901
1227.00611134077	3891
1229.55375750736	3957
1232.10061236092	3955
1234.64667630707	3947
1237.1919497509	3996
1239.73643309692	3933
1242.28012674912	4054
1244.82303111089	4028
1247.36514658511	4064
1249.9064735741	4026
1252.44701247964	4076
1254.98676370294	4066
1257.52572764469	4057
1260.06390470506	4112
1262.60129528365	4160
1265.13789977954	4158
1267.67371859128	4091
1270.20875211688	4183
1272.74300075384	4071
1275.2764648991	4211
1277.80914494911	4188
1280.34104129978	4226
1282.87215434652	4186
1285.40248448419	4244
1287.93203210715	4321
1290.46079760927	4380
1292.98878138385	4504
1295.51598382375	4545
1298.04240532127	4395
1300.56804626822	4305
1303.09290705593	4332
1305.6169880752	4264
1308.14028971632	4329
1310.66281236913	4256
1313.18455642292	4385
1315.70552226653	4298
1318.22571028829	4330
1320.74512087603	4297
1323.26375441711	4374
1325.7816112984	4356
1328.29869190629	4331
1330.81499662666	4342
1333.33052584497	4351
1335.84527994613	4438
1338.35925931464	4314
1340.87246433446	4429
1343.38489538916	4424
1345.89655286177	4434
1348.40743713487	4485
1350.91754859059	4471
1353.42688761059	4493
1355.93545457606	4593
1358.44324986772	4540
1360.95027386588	4528
1363.45652695032	4537
1365.96200950042	4500
1368.4667218951	4458
1370.97066451281	4536
1373.47383773156	4440
1375.97624192891	4536
1378.47787748199	4537
1380.97874476746	4522
1383.47884416157	4582
1385.97817604009	4540
1388.4767407784	4551
1390.9745387514	4461
1393.47157033358	4501
1395.96783589898	4542
1398.46333582124	4458
1400.95807047354	4475
1403.45204022864	4527
1405.94524545889	4524
1408.4376865362	4527
1410.92936383205	4477
1413.42027771752	4614
1415.91042856328	4694
1418.39981673955	4815
1420.88844261615	4681
1423.37630656249	4737
1425.86340894757	4709
1428.34975013999	4828
1430.83533050792	4783
1433.32015041912	4930
1435.80421024098	4958
1438.28751034045	5135
1440.77005108411	5073
1443.25183283812	5072
1445.73285596824	5126
1448.21312083984	5101
1450.69262781791	5082
1453.17137726702	5056
1455.64936955137	5101
1458.12660503477	5095
1460.60308408063	5140
1463.07880705197	5025
1465.55377431145	5045
1468.02798622133	5119
1470.50144314348	5081
1472.97414543941	5053
1475.44609347024	5039
1477.91728759673	4984
1480.38772817924	4975
1482.85741557777	4961
1485.32635015194	4992
1487.79453226103	5067
1490.26196226391	5078
1492.72864051911	5073
1495.1945673848	5091
1497.65974321874	5024
1500.1241683784	5043
1502.58784322083	5074
1505.05076810274	5214
1507.51294338049	5085
1509.97436941009	5050
1512.43504654717	5083
1514.89497514704	5110
1517.35415556462	5098
1519.81258815451	5200
1522.27027327095	5111
1524.72721126784	5165
1527.18340249874	5201
1529.63884731684	5244
1532.09354607502	5237
1534.5474991258	5308
1537.00070682136	5277
1539.45316951355	5242
1541.90488755388	5242
1544.35586129353	5363
1546.80609108336	5364
1549.25557727385	5380
1551.70432021519	5360
1554.15232025725	5483
1556.59957774953	5504
1559.04609304125	5563
1561.49186648127	5494
1563.93689841815	5598
1566.38118920011	5551
1568.82473917506	5531
1571.2675486906	5612
1573.70961809399	5663
1576.15094773219	5629
1578.59153795184	5641
1581.03138909928	5719
1583.47050152051	5714
1585.90887556123	5720
1588.34651156686	5750
1590.78340988246	5693
1593.21957085283	5737
1595.65499482245	5854
1598.08968213547	5806
1600.52363313578	5763
1602.95684816694	5814
1605.38932757224	5745
1607.82107169462	5746
1610.25208087677	5780
1612.68235546107	5749
1615.1118957896	5726
1617.54070220415	5790
1619.96877504621	5735
1622.39611465701	5871
1624.82272137746	5833
1627.24859554818	5812
1629.67373750953	5929
1632.09814760155	5794
1634.52182616404	5778
1636.94477353647	5833
1639.36699005806	5838
1641.78847606776	5873
1644.20923190418	5928
1646.62925790573	5914
1649.04855441048	5965
1651.46712175628	6117
1653.88496028066	6043
1656.3020703209	6055
1658.71845221401	6046
1661.13410629671	6038
1663.54903290547	6122
1665.96323237649	6184
1668.37670504571	6124
1670.78945124877	6163
1673.20147132109	6228
1675.61276559779	6148
1678.02333441377	6225
1680.43317810362	6355
1682.84229700171	6335
1685.25069144213	6280
1687.65836175872	6418
1690.06530828507	6415
1692.47153135451	6426
1694.87703130009	6463
1697.28180845467	6396
1699.6858631508	6470
1702.08919572081	6459
1704.49180649676	6542
1706.89369581049	6586
1709.29486399355	6571
1711.69531137731	6481
1714.09503829282	6568
1716.49404507095	6705
1718.89233204229	6662
1721.28989953721	6625
1723.68674788581	6682
1726.08287741798	6677
1728.47828846338	6652
1730.87298135139	6632
1733.26695641119	6753
1735.66021397173	6784
1738.05275436169	6632
1740.44457790954	6745
1742.83568494354	6717
1745.22607579168	6845
1747.61575078175	6808
1750.00471024128	6872
1752.39295449761	6865
1754.78048387783	6808
1757.16729870881	6938
1759.5533993172	6946
1761.93878602942	6969
1764.32345917168	7016
1766.70741906995	6992
1769.09066604999	7046
1771.47320043735	6997
1773.85502255735	7118
1776.2361327351	7104
1778.61653129548	7142
1780.99621856318	7170
1783.37519486264	7325
1785.75346051813	7346
1788.13101585368	7363
1790.5078611931	7344
1792.88399686002	7433
1795.25942317785	7350
1797.63414046977	7474
1800.00814905878	7599
1802.38144926766	7599
1804.75404141898	7545
1807.12592583514	7557
1809.49710283829	7662
1811.86757275039	7611
1814.23733589322	7701
1816.60639258834	7728
1818.97474315712	7756
1821.34238792073	7804
1823.70932720012	7700
1826.07556131608	7773
1828.44109058918	7810
1830.8059153398	7855
1833.17003588812	7836
1835.53345255413	7920
1837.89616565765	7968
1840.25817551827	7964
1842.61948245541	8058
1844.9800867883	7955
1847.33998883598	8047
1849.69918891729	8213
1852.05768735091	8065
1854.4154844553	8143
1856.77258054875	8167
1859.12897594938	8158
1861.4846709751	8165
1863.83966594366	8152
1866.19396117261	8336
1868.54755697932	8238
1870.90045368099	8277
1873.25265159463	8380
1875.60415103708	8397
1877.95495232501	8527
1880.30505577486	8599
1882.65446170299	8496
1885.00317042548	8628
1887.35118225832	8604
1889.69849751726	8682
1892.04511651792	8717
1894.39103957574	8836
1896.73626700596	8891
1899.08079912368	8962
1901.42463624384	8963
1903.76777868116	8926
1906.11022675025	9051
1908.4519807655	9187
1910.79304104117	9274
1913.13340789134	9302
1915.47308162992	9198
1917.81206257067	9266
1920.15035102718	9394
1922.48794731286	9394
1924.82485174096	9459
1927.16106462461	9472
1929.49658627672	9572
1931.83141701008	9442
1934.1655571373	9600
1936.49900697085	9521
1938.83176682301	9721
1941.16383700594	9775
1943.49521783161	9722
1945.82590961186	9747
1948.15591265835	9693
1950.48522728262	9785
1952.81385379602	9806
1955.14179250976	9835
1957.46904373489	9825
1959.79560778233	9786
1962.12148496284	9788
1964.44667558701	9945
1966.77117996529	10086
1969.09499840799	10004
1971.41813122527	10196
1973.74057872714	10127
1976.06234122345	10214
1978.38341902391	10354
1980.7038124381	10360
1983.02352177543	10332
1985.34254734518	10512
1987.66088945649	10609
1989.97854841833	10585
1992.29552453956	10664
1994.61181812887	10639
1996.92742949483	11018
1999.24235894586	10928
2001.55660679023	11149
2003.87017333608	11180
2006.18305889143	11135
2008.49526376413	11196
2010.80678826189	11292
2013.1176326923	11298
2015.42779736282	11344
2017.73728258075	11571
2020.04608865326	11555
2022.3542158874	11574
2024.66166459008	11849
2026.96843506807	11728
2029.274527628	12027
2031.57994257637	12068
2033.88468021957	12185
2036.18874086383	12134
2038.49212481526	12220
2040.79483237983	12297
2043.0968638634	12261
2045.39821957169	12392
2047.69889981028	12436
2049.99890488462	12596
2052.29823510006	12558
2054.59689076181	12602
2056.89487217492	12475
2059.19217964437	12712
2061.48881347497	12927
2063.7847739714	12937
2066.08006143826	13047
2068.37467618	13034
2070.66861850093	13100
2072.96188870527	13172
2075.25448709707	13106
2077.54641398031	13341
2079.83766965881	13358
2082.12825443629	13237
2084.41816861634	13414
2086.70741250242	13385
2088.99598639789	13366
2091.28389060597	13386
2093.57112542978	13547
2095.85769117232	13501
2098.14358813644	13618
2100.42881662491	13620
2102.71337694037	13888
2104.99726938532	13717
2107.28049426219	13651
2109.56305187325	13932
2111.84494252069	14082
2114.12616650655	13965
2116.40672413278	13912
2118.68661570121	13918
2120.96584151355	14286
2123.24440187138	14167
2125.52229707622	14211
2127.79952742943	14120
2130.07609323227	14263
2132.35199478588	14230
2134.62723239132	14289
2136.90180634949	14383
2139.17571696123	14399
2141.44896452723	14466
2143.72154934809	14504
2145.99347172429	14356
2148.26473195623	14357
2150.53533034415	14736
2152.80526718821	14680
2155.07454278848	14596
2157.3431574449	14663
2159.61111145728	14712
2161.87840512538	14667
2164.1450387488	14813
2166.41101262707	14772
2168.67632705959	14787
2170.94098234567	14775
2173.20497878451	14611
2175.46831667519	14872
2177.73099631672	14917
2179.99301800797	14629
2182.25438204772	14710
2184.51508873466	14689
2186.77513836735	14704
2189.03453124427	14640
2191.29326766378	14659
2193.55134792416	14561
2195.80877232355	14781
2198.06554116004	14621
2200.32165473157	14665
2202.577113336	14524
2204.83191727111	14552
2207.08606683453	14459
2209.33956232384	14567
2211.59240403648	14569
2213.84459226982	14483
2216.09612732112	14411
2218.34700948753	14413
2220.59723906612	14328
2222.84681635385	14261
2225.09574164758	14207
2227.34401524408	14246
2229.59163744002	14262
2231.83860853197	14210
2234.08492881639	14034
2236.33059858968	14072
2238.5756181481	14366
2240.81998778784	13965
2243.06370780499	14081
2245.30677849555	13858
2247.54920015539	13880
2249.79097308033	13935
2252.03209756607	13718
2254.27257390822	13902
2256.51240240228	13788
2258.75158334369	13799
2260.99011702777	13738
2263.22800374976	13651
2265.46524380477	13637
2267.70183748786	13642
2269.93778509399	13542
2272.17308691801	13660
2274.40774325467	13456
2276.64175439866	13591
2278.87512064454	13570
2281.10784228682	13391
2283.33991961987	13430
2285.571352938	13336
2287.80214253541	13423
2290.03228870623	13515
2292.26179174449	13274
2294.4906519441	13336
2296.71886959892	13431
2298.9464450027	13290
2301.1733784491	13234
2303.39967023169	13069
2305.62532064395	12962
2307.85032997926	13028
2310.07469853093	13042
2312.29842659216	12941
2314.52151445608	12866
2316.7439624157	12910
2318.96577076397	12867
2321.18693979374	12730
2323.40746979777	12728
2325.62736106873	12620
2327.8466138992	12696
2330.06522858166	12384
2332.28320540853	12580
2334.50054467212	12553
2336.71724666465	12295
2338.93331167827	12512
2341.14874000501	12419
2343.36353193685	12363
2345.57768776564	12163
2347.79120778319	12176
2350.00409228117	12084
2352.21634155121	12385
2354.42795588482	12107
2356.63893557342	12047
2358.84928090838	11968
2361.05899218094	11969
2363.26806968228	11993
2365.47651370347	12015
2367.68432453552	11852
2369.89150246933	11906
2372.09804779571	11851
2374.30396080541	11768
2376.50924178907	11838
2378.71389103725	11666
2380.91790884042	11862
2383.12129548897	11617
2385.3240512732	11774
2387.52617648332	11583
2389.72767140946	11555
2391.92853634165	11525
2394.12877156985	11445
2396.32837738392	11602
2398.52735407365	11534
2400.72570192873	11343
2402.92342123875	11390
2405.12051229325	11282
2407.31697538167	11176
2409.51281079333	11229
2411.70801881751	11138
2413.90259974339	11078
2416.09655386004	11137
2418.28988145648	11012
2420.48258282162	11035
2422.6746582443	10928
2424.86610801325	11214
2427.05693241713	10969
2429.24713174452	10985
2431.43670628389	10876
2433.62565632365	10922
2435.81398215212	10871
2438.00168405752	10769
2440.18876232799	10887
2442.37521725158	10768
2444.56104911628	10722
2446.74625820994	10643
2448.93084482038	10677
2451.1148092353	10592
2453.29815174233	10645
2455.480872629	10600
2457.66297218275	10607
2459.84445069097	10361
2462.02530844092	10473
2464.2055457198	10282
2466.38516281471	10406
2468.56416001267	10263
2470.74253760061	10223
2472.92029586537	10355
2475.09743509372	10313
2477.27395557232	10295
2479.44985758777	10260
2481.62514142655	10241
2483.79980737508	10070
2485.97385571969	9987
2488.14728674661	10172
2490.32010074198	10268
2492.49229799188	10230
2494.66387878228	10060
2496.83484339905	10205
2499.00519212802	10104
2501.17492525488	10071
2503.34404306528	10059
2505.51254584473	10010
2507.6804338787	10092
2509.84770745254	10100
2512.01436685153	9922
2514.18041236085	9877
2516.34584426561	10049
2518.51066285081	9914
2520.67486840138	9948
2522.83846120214	10067
2525.00144153784	9878
2527.16380969314	10007
2529.32556595261	9978
2531.48671060072	9903
2533.64724392186	9894
2535.80716620033	9879
2537.96647772034	9752
2540.12517876602	9822
2542.2832696214	9818
2544.44075057041	9736
2546.59762189691	9790
2548.75388388466	9767
2550.90953681735	9680
2553.06458097853	9536
2555.21901665172	9657
2557.37284412031	9656
2559.5260636676	9542
2561.67867557684	9548
2563.83068013113	9449
2565.98207761351	9539
2568.13286830695	9469
2570.28305249429	9565
2572.43263045829	9398
2574.58160248163	9207
2576.72996884689	9356
2578.87772983655	9095
2581.02488573303	9273
2583.1714368186	9207
2585.31738337549	9223
2587.46272568582	9340
2589.60746403161	9160
2591.75159869479	9199
2593.89512995722	9272
2596.03805810061	9092
2598.18038340665	9152
2600.32210615686	9086
2602.46322663274	9234
2604.60374511563	9085
2606.74366188683	9248
2608.88297722751	9122
2611.02169141875	9170
2613.15980474156	9114
2615.29731747681	9096
2617.43422990532	9028
2619.57054230779	8946
2621.70625496483	8969
2623.84136815694	8853
2625.97588216456	9043
2628.10979726799	8919
2630.24311374746	9056
2632.3758318831	9056
2634.50795195493	8895
2636.6394742429	9077
2638.77039902682	8964
2640.90072658645	9004
2643.0304572014	8931
2645.15959115123	9005
2647.28812871538	8962
2649.41607017319	8989
2651.5434158039	8903
2653.67016588665	8967
2655.79632070049	8944
2657.92188052436	8911
2660.04684563711	9006
2662.17121631749	8991
2664.29499284413	9028
2666.41817549558	8906
2668.54076455027	8776
2670.66276028656	8835
2672.78416298267	8812
2674.90497291675	8846
2677.02519036682	8799
2679.14481561082	8906
2681.26384892658	8945
2683.38229059182	8850
2685.50014088417	8769
2687.61740008114	8817
2689.73406846017	8733
2691.85014629854	8778
2693.96563387347	8711
2696.08053146206	8746
2698.1948393413	8568
2700.3085577881	8710
2702.42168707924	8841
2704.53422749139	8682
2706.64617930112	8791
2708.75754278492	8770
2710.86831821913	8712
2712.97850588002	8806
2715.08810604372	8802
2717.19711898628	8726
2719.30554498363	8689
2721.41338431158	8715
2723.52063724586	8799
2725.62730406206	8775
2727.73338503569	8722
2729.83888044213	8738
2731.94379055664	8629
2734.04811565441	8669
2736.15185601048	8616
2738.25501189979	8642
2740.35758359718	8505
2742.45957137738	8624
2744.56097551499	8656
2746.6617962845	8687
2748.7620339603	8652
2750.86168881666	8583
2752.96076112774	8527
2755.05925116758	8555
2757.15715921012	8418
2759.25448552917	8485
2761.35123039843	8635
2763.44739409148	8555
2765.5429768818	8413
2767.63797904275	8498
2769.73240084756	8439
2771.82624256934	8411
2773.91950448113	8446
2776.01218685579	8442
2778.10428996609	8513
2780.19581408469	8396
2782.28675948414	8420
2784.37712643683	8521
2786.46691521507	8421
2788.55612609104	8367
2790.64475933678	8404
2792.73281522425	8487
2794.82029402525	8390
2796.90719601149	8432
2798.99352145453	8311
2801.07927062583	8394
2803.16444379672	8294
2805.24904123841	8432
2807.33306322197	8410
2809.41651001838	8378
2811.49938189847	8333
2813.58167913296	8299
2815.66340199243	8472
2817.74455074734	8472
2819.82512566805	8387
2821.90512702475	8438
2823.98455508754	8356
2826.06341012637	8495
2828.14169241109	8436
2830.2194022114	8661
2832.29653979686	8661
2834.37310543694	8800
2836.44909940096	9061
2838.5245219581	9373
2840.59937337744	9683
2842.67365392791	9973
2844.74736387829	10373
2846.82050349727	10562
2848.8930730534	10573
2850.96507281506	10400
2853.03650305056	10313
2855.10736402802	10135
2857.17765601545	10016
2859.24737928074	9806
2861.31653409164	9844
2863.38512071574	9606
2865.45313942054	9742
2867.52059047335	9624
2869.58747414139	9681
2871.65379069173	9915
2873.7195403913	9967
2875.78472350688	10387
2877.84934030515	10736
2879.91339105262	11178
2881.97687601567	11163
2884.03979546053	10735
2886.10214965332	10378
2888.16393886	10435
2890.22516334639	10158
2892.28582337816	9995
2894.34591922087	9948
2896.40545113992	9999
2898.46441940054	9850
2900.52282426787	9918
2902.58066600687	9778
2904.63794488237	9828
2906.69466115906	9459
2908.75081510147	9744
2910.806406974	9528
2912.8614370409	9430
2914.91590556626	9449
2916.96981281404	9466
2919.02315904807	9526
2921.07594453199	9363
2923.12816952932	9448
2925.17983430343	9516
2927.23093911753	9501
2929.28148423469	9320
2931.33146991782	9331
2933.3808964297	9204
2935.42976403294	9057
2937.47807299	9111
2939.5258235632	9021
2941.57301601469	8769
2943.61965060648	8720
2945.66572760042	8762
2947.71124725823	8733
2949.75620984143	8666
2951.80061561143	8537
2953.84446482945	8443
2955.88775775656	8521
2957.9304946537	8498
2959.97267578162	8492
2962.01430140095	8488
2964.05537177211	8507
2966.09588715541	8468
2968.13584781097	8442
2970.17525399875	8511
2972.21410597859	8413
2974.25240401011	8533
2976.29014835283	8343
2978.32733926604	8437
2980.36397700892	8532
2982.40006184049	8429
2984.43559401955	8469
2986.4705738048	8492
2988.50500145473	8562
2990.53887722771	8525
2992.57220138189	8534
2994.6049741753	8457
2996.63719586576	8588
2998.66886671097	8503
3000.69998696843	8667
3002.73055689549	8756
3004.7605767493	8574
3006.79004678688	8697
3008.81896726505	8793
3010.84733844048	8719
3012.87516056966	8663
3014.9024339089	8697
3016.92915871433	8815
3018.95533524196	8893
3020.98096374756	8878
3023.00604448675	8819
3025.030577715	8817
3027.05456368757	8726
3029.07800265956	8887
3031.10089488589	8761
3033.12324062131	8877
3035.14504012038	8957
3037.16629363749	8899
3039.18700142685	9014
3041.20716374249	8795
3043.22678083826	8816
3045.24585296782	8937
3047.26438038468	8892
3049.28236334212	9039
3051.29980209329	9025
3053.31669689111	8807
3055.33304798835	8852
3057.34885563757	9049
3059.36412009117	8933
3061.37884160134	8693
3063.39302042011	8968
3065.40665679931	9022
3067.41975099058	8907
3069.43230324538	8972
3071.44431381495	8925
3073.45578295041	9023
3075.46671090261	8960
3077.47709792227	9001
3079.48694425989	8851
3081.49625016578	9116
3083.50501589008	9063
3085.5132416827	8950
3087.5209277934	8942
3089.52807447169	8999
3091.53468196695	8992
3093.54075052832	9091
3095.54628040476	9003
3097.55127184503	9037
3099.55572509769	8922
3101.55964041111	9057
3103.56301803346	9011
3105.5658582127	9127
3107.56816119661	9072
3109.56992723275	9054
3111.57115656849	9168
3113.571849451	9085
3115.57200612724	9097
3117.57162684397	9106
3119.57071184775	9253
3121.56926138493	9270
3123.56727570166	9387
3125.56475504389	9278
3127.56169965735	9361
3129.55810978757	9294
3131.55398567987	9391
3133.54932757937	9215
3135.54413573099	9493
3137.53841037939	9378
3139.53215176909	9494
3141.52536014435	9410
3143.51803574924	9450
3145.51017882762	9466
3147.50178962311	9397
3149.49286837916	9427
3151.48341533897	9300
3153.47343074553	9567
3155.46291484164	9570
3157.45186786985	9580
3159.44029007252	9531
3161.42818169179	9645
3163.41554296955	9549
3165.40237414753	9603
3167.38867546718	9715
3169.37444716975	9623
3171.35968949631	9738
3173.34440268764	9587
3175.32858698436	9706
3177.31224262682	9859
3179.29536985517	9683
3181.27796890934	9743
3183.26004002902	9673
3185.24158345368	9759
3187.22259942256	9806
3189.2030881747	9782
3191.18304994886	9972
3193.16248498363	9824
3195.14139351733	9797
3197.11977578807	9970
3199.09763203371	9878
3201.07496249191	9876
3203.05176740007	9883
3205.02804699537	9823
3207.00380151475	10045
3208.97903119493	10158
3210.95373627238	10113
3212.92791698335	10041
3214.90157356383	10057
3216.8747062496	10105
3218.84731527619	10094
3220.81940087889	10275
3222.79096329275	10185
3224.76200275259	10196
3226.73251949298	10274
3228.70251374825	10321
3230.67198575251	10160
3232.64093573959	10261
3234.6093639431	10388
3236.57727059641	10537
3238.54465593261	10533
3240.51152018461	10457
3242.47786358502	10489
3244.44368636621	10477
3246.40898876031	10519
3248.37377099923	10552
3250.33803331458	10660
3252.30177593775	10609
3254.26499909987	10667
3256.22770303184	10655
3258.18988796427	10689
3260.15155412755	10736
3262.1127017518	10659
3264.0733310669	10857
3266.03344230246	10786
3267.99303568784	10757
3269.95211145215	10749
3271.91066982422	10865
3273.86871103267	10767
3275.82623530581	10831
3277.7832428717	10883
3279.73973395818	10823
3281.69570879278	10895
3283.6511676028	11031
3285.60611061527	11016
3287.56053805694	11009
3289.51445015432	10962
3291.46784713364	11005
3293.42072922088	10875
3295.37309664173	11023
3297.32494962163	11051
3299.27628838575	10979
3301.227113159	11143
3303.17742416601	11063
3305.12722163114	11180
3307.07650577848	11112
3309.02527683185	11121
3310.9735350148	11110
3312.9212805506	11254
3314.86851366225	11201
3316.81523457249	11173
3318.76144350377	11377
3320.70714067825	11131
3322.65232631783	11278
3324.59700064415	11184
3326.54116387854	11164
3328.48481624207	11317
3330.42795795551	11251
3332.37058923938	11348
3334.31271031389	11309
3336.25432139898	11189
3338.19542271432	11425
3340.13601447927	11251
3342.07609691292	11414
3344.01567023407	11246
3345.95473466124	11278
3347.89329041266	11355
3349.83133770627	11368
3351.76887675973	11351
3353.70590779039	11356
3355.64243101534	11537
3357.57844665135	11411
3359.51395491492	11598
3361.44895602224	11525
3363.38345018922	11645
3365.31743763148	11516
3367.25091856432	11534
3369.18389320278	11635
3371.11636176156	11679
3373.0483244551	11655
3374.97978149754	11705
3376.91073310269	11633
3378.84117948409	11750
3380.77112085498	11824
3382.70055742826	11732
3384.62948941659	11880
3386.55791703227	11884
3388.48584048733	11922
3390.41325999348	12001
3392.34017576214	11932
3394.2665880044	11992
3396.19249693107	12215
3398.11790275263	11877
3400.04280567926	12230
3401.96720592084	12113
3403.89110368692	12080
3405.81449918675	12362
3407.73739262928	12143
3409.65978422311	12342
3411.58167417658	12423
3413.50306269768	12275
3415.42394999408	12324
3417.34433627316	12273
3419.26422174195	12355
3421.18360660721	12301
3423.10249107532	12267
3425.02087535239	12325
3426.93875964421	12262
3428.8561441562	12425
3430.77302909353	12411
3432.68941466097	12300
3434.60530106301	12537
3436.52068850383	12343
3438.43557718726	12592
3440.34996731681	12422
3442.26385909565	12563
3444.17725272664	12429
3446.09014841231	12626
3448.00254635486	12434
3449.91444675614	12444
3451.82584981771	12505
3453.73675574076	12412
3455.64716472616	12354
3457.55707697445	12413
3459.46649268584	12574
3461.37541206018	12448
3463.28383529703	12479
3465.19176259555	12542
3467.09919415464	12419
3469.00613017278	12398
3470.91257084817	12478
3472.81851637863	12393
3474.72396696168	12411
3476.62892279446	12413
3478.53338407379	12559
3480.43735099614	12507
3482.34082375764	12587
3484.24380255404	12523
3486.1462875808	12481
3488.048279033	12652
3489.94977710537	12418
3491.85078199231	12593
3493.75129388783	12503
3495.65131298566	12524
3497.5508394791	12572
3499.44987356115	12507