201.866871357051	1186.75
204.754250281454	1177.5
207.640596790938	1186.25
210.525911876299	1190.5
213.410196525689	1188.25
216.293451724508	1182.5
219.175678455485	1184
222.056877698662	1192.75
224.937050431388	1193.5
227.816197628363	1208.5
230.694320261602	1205
233.571419300504	1199.75
236.447495711764	1211
239.322550459507	1226.5
242.196584505182	1207.5
245.069598807626	1219.5
247.941594323078	1215.25
250.812572005154	1240.5
253.682532804884	1239
256.551477670699	1224.25
259.419407548456	1241
262.286323381439	1231
265.152226110364	1242.25
268.017116673389	1252.25
270.880996006115	1241.5
273.743865041622	1260.5
276.605724710436	1250
279.466575940562	1241
282.326419657496	1257
285.1852567842	1259.25
288.043088241157	1251.25
290.899914946349	1266.5
293.75573781526	1256.75
296.610557760898	1261.5
299.464375693817	1289
302.317192522078	1281.75
305.169009151297	1261.25
308.019826484655	1293.25
310.86964542287	1275.25
313.718466864233	1281.5
316.566291704614	1290
319.413120837457	1294.25
322.258955153804	1287
325.103795542291	1273.75
327.947642889128	1286.25
330.79049807819	1278.5
333.632361990927	1293.75
336.473235506444	1304.25
339.31311950145	1303.5
342.152014850322	1309.5
344.989922425062	1309
347.826843095354	1309.5
350.662777728528	1318.5
353.497727189577	1322.5
356.331692341195	1330.25
359.164674043732	1328
361.996673155267	1335.25
364.827690531536	1333.5
367.65772702602	1349.25
370.486783489887	1346.5
373.314860772047	1360.5
376.14195971912	1337.5
378.968081175466	1339
381.793225983212	1341.75
384.617394982201	1342.75
387.44058901005	1350
390.262808902131	1362.25
393.08405549161	1331.5
395.904329609395	1364.25
398.723632084213	1374.5
401.541963742569	1349.25
404.359325408779	1352.25
407.175717904938	1361.5
409.991142050982	1368.25
412.805598664665	1372
415.619088561551	1378.75
418.43161255505	1379
421.243171456415	1375.25
424.053766074758	1397.25
426.863397217017	1418.75
429.672065688024	1407.25
432.479772290455	1401.5
435.286517824879	1406
438.092303089736	1402.75
440.897128881359	1429.75
443.70099599399	1424.5
446.503905219761	1427.75
449.305857348711	1419
452.106853168796	1432
454.906893465919	1430.5
457.705979023885	1401.5
460.504110624439	1422
463.3012890473	1407.75
466.097515070087	1414.75
468.892789468424	1430.5
471.687113015869	1434.75
474.48048648395	1438.75
477.272910642198	1424.25
480.064386258109	1428.5
482.854914097159	1427
485.644494922839	1419.5
488.433129496636	1449
491.220818578047	1457.25
494.007562924584	1458.75
496.793363291785	1442
499.578220433217	1460.5
502.362135100473	1477.5
505.145108043209	1455.5
507.927140009098	1488.25
510.708231743909	1476.75
513.488383991433	1494.5
516.267597493556	1486.75
519.04587299022	1486.75
521.82321121946	1492
524.599612917398	1473.25
527.375078818233	1499.25
530.149609654287	1485
532.923206155967	1486.25
535.695869051804	1494.25
538.467599068448	1499.75
541.238396930665	1502.75
544.008263361364	1495.25
546.777199081578	1495
549.545204810493	1517.75
552.312281265436	1501
555.078429161898	1506
557.843649213533	1505.5
560.607942132156	1506
563.371308627753	1510.75
566.133749408495	1498
568.895265180756	1519.25
571.655856649064	1523.75
574.415524516189	1544
577.174269483075	1538.75
579.932092248884	1533.5
582.688993510994	1531.25
585.444973965023	1532.75
588.200034304795	1551.25
590.95417522237	1560.5
593.70739740807	1545.5
596.459701550433	1546
599.21108833628	1560
601.961558450668	1547.25
604.711112576933	1542.5
607.459751396673	1563.5
610.207475589748	1558
612.954285834338	1571.75
615.700182806879	1557.25
618.445167182101	1583.75
621.189239633055	1558.5
623.932400831087	1561.25
626.674651445839	1570.25
629.415992145303	1560.25
632.156423595745	1545.25
634.895946461813	1550.75
637.634561406449	1552.25
640.37226909096	1553.25
643.109070174978	1570
645.844965316508	1576.5
648.579955171888	1580.5
651.314040395846	1585.25
654.047221641456	1583
656.779499560176	1577.5
659.510874801828	1564.5
662.241348014642	1578
664.97091984524	1601.75
667.699590938606	1592.75
670.427361938164	1591.75
673.15423348573	1620.5
675.880206221526	1623.75
678.605280784206	1610
681.329457810829	1614.25
684.05273793692	1616.75
686.775121796389	1622
689.49661002163	1616
692.217203243454	1596
694.936902091144	1629.25
697.655707192425	1612
700.373619173493	1608.25
703.09063865901	1636.75
705.806766272093	1635.75
708.522002634378	1643.25
711.236348365946	1606.5
713.94980408538	1636
716.662370409762	1613.25
719.374047954676	1636
722.08483733419	1636.5
724.794739160909	1643.75
727.503754045949	1631
730.21188259892	1628.5
732.919125427998	1649.25
735.625483139855	1638.5
738.330956339723	1635.5
741.035545631374	1647.5
743.739251617106	1678
746.44207489779	1642.75
749.144016072852	1666.5
751.845075740272	1662.75
754.545254496603	1678
757.244552936976	1669.75
759.94297165508	1666
762.640511243222	1684.5
765.337172292249	1684.25
768.032955391649	1690.5
770.727861129482	1686.25
773.421890092413	1691
776.11504286572	1694
778.807320033298	1695.5
781.49872217765	1707.75
784.18924987991	1672
786.87890371984	1698.75
789.567684275826	1696
792.255592124908	1689.25
794.94262784276	1671
797.628792003703	1686.25
800.314085180715	1704.5
802.998507945427	1711.5
805.682060868145	1683
808.364744517821	1709
811.046559462105	1716.5
813.727506267311	1731.5
816.407585498422	1702
819.08679771913	1729.75
821.765143491822	1725.75
824.442623377563	1721.5
827.119237936127	1746.25
829.794987726003	1724.25
832.469873304377	1723
835.143895227167	1726.5
837.817054048985	1750.75
840.489350323205	1755.25
843.160784601892	1745.5
845.831357435894	1738
848.501069374739	1757.5
851.169920966753	1767
853.837912758987	1775
856.505045297232	1772.5
859.171319126071	1762.25
861.836734788823	1779.75
864.501292827579	1791.25
867.164993783208	1772
869.827838195361	1760.5
872.489826602454	1754.25
875.150959541701	1785
877.811237549104	1751.5
880.470661159456	1769
883.129230906357	1778.75
885.786947322205	1771
888.443810938206	1782.25
891.099822284385	1782
893.754981889586	1802.5
896.409290281452	1775.75
899.062747986485	1788.5
901.715355529999	1793.25
904.367113436154	1801.5
907.01802222793	1797.75
909.668082427172	1775
912.317294554574	1790
914.965659129659	1784.75
917.613176670835	1792.5
920.259847695364	1814.5
922.90567271936	1796
925.550652257825	1810
928.194786824621	1808.5
930.838076932512	1817.5
933.480523093109	1821.25
936.122125816953	1815
938.762885613447	1829
941.402802990899	1831.25
944.041878456523	1816.25
946.680112516428	1808.5
949.31750567563	1844.5
951.954058438081	1824.5
954.589771306633	1836.25
957.224644783048	1831.25
959.858679368044	1830
962.491875561238	1834
965.12423386121	1827.25
967.75575476545	1830.25
970.386438770423	1822.25
973.016286371501	1859
975.645298063046	1834.5
978.273474338355	1858.5
980.900815689674	1857.75
983.527322608243	1861
986.152995584245	1839.5
988.777835106834	1848.5
991.401841664148	1873.75
994.025015743307	1857.75
996.647357830407	1860.75
999.268868410534	1862.5
1001.88954796777	1856
1004.50939698518	1847.5
1007.12841594484	1870.75
1009.74660532783	1870.5
1012.36396561423	1883
1014.98049728314	1892.25
1017.59620081267	1870
1020.21107667995	1869.5
1022.82512536112	1903.25
1025.43834733138	1887.5
1028.05074306493	1902.5
1030.66231303501	1907.5
1033.27305771392	1914
1035.88297757299	1911.75
1038.49207308257	1895.25
1041.10034471211	1928.75
1043.70779293008	1907.25
1046.31441820402	1921
1048.92022100052	1921.5
1051.52520178525	1943.75
1054.12936102295	1986.25
1056.73269917742	2035
1059.33521671154	2106
1061.93691408729	2131.5
1064.53779176571	2134.25
1067.13785020694	2023.75
1069.73708987022	1976.5
1072.33551121386	1963.25
1074.93311469528	1938
1077.52990077103	1927
1080.12586989674	1942
1082.72102252714	1958.25
1085.31535911611	1969.5
1087.90888011663	1951.5
1090.50158598078	1946.25
1093.09347715979	1971.75
1095.68455410403	1957.75
1098.27481726296	1944.25
1100.86426708523	1948.25
1103.45290401857	1955
1106.04072850991	1977.75
1108.6277410053	1947.75
1111.21394194993	1966
1113.79933178816	1995.75
1116.3839109635	1999
1118.96767991862	1995.25
1121.55063909539	2064
1124.13278893477	2165.25
1126.71412987696	2251
1129.29466236132	2251.5
1131.87438682637	2193.25
1134.45330370982	2100
1137.03141344858	2054.5
1139.60871647872	2002.25
1142.18521323554	2009.5
1144.7609041535	1986.25
1147.33578966629	2019.5
1149.90987020676	2012.5
1152.48314620702	2010.75
1155.05561809835	1987
1157.62728631125	1994
1160.19815127545	1979.75
1162.76821341988	2000.5
1165.33747317271	2023.75
1167.90593096133	2019.5
1170.47358721235	2028.25
1173.04044235163	2007.25
1175.60649680425	1993.5
1178.17175099454	1992.5
1180.73620534607	1997
1183.29986028165	2001
1185.86271622336	1977
1188.42477359249	2001.25
1190.98603280964	1982
1193.54649429462	1978.5
1196.10615846653	1979.5
1198.66502574372	1974.5
1201.22309654385	1994.5
1203.78037128378	1974.25
1206.33685037971	2003.5
1208.89253424709	1983.5
1211.44742330063	1989.5
1214.00151795438	1970
1216.55481862163	2000.25
1219.10732571497	1996.5
1221.65903964631	2002.75
1224.20996082683	2006
1226.760089667	1997.25
1229.30942657664	1997
1231.85797196483	2013.25
1234.40572623998	2001.25
1236.95268980981	2017
1239.49886308136	2014
1242.04424646098	1998.25
1244.58884035435	2018.25
1247.13264516647	2021
1249.67566130166	2025
1252.21788916358	2031.75
1254.75932915524	2033.75
1257.29998167896	2059.75
1259.83984713639	2043.75
1262.37892592857	2047
1264.91721845586	2072
1267.45472511795	2081
1269.9914463139	2051
1272.52738244213	2099.5
1275.0625339004	2100
1277.59690108587	2092.75
1280.130484395	2111.75
1282.66328422367	2108.75
1285.19530096712	2121.5
1287.72653501993	2184.5
1290.25698677608	2246.75
1292.78665662894	2442.5
1295.31554497125	2434.25
1297.8436521951	2333.75
1300.37097869203	2219.5
1302.89752485292	2168
1305.42329106805	2164.25
1307.94827772713	2130.75
1310.47248521921	2111.75
1312.99591393279	2136.75
1315.51856425575	2176
1318.04043657536	2125
1320.56153127836	2138.25
1323.08184875083	2161.75
1325.6013893783	2172
1328.12015354572	2158.75
1330.63814163744	2162.5
1333.15535403727	2172.75
1335.67179112839	2177.5
1338.18745329347	2192
1340.70234091454	2181.75
1343.21645437314	2196.75
1345.72979405019	2215
1348.24236032607	2199.25
1350.75415358059	2213.5
1353.26517419303	2197
1355.7754225421	2203.5
1358.28489900594	2235.25
1360.79360396218	2244
1363.30153778787	2262.75
1365.80870085955	2236.25
1368.31509355319	2256
1370.82071624424	2273.25
1373.32556930762	2241.75
1375.8296531177	2246.5
1378.33296804832	2248.5
1380.83551447282	2215.25
1383.33729276399	2225
1385.83830329408	2224.75
1388.33854643489	2224.25
1390.83802255762	2238.75
1393.33673203301	2235
1395.83467523128	2200.75
1398.33185252211	2249.75
1400.82826427471	2205.25
1403.32391085777	2220.25
1405.81879263947	2230.25
1408.31290998752	2255
1410.80626326908	2281.25
1413.29885285087	2367
1415.79067909909	2377.75
1418.28174237944	2392.5
1420.77204305717	2357.25
1423.26158149702	2300.75
1425.75035806323	2328
1428.2383731196	2347.75
1430.72562702942	2340
1433.21212015554	2403.75
1435.69785286028	2443
1438.18282550555	2503.75
1440.66703845275	2483.5
1443.15049206284	2450.75
1445.6331866963	2461
1448.11512271316	2459.25
1450.59630047298	2462.25
1453.07672033486	2455.75
1455.55638265748	2461.5
1458.03528779902	2477.25
1460.51343611725	2478.25
1462.99082796946	2446.5
1465.46746371252	2465.5
1467.94334370285	2475
1470.41846829642	2433
1472.89283784878	2425.5
1475.36645271503	2440
1477.83931324983	2458
1480.31141980743	2439
1482.78277274164	2404.25
1485.25337240583	2438
1487.72321915297	2422
1490.19231333557	2468.75
1492.66065530578	2466.75
1495.12824541525	2447
1497.5950840153	2468.25
1500.06117145678	2434.75
1502.52650809014	2470.75
1504.99109426543	2445
1507.45493033227	2456.5
1509.91801663992	2457.25
1512.38035353717	2464.75
1514.84194137248	2480.75
1517.30278049386	2497.5
1519.76287124894	2486.75
1522.22221398497	2481.5
1524.68080904876	2508
1527.13865678681	2485.5
1529.59575754514	2508
1532.05211166945	2561.5
1534.50771950503	2529.5
1536.96258139678	2556
1539.41669768924	2590.25
1541.87006872656	2595
1544.32269485252	2582
1546.77457641051	2624.25
1549.22571374357	2650.75
1551.67610719434	2632.25
1554.12575710513	2668.25
1556.57466381785	2623.25
1559.02282767408	2652
1561.47024901499	2659.25
1563.91692818144	2703.25
1566.3628655139	2731.5
1568.80806135249	2704
1571.252516037	2735.75
1573.6962299068	2751
1576.13920330099	2743.25
1578.58143655828	2750
1581.02293001704	2805.5
1583.46368401528	2780.75
1585.90369889071	2820.5
1588.34297498065	2783.5
1590.7815126221	2834.75
1593.21931215173	2819.25
1595.65637390588	2822.25
1598.09269822053	2815.5
1600.52828543135	2847.5
1602.96313587367	2832.5
1605.3972498825	2816.5
1607.83062779252	2839.5
1610.26326993808	2853.25
1612.69517665322	2835.25
1615.12634827165	2859.75
1617.55678512676	2857
1619.98648755163	2824.5
1622.41545587902	2819.5
1624.84369044138	2836.5
1627.27119157085	2839.25
1629.69795959924	2886
1632.12399485808	2852.25
1634.54929767859	2877.75
1636.97386839165	2890
1639.39770732789	2878.75
1641.8208148176	2900.75
1644.24319119078	2907.75
1646.66483677715	2901.25
1649.0857519061	2910.5
1651.50593690677	2948.25
1653.92539210795	2928.5
1656.3441178382	2961.25
1658.76211442575	2965.75
1661.17938219855	3003.5
1663.59592148428	3007.75
1666.01173261032	2991.5
1668.42681590377	3046.5
1670.84117169145	3037
1673.25480029991	3054.75
1675.66770205541	3052.75
1678.07987728393	3077.5
1680.49132631119	3104.5
1682.90204946263	3102.5
1685.31204706342	3078.25
1687.72131943846	3135.75
1690.1298669124	3119.25
1692.53768980957	3139.25
1694.94478845411	3141.75
1697.35116316982	3129.25
1699.75681428031	3179.75
1702.16174210887	3130.5
1704.56594697858	3188.25
1706.96942921222	3185
1709.37218913235	3219.25
1711.77422706125	3181.5
1714.17554332098	3176.75
1716.5761382333	3226.75
1718.97601211977	3192.75
1721.37516530169	3195
1723.77359810006	3239
1726.17131083572	3195.25
1728.56830382922	3216.75
1730.96457740087	3221.25
1733.36013187075	3209
1735.75496755868	3226
1738.14908478428	3244
1740.54248386689	3253
1742.93516512565	3255.5
1745.32712887946	3270.5
1747.71837544697	3260
1750.10890514662	3256
1752.49871829661	3253.75
1754.88781521492	3311
1757.27619621929	3325.75
1759.66386162726	3308.5
1762.05081175612	3330.25
1764.43704692297	3340.25
1766.82256744465	3354
1769.20737363782	3353.5
1771.59146581887	3385.5
1773.97484430405	3358.5
1776.35750940932	3386.5
1778.73946145048	3418.25
1781.12070074309	3393.25
1783.50122760249	3442.5
1785.88104234385	3458.75
1788.26014528209	3470
1790.63853673196	3492
1793.01621700796	3467
1795.39318642443	3554.25
1797.76944529549	3544.25
1800.14499393503	3513.25
1802.51983265681	3487.5
1804.8939617743	3551.25
1807.26738160085	3566
1809.64009244957	3540.75
1812.01209463339	3539.25
1814.38338846504	3621.75
1816.75397425706	3579
1819.12385232181	3602.25
1821.49302297142	3585.25
1823.86148651789	3632.25
1826.22924327299	3598.75
1828.59629354831	3645.25
1830.96263765526	3651.75
1833.32827590507	3647
1835.69320860877	3677.25
1838.05743607724	3661.75
1840.42095862113	3651.75
1842.78377655097	3687.5
1845.14589017707	3647.25
1847.50729980956	3698.25
1849.86800575843	3719.5
1852.22800833346	3669.25
1854.58730784427	3695
1856.94590460032	3702.25
1859.30379891087	3730.75
1861.66099108503	3755.5
1864.01748143175	3779.25
1866.37327025978	3784.5
1868.72835787773	3784
1871.08274459403	3828
1873.43643071697	3837.5
1875.78941655464	3818.5
1878.14170241498	3852.75
1880.4932886058	3880.25
1882.84417543469	3892.25
1885.19436320915	3866
1887.54385223646	3901.25
1889.89264282378	3905.75
1892.24073527809	3905.25
1894.58812990625	3944.25
1896.93482701493	3985.25
1899.28082691067	4019.5
1901.62612989984	4008
1903.97073628868	4015.5
1906.31464638326	3993.75
1908.6578604895	4043.5
1911.00037891321	4114.5
1913.34220196	4047
1915.68332993537	4089.5
1918.02376314468	4037.5
1920.36350189311	4098
1922.70254648573	4103
1925.04089722744	4125.75
1927.37855442303	4078.75
1929.71551837715	4097.5
1932.05178939426	4131
1934.38736777876	4126.75
1936.72225383484	4077.5
1939.0564478666	4182.25
1941.38995017799	4116.25
1943.72276107283	4162.5
1946.05488085479	4143.75
1948.38630982744	4158.25
1950.71704829419	4173.75
1953.04709655832	4151.5
1955.376454923	4120.5
1957.70512369126	4178.5
1960.03310316599	4183.25
1962.36039364999	4123.25
1964.68699544589	4202.25
1967.01290885622	4209
1969.33813418338	4197
1971.66267172965	4167.75
1973.98652179718	4177.75
1976.309684688	4219.5
1978.63216070402	4217.75
1980.95395014705	4295.25
1983.27505331873	4256.75
1985.59547052063	4232.5
1987.9152020542	4266.25
1990.23424822074	4273.75
1992.55260932146	4251
1994.87028565746	4309.75
1997.18727752968	4270.25
1999.503585239	4317
2001.81920908618	4337.75
2004.13414937184	4339.5
2006.44840639651	4400.25
2008.7619804606	4395.5
2011.07487186442	4430
2013.38708090815	4463
2015.6986078919	4482.5
2018.00945311564	4478
2020.31961687923	4462
2022.62909948246	4515.5
2024.93790122498	4459.25
2027.24602240636	4540.25
2029.55346332604	4530.25
2031.86022428337	4536.25
2034.16630557761	4553.75
2036.47170750791	4539.25
2038.77643037331	4533.5
2041.08047447275	4585.25
2043.38384010509	4531.5
2045.68652756907	4584.25
2047.98853716335	4598.5
2050.28986918648	4590
2052.59052393692	4598.75
2054.89050171302	4606
2057.18980281306	4624.75
2059.4884275352	4623.75
2061.78637617753	4656.5
2064.08364903802	4633.25
2066.38024641457	4646.75
2068.67616860497	4673
2070.97141590694	4672
2073.26598861809	4658.25
2075.55988703595	4673
2077.85311145796	4668.25
2080.14566218145	4666
2082.43753950371	4683
2084.72874372188	4727.75
2087.01927513307	4717
2089.30913403428	4722.5
2091.59832072241	4720.75
2093.88683549429	4707.5
2096.17467864666	4735.5
2098.46185047619	4771.75
2100.74835127944	4770.75
2103.03418135292	4816.25
2105.31934099303	4766.5
2107.6038304961	4815
2109.88765015838	4833.5
2112.17080027602	4800.75
2114.45328114513	4863.75
2116.7350930617	4877.75
2119.01623632165	4872
2121.29671122085	4843
2123.57651805505	4873
2125.85565711996	4877
2128.13412871117	4952.5
2130.41193312424	4958.25
2132.68907065462	4895
2134.96554159771	4948
2137.24134624881	4921.25
2139.51648490317	4942.75
2141.79095785593	5006.5
2144.0647654022	5004.25
2146.33790783698	5026.75
2148.61038545524	4981
2150.88219855182	5063.25
2153.15334742154	5075.25
2155.42383235911	5112.5
2157.6936536592	5078.5
2159.9628116164	5098.25
2162.23130652522	5074.75
2164.49913868011	5087.5
2166.76630837544	5081
2169.03281590552	5144.25
2171.2986615646	5108.75
2173.56384564685	5106
2175.82836844637	5086.25
2178.0922302572	5157.5
2180.35543137332	5155.75
2182.61797208862	5202.25
2184.87985269695	5128.5
2187.14107349208	5157.25
2189.40163476773	5131.5
2191.66153681753	5163.25
2193.92077993507	5165.75
2196.17936441386	5142.25
2198.43729054735	5175.25
2200.69455862894	5166.25
2202.95116895194	5174.5
2205.20712180962	5157.25
2207.46241749519	5165.25
2209.71705630179	5203
2211.97103852248	5210.5
2214.2243644503	5181.5
2216.47703437819	5178.25
2218.72904859905	5167.75
2220.98040740571	5201
2223.23111109095	5179.25
2225.4811599475	5213
2227.73055426799	5178
2229.97929434504	5184
2232.22738047118	5185
2234.47481293889	5210.25
2236.72159204058	5261.25
2238.96771806864	5218
2241.21319131536	5161
2243.458012073	5176.25
2245.70218063374	5231.75
2247.94569728973	5235.5
2250.18856233304	5218
2252.4307760557	5141.5
2254.67233874967	5221.5
2256.91325070687	5200
2259.15351221915	5210.25
2261.39312357831	5196.5
2263.63208507611	5169.75
2265.87039700422	5205.75
2268.1080596543	5250.75
2270.34507331792	5210.25
2272.5814382866	5199.75
2274.81715485183	5232
2277.05222330502	5253.75
2279.28664393755	5240.25
2281.52041704072	5195
2283.75354290581	5219.5
2285.98602182401	5214.5
2288.21785408648	5212
2290.44903998434	5232.5
2292.67957980862	5221.5
2294.90947385033	5222.25
2297.1387224004	5225.5
2299.36732574975	5219.25
2301.59528418921	5189.25
2303.82259800958	5231.5
2306.04926750158	5203.75
2308.27529295593	5175.75
2310.50067466325	5230.25
2312.72541291412	5239.25
2314.9495079991	5224.25
2317.17296020866	5233.5
2319.39576983323	5180.25
2321.61793716322	5210.5
2323.83946248894	5215
2326.06034610069	5246.75
2328.28058828871	5194.5
2330.50018934317	5199.5
2332.7191495542	5187.5
2334.93746921192	5261.75
2337.15514860633	5202.25
2339.37218802743	5196.25
2341.58858776516	5180.25
2343.80434810941	5175.75
2346.01946935001	5196.25
2348.23395177675	5194
2350.44779567939	5184.25
2352.66100134759	5151.5
2354.87356907101	5169.5
2357.08549913925	5175.25
2359.29679184185	5178.5
2361.50744746829	5192.25
2363.71746630804	5191.25
2365.92684865048	5109.75
2368.13559478499	5165.5
2370.34370500083	5180.5
2372.55117958727	5155.75
2374.75801883352	5126.5
2376.96422302874	5162.75
2379.16979246202	5101.25
2381.37472742243	5133.25
2383.57902819898	5139.75
2385.78269508063	5059
2387.98572835629	5080.5
2390.18812831482	5084.25
2392.38989524505	5077.25
2394.59102943573	5114.5
2396.79153117559	5089.75
2398.9914007533	5068.25
2401.19063845748	5098.5
2403.38924457672	5064.25
2405.58721939951	5080.5
2407.78456321435	5062.25
2409.98127630966	5031.25
2412.17735897382	5056
2414.37281149517	5083
2416.56763416198	5058.5
2418.76182726249	5078
2420.95539108487	5049
2423.14832591726	5039.25
2425.34063204776	5043.75
2427.53230976439	5047.75
2429.72335935513	5040.5
2431.91378110795	4982.5
2434.10357531071	4980
2436.29274225125	5005
2438.48128221739	5033.25
2440.66919549683	4989.75
2442.8564823773	4952.25
2445.04314314641	4996.75
2447.22917809176	4954.75
2449.4145875009	4993
2451.59937166131	4995.25
2453.78353086044	5002.75
2455.96706538568	4959.75
2458.14997552436	4967.5
2460.33226156379	4937.25
2462.51392379119	4949.75
2464.69496249376	4896.5
2466.87537795862	4902.25
2469.05517047288	4935
2471.23434032357	4900.75
2473.41288779767	4966.75
2475.59081318211	4887
2477.76811676378	4916
2479.9447988295	4888
2482.12085966605	4842
2484.29629956016	4857.5
2486.4711187985	4849
2488.64531766769	4863.75
2490.8188964543	4935.75
2492.99185544484	4888
2495.16419492579	4877.25
2497.33591518353	4851
2499.50701650444	4839.5
2501.67749917482	4891.25
2503.84736348091	4838
2506.01660970891	4824
2508.18523814496	4825
2510.35324907514	4847.5
2512.52064278551	4842
2514.68741956201	4841
2516.85357969058	4891.75
2519.01912345709	4865.25
2521.18405114735	4873.25
2523.34836304711	4833.5
2525.51205944208	4868.5
2527.6751406179	4860.25
2529.83760686016	4837
2531.99945845439	4884.25
2534.16069568606	4889.25
2536.3213188406	4842.5
2538.48132820336	4804.75
2540.64072405965	4838.25
2542.79950669471	4819.25
2544.95767639373	4869.25
2547.11523344184	4800.25
2549.27217812411	4816.75
2551.42851072555	4820.75
2553.58423153111	4842.75
2555.73934082569	4761.75
2557.89383889412	4813.5
2560.04772602118	4802.5
2562.20100249158	4786
2564.35366858996	4768
2566.50572460093	4767.25
2568.65717080901	4731
2570.80800749867	4764.5
2572.95823495433	4751
2575.10785346031	4702
2577.25686330093	4698.75
2579.40526476038	4661
2581.55305812282	4672.5
2583.70024367237	4668.5
2585.84682169303	4668.75
2587.99279246879	4642.5
2590.13815628354	4672.75
2592.28291342112	4644
2594.42706416531	4680
2596.5706087998	4671
2598.71354760826	4692.25
2600.85588087425	4681
2602.99760888127	4659.5
2605.13873191278	4624.5
2607.27925025214	4623.75
2609.41916418269	4596.25
2611.55847398764	4638.25
2613.69717995017	4611.5
2615.83528235339	4667
2617.97278148034	4663
2620.10967761398	4680
2622.2459710372	4633.75
2624.38166203284	4653.75
2626.51675088365	4626.25
2628.65123787231	4586.25
2630.78512328145	4596.25
2632.9184073936	4594.25
2635.05109049124	4662.25
2637.18317285676	4580
2639.31465477248	4658.25
2641.44553652067	4650.5
2643.5758183835	4607.75
2645.70550064309	4603.75
2647.83458358144	4619.25
2649.96306748053	4645
2652.09095262223	4674.5
2654.21823928836	4646.75
2656.34492776063	4633.5
2658.47101832071	4618.5
2660.59651125015	4658
2662.72140683047	4614.25
2664.84570534309	4589.5
2666.96940706934	4611.75
2669.0925122905	4593.75
2671.21502128773	4577.25
2673.33693434215	4624.5
2675.45825173479	4617.5
2677.57897374658	4609.75
2679.69910065839	4612
2681.818632751	4592.75
2683.93757030511	4585.25
2686.05591360133	4592
2688.17366292021	4568.75
2690.29081854218	4587
2692.40738074762	4534.5
2694.52334981681	4529.5
2696.63872602995	4574.25
2698.75350966713	4565
2700.86770100841	4586.75
2702.98130033371	4574
2705.09430792289	4568.5
2707.20672405571	4579.75
2709.31854901185	4628.75
2711.42978307091	4572.25
2713.54042651238	4594.75
2715.65047961567	4597.25
2717.7599426601	4637.75
2719.86881592491	4596.25
2721.97709968924	4649.25
2724.08479423213	4564
2726.19189983255	4635.25
2728.29841676934	4595.25
2730.4043453213	4599.25
2732.5096857671	4568.75
2734.61443838532	4604.75
2736.71860345444	4520
2738.82218125286	4546.5
2740.92517205889	4534
2743.02757615072	4546.25
2745.12939380646	4554.5
2747.23062530411	4550.25
2749.33127092159	4545.5
2751.4313309367	4513.5
2753.53080562716	4529.5
2755.62969527058	4566.5
2757.72800014448	4483.75
2759.82572052625	4568.75
2761.92285669323	4529.75
2764.0194089226	4518.25
2766.11537749147	4536.25
2768.21076267686	4549.75
2770.30556475566	4524.25
2772.39978400465	4518.25
2774.49342070054	4530.25
2776.58647511991	4557.5
2778.67894753923	4537
2780.77083823487	4533.25
2782.8621474831	4523.75
2784.95287556007	4530.25
2787.04302274184	4472.5
2789.13258930433	4456.25
2791.22157552338	4477.25
2793.30998167471	4527.25
2795.39780803392	4572.75
2797.4850548765	4512.25
2799.57172247786	4498
2801.65781111324	4501
2803.74332105781	4515.5
2805.82825258661	4523
2807.91260597457	4511.5
2809.9963814965	4509
2812.07957942711	4537.75
2814.16220004096	4532.75
2816.24424361252	4539.5
2818.32571041614	4540.75
2820.40660072604	4575.5
2822.48691481631	4577
2824.56665296098	4592.25
2826.64581543388	4619.25
2828.72440250876	4659.25
2830.80241445925	4730
2832.87985155885	4833.75
2834.95671408093	4971.5
2837.03300229875	5141.5
2839.10871648544	5380.75
2841.18385691399	5683.5
2843.25842385729	5930.5
2845.33241758808	6115.25
2847.40583837898	6232
2849.4786865025	6182
2851.550962231	6071
2853.6226658367	5938.25
2855.69379759173	5735.25
2857.76435776806	5683.25
2859.83434663753	5566
2861.90376447184	5514
2863.97261154259	5431.25
2866.0408881212	5427
2868.10859447901	5414.5
2870.17573088717	5458
2872.24229761673	5460
2874.30829493859	5584
2876.37372312352	5803.75
2878.43858244215	6232.25
2880.50287316496	6678.5
2882.56659556231	6636
2884.62974990439	6301
2886.69233646129	6012
2888.75435550293	5786
2890.81580729909	5774.75
2892.87669211941	5696.75
2894.93701023339	5645.25
2896.99676191039	5605.5
2899.05594741961	5608
2901.1145670301	5555
2903.1726210108	5479.25
2905.23010963045	5442.75
2907.28703315768	5366.5
2909.34339186096	5356.5
2911.39918600861	5303.25
2913.45441586879	5207.75
2915.50908170952	5211.75
2917.56318379867	5237.5
2919.61672240395	5242.75
2921.66969779291	5210
2923.72211023295	5200.75
2925.77395999134	5210.25
2927.82524733515	5226
2929.87597253132	5177
2931.92613584663	5179.25
2933.97573754769	5067.5
2936.02477790097	5051
2938.07325717276	4967.75
2940.1211756292	4950
2942.16853353626	4849.25
2944.21533115976	4846.25
2946.26156876536	4754.5
2948.30724661853	4739.75
2950.3523649846	4731.25
2952.39692412872	4648.25
2954.44092431587	4738.5
2956.48436581089	4640.5
2958.52724887843	4650.5
2960.56957378296	4634.75
2962.6113407888	4698.75
2964.65255016011	4699.25
2966.69320216083	4658
2968.73329705479	4674.5
2970.77283510559	4694
2972.81181657671	4658.25
2974.8502417314	4662.25
2976.88811083279	4670.25
2978.92542414378	4635.25
2980.96218192713	4680.5
2982.99838444541	4688.5
2985.034031961	4650
2987.06912473612	4723
2989.1036630328	4678.5
2991.13764711288	4686.25
2993.17107723804	4651.25
2995.20395366974	4700.25
2997.23627666931	4715.5
2999.26804649782	4713.75
3001.29926341624	4717.5
3003.32992768528	4735.25
3005.3600395655	4745.25
3007.38959931726	4758
3009.41860720076	4762.25
3011.44706347595	4796.75
3013.47496840263	4734.5
3015.50232224041	4824.25
3017.5291252487	4813
3019.5553776867	4794.25
3021.58107981344	4837.75
3023.60623188773	4826.75
3025.63083416822	4812
3027.65488691331	4868.25
3029.67839038125	4839.25
3031.70134483007	4808
3033.72375051759	4861.25
3035.74560770144	4810.25
3037.76691663907	4884.25
3039.78767758768	4877.5
3041.80789080431	4899
3043.82755654577	4869.25
3045.84667506867	4875.25
3047.8652466294	4882
3049.88327148418	4905.5
3051.90074988899	4880.25
3053.91768209961	4898.75
3055.9340683716	4844
3057.94990896033	4858.5
3059.96520412095	4891.75
3061.97995410838	4911.5
3063.99415917734	4869.25
3066.00781958234	4865.25
3068.02093557766	4916.5
3070.03350741738	4838.25
3072.04553535535	4900.25
3074.05701964521	4893.25
3076.06796054036	4884.5
3078.078358294	4908
3080.08821315912	4886.25
3082.09752538846	4958.5
3084.10629523454	4868.75
3086.11452294967	4897
3088.12220878592	4925.25
3090.12935299515	4942.5
3092.13595582898	4892.5
3094.1420175388	4892.5
3096.14753837579	4899.5
3098.15251859088	4919
3100.15695843477	4916
3102.16085815793	4913.5
3104.16421801061	4900
3106.16703824282	4922.25
3108.16931910432	4938.5
3110.17106084464	4933.25
3112.17226371308	4954.25
3114.17292795872	4971
3116.17305383034	4981.5
3118.17264157657	4934.75
3120.17169144571	4942.25
3122.17020368587	4929
3124.16817854492	4923.75
3126.16561627044	4968
3128.16251710982	5049.75
3130.15888131017	5004.25
3132.15470911837	5009
3134.15000078104	5003.25
3136.14475654455	5010.5
3138.13897665502	5029.25
3140.13266135835	5051
3142.12581090014	5041
3144.11842552577	5081.5
3146.11050548036	5067
3148.10205100875	5099
3150.09306235557	5103.75
3152.08353976515	5023.25
3154.07348348158	5036.5
3156.06289374869	5089.5
3158.05177081006	5002.25
3160.04011490899	5079.75
3162.02792628852	5098
3164.01520519145	5048.5
3166.00195186029	5091.75
3167.98816653728	5109
3169.97384946442	5127.75
3171.95900088344	5113
3173.94362103577	5077.75
3175.92771016259	5066.75
3177.91126850484	5090.5
3179.89429630312	5089.25
3181.87679379782	5079.25
3183.85876122903	5071.75
3185.84019883657	5150.25
3187.82110685997	5120
3189.80148553851	5133.25
3191.78133511116	5170.5
3193.76065581664	5163.5
3195.73944789337	5143
3197.7177115795	5153.75
3199.6954471129	5131
3201.67265473114	5156
3203.64933467153	5120.5
3205.62548717107	5158.25
3207.60111246648	5206.5
3209.57621079421	5195.75
3211.55078239041	5198.75
3213.52482749093	5203.25
3215.49834633133	5231.5
3217.4713391469	5257.5
3219.44380617262	5242.25
3221.41574764317	5271.75
3223.38716379296	5228.5
3225.35805485607	5279.25
3227.32842106631	5223.75
3229.29826265718	5294.25
3231.26757986187	5259.25
3233.2363729133	5269.75
3235.20464204405	5332
3237.17238748643	5328
3239.13960947243	5313.75
3241.10630823374	5322
3243.07248400174	5282
3245.03813700748	5397.75
3247.00326748177	5337.25
3248.96787565503	5381.75
3250.93196175742	5363.25
3252.89552601877	5384.5
3254.8585686686	5364.25
3256.82108993612	5403.75
3258.78309005022	5403.25
3260.74456923948	5389.5
3262.70552773215	5366.5
3264.66596575617	5370.25
3266.62588353916	5418
3268.58528130843	5402.25
3270.54415929094	5370.25
3272.50251771336	5428.5
3274.46035680201	5403
3276.4176767829	5460
3278.37447788171	5405.5
3280.33076032379	5439
3282.28652433416	5405.5
3284.24177013751	5417.75
3286.1964979582	5452.5
3288.15070802027	5443.5
3290.10440054741	5410.25
3292.05757576298	5445.75
3294.01023389001	5413.25
3295.96237515119	5469.25
3297.91399976887	5417
3299.86510796506	5457.75
3301.81569996142	5480
3303.76577597932	5422.5
3305.7153362397	5455
3307.66438096324	5449.5
3309.61291037024	5477.75
3311.56092468064	5469
3313.50842411404	5444
3315.45540888971	5484.75
3317.40187922656	5445.75
3319.34783534315	5435.25
3321.29327745768	5425.25
3323.23820578801	5380.5
3325.18262055164	5402.25
3327.1265219657	5431
3329.06991024699	5471.75
3331.01278561194	5411.5
3332.95514827662	5433.5
3334.89699845674	5494.75
3336.83833636766	5500.25
3338.77916222434	5444.75
3340.71947624143	5451.5
3342.65927863317	5445.75
3344.59856961346	5410.25
3346.53734939584	5440.5
3348.47561819344	5402.75
3350.41337621906	5401
3352.35062368513	5447.5
3354.28736080368	5501.5
3356.22358778637	5412.25
3358.15930484452	5427.25
3360.09451218904	5471.5
3362.02921003047	5499.25
3363.96339857898	5483.25
3365.89707804436	5452.75
3367.83024863602	5423
3369.76291056299	5437.5
3371.69506403389	5451.25
3373.62670925699	5478.5
3375.55784644016	5517.5
3377.4884757909	5492.5
3379.41859751629	5489.5
3381.34821182305	5483.5
3383.27731891749	5510.5
3385.20591900555	5466.25
3387.13401229276	5510.25
3389.06159898426	5525
3390.9886792848	5540.25
3392.91525339872	5517.75
3394.84132152998	5541
3396.76688388213	5548.25
3398.69194065833	5533.75
3400.61649206133	5542.75
3402.54053829348	5595
3404.46407955672	5570.25
3406.3871160526	5553.25
3408.30964798225	5542.5
3410.23167554639	5591.75
3412.15319894535	5533.75
3414.07421837904	5554.5
3415.99473404695	5563.25
3417.91474614817	5578.5
3419.83425488136	5600.75
3421.75326044479	5623.75
3423.67176303631	5563.5
3425.58976285332	5582.75
3427.50726009282	5546.5
3429.42425495143	5589.5
3431.34074762528	5563.75
3433.25673831012	5537
3435.17222720127	5555.75
3437.08721449362	5577.5
3439.00170038164	5528.75
3440.91568505936	5593.75
3442.82916872039	5553.5
3444.74215155791	5577.25
3446.65463376468	5551.25
3448.566615533	5526.25
3450.47809705476	5545.5
3452.3890785214	5511.25
3454.29956012393	5526.5
3456.20954205293	5541.5
3458.11902449853	5532.75
3460.02800765041	5530.5
3461.93649169784	5517.75
3463.84447682962	5533.5
3465.75196323412	5541
3467.65895109925	5561
3469.56544061249	5527.25
3471.47143196086	5505.75
3473.37692533093	5507.25
3475.28192090884	5516.75
3477.18641888026	5526.5
3479.09041943039	5546.75
3480.99392274402	5550.25
3482.89692900545	5542.5
3484.79943839853	5484.5
3486.70145110666	5516
3488.60296731277	5542.25
3490.50398719933	5536.25
3492.40451094836	5480.75
3494.30453874141	5446.25
3496.20407075956	5544.25
3498.10310718342	5546.75
3500.00164819315	5510