201.866871357051	769.5
204.754250281454	767
207.640596790938	756.5
210.525911876299	754.5
213.410196525689	768.5
216.293451724508	773
219.175678455485	767.5
222.056877698662	765.5
224.937050431388	763.75
227.816197628363	777.5
230.694320261602	761.75
233.571419300504	769.5
236.447495711764	768.75
239.322550459507	773.75
242.196584505182	778.25
245.069598807626	774.25
247.941594323078	783.5
250.812572005154	786.25
253.682532804884	775.75
256.551477670699	786
259.419407548456	779
262.286323381439	781.25
265.152226110364	784
268.017116673389	774
270.880996006115	784.75
273.743865041622	783
276.605724710436	786.25
279.466575940562	791.5
282.326419657496	801.75
285.1852567842	793
288.043088241157	785.75
290.899914946349	783
293.75573781526	785
296.610557760898	774.5
299.464375693817	777.75
302.317192522078	781
305.169009151297	783
308.019826484655	777.5
310.86964542287	792
313.718466864233	776.25
316.566291704614	777.25
319.413120837457	784.75
322.258955153804	795.5
325.103795542291	780.5
327.947642889128	783.75
330.79049807819	779.5
333.632361990927	787
336.473235506444	774.75
339.31311950145	779.25
342.152014850322	784.25
344.989922425062	785.75
347.826843095354	784.75
350.662777728528	784.25
353.497727189577	777.25
356.331692341195	786
359.164674043732	780.25
361.996673155267	778.25
364.827690531536	788.25
367.65772702602	782.5
370.486783489887	787.5
373.314860772047	793.75
376.14195971912	791
378.968081175466	779.25
381.793225983212	787
384.617394982201	794.5
387.44058901005	797
390.262808902131	794.5
393.08405549161	783.25
395.904329609395	805
398.723632084213	809.25
401.541963742569	793.25
404.359325408779	795
407.175717904938	787.25
409.991142050982	793.25
412.805598664665	787.5
415.619088561551	791.25
418.43161255505	791.75
421.243171456415	795.75
424.053766074758	789.75
426.863397217017	792.5
429.672065688024	796.25
432.479772290455	805.5
435.286517824879	785.75
438.092303089736	792
440.897128881359	802.5
443.70099599399	794
446.503905219761	793.25
449.305857348711	797
452.106853168796	798.25
454.906893465919	800.25
457.705979023885	801.75
460.504110624439	801.5
463.3012890473	801.5
466.097515070087	802.5
468.892789468424	794
471.687113015869	792
474.48048648395	797
477.272910642198	797.25
480.064386258109	788
482.854914097159	792.75
485.644494922839	791
488.433129496636	797.75
491.220818578047	794
494.007562924584	801
496.793363291785	803
499.578220433217	808
502.362135100473	805
505.145108043209	803.25
507.927140009098	800.75
510.708231743909	800
513.488383991433	800.5
516.267597493556	801.25
519.04587299022	805.75
521.82321121946	797.5
524.599612917398	809.5
527.375078818233	807.25
530.149609654287	805.25
532.923206155967	808
535.695869051804	807.25
538.467599068448	804.75
541.238396930665	805.5
544.008263361364	798.75
546.777199081578	801.75
549.545204810493	800.75
552.312281265436	793.75
555.078429161898	778.25
557.843649213533	791.75
560.607942132156	791.25
563.371308627753	809
566.133749408495	795.5
568.895265180756	798.5
571.655856649064	805
574.415524516189	799.75
577.174269483075	807.5
579.932092248884	805
582.688993510994	808.75
585.444973965023	805.25
588.200034304795	805.75
590.95417522237	811.25
593.70739740807	806
596.459701550433	803.25
599.21108833628	804
601.961558450668	803.75
604.711112576933	788.5
607.459751396673	796.5
610.207475589748	795.75
612.954285834338	800
615.700182806879	794.5
618.445167182101	812.75
621.189239633055	806.25
623.932400831087	805.25
626.674651445839	790.25
629.415992145303	790.5
632.156423595745	798.75
634.895946461813	790
637.634561406449	802.25
640.37226909096	803.5
643.109070174978	791.5
645.844965316508	805.25
648.579955171888	800.25
651.314040395846	799.5
654.047221641456	798.5
656.779499560176	798.25
659.510874801828	786
662.241348014642	801.75
664.97091984524	797.5
667.699590938606	806.25
670.427361938164	789
673.15423348573	800
675.880206221526	798
678.605280784206	798.5
681.329457810829	804.5
684.05273793692	801.75
686.775121796389	795.75
689.49661002163	795.5
692.217203243454	804.75
694.936902091144	796.5
697.655707192425	795.5
700.373619173493	801
703.09063865901	799.25
705.806766272093	795.25
708.522002634378	804.75
711.236348365946	791.5
713.94980408538	808.75
716.662370409762	795.75
719.374047954676	790.25
722.08483733419	785.75
724.794739160909	792.25
727.503754045949	793
730.21188259892	793
732.919125427998	804
735.625483139855	798.5
738.330956339723	793.5
741.035545631374	795.5
743.739251617106	797.5
746.44207489779	800.25
749.144016072852	800
751.845075740272	792.75
754.545254496603	795.25
757.244552936976	795.5
759.94297165508	793.75
762.640511243222	800.25
765.337172292249	798.25
768.032955391649	810
770.727861129482	800.25
773.421890092413	795
776.11504286572	789.75
778.807320033298	794
781.49872217765	807.25
784.18924987991	790.75
786.87890371984	798.25
789.567684275826	800.25
792.255592124908	798
794.94262784276	787.25
797.628792003703	804
800.314085180715	811.25
802.998507945427	808.5
805.682060868145	841.5
808.364744517821	840.75
811.046559462105	850.25
813.727506267311	819.5
816.407585498422	810.25
819.08679771913	797.25
821.765143491822	802.25
824.442623377563	808
827.119237936127	810
829.794987726003	809.75
832.469873304377	800.75
835.143895227167	816.25
837.817054048985	805.5
840.489350323205	814
843.160784601892	812.75
845.831357435894	808.75
848.501069374739	810
851.169920966753	807.75
853.837912758987	799.5
856.505045297232	805.5
859.171319126071	806.5
861.836734788823	805.75
864.501292827579	805.5
867.164993783208	794.25
869.827838195361	805
872.489826602454	806
875.150959541701	800.5
877.811237549104	802
880.470661159456	799
883.129230906357	798.25
885.786947322205	794.75
888.443810938206	805.75
891.099822284385	795.5
893.754981889586	794.25
896.409290281452	804
899.062747986485	798.5
901.715355529999	794.5
904.367113436154	802
907.01802222793	800.25
909.668082427172	799
912.317294554574	792.5
914.965659129659	806.25
917.613176670835	805.25
920.259847695364	807.75
922.90567271936	803.75
925.550652257825	804.75
928.194786824621	801.25
930.838076932512	805.25
933.480523093109	807.75
936.122125816953	807
938.762885613447	802.5
941.402802990899	813
944.041878456523	803.75
946.680112516428	809.75
949.31750567563	806.75
951.954058438081	808.25
954.589771306633	811
957.224644783048	814.75
959.858679368044	810.5
962.491875561238	809.25
965.12423386121	821.5
967.75575476545	825.75
970.386438770423	831.5
973.016286371501	833.25
975.645298063046	826.25
978.273474338355	821
980.900815689674	814
983.527322608243	814
986.152995584245	812.75
988.777835106834	804.75
991.401841664148	807
994.025015743307	812
996.647357830407	807
999.268868410534	807.5
1001.88954796777	813
1004.50939698518	813.75
1007.12841594484	812
1009.74660532783	818
1012.36396561423	821.25
1014.98049728314	808
1017.59620081267	807.25
1020.21107667995	822.25
1022.82512536112	812
1025.43834733138	819.25
1028.05074306493	817.25
1030.66231303501	814
1033.27305771392	822.25
1035.88297757299	824.5
1038.49207308257	819
1041.10034471211	826
1043.70779293008	831.25
1046.31441820402	824
1048.92022100052	816.25
1051.52520178525	814.25
1054.12936102295	828
1056.73269917742	816.75
1059.33521671154	829.75
1061.93691408729	826
1064.53779176571	832.75
1067.13785020694	813.25
1069.73708987022	827.75
1072.33551121386	815.25
1074.93311469528	818
1077.52990077103	832.5
1080.12586989674	840.5
1082.72102252714	843
1085.31535911611	860.75
1087.90888011663	853.25
1090.50158598078	839.75
1093.09347715979	831.5
1095.68455410403	821.75
1098.27481726296	822.25
1100.86426708523	827
1103.45290401857	819
1106.04072850991	831.5
1108.6277410053	827.75
1111.21394194993	826.25
1113.79933178816	832
1116.3839109635	823.25
1118.96767991862	829
1121.55063909539	836
1124.13278893477	839.25
1126.71412987696	841.75
1129.29466236132	831.5
1131.87438682637	831.75
1134.45330370982	828.75
1137.03141344858	834.25
1139.60871647872	839
1142.18521323554	843
1144.7609041535	846.75
1147.33578966629	845
1149.90987020676	861.5
1152.48314620702	841.75
1155.05561809835	855
1157.62728631125	861.25
1160.19815127545	858.75
1162.76821341988	863.25
1165.33747317271	879.75
1167.90593096133	873.25
1170.47358721235	874
1173.04044235163	868.75
1175.60649680425	864.75
1178.17175099454	859.5
1180.73620534607	852
1183.29986028165	848.25
1185.86271622336	863.5
1188.42477359249	842.5
1190.98603280964	846.5
1193.54649429462	840.75
1196.10615846653	848.5
1198.66502574372	840.75
1201.22309654385	845
1203.78037128378	857.5
1206.33685037971	840.25
1208.89253424709	844.75
1211.44742330063	853.75
1214.00151795438	849.5
1216.55481862163	853
1219.10732571497	855.5
1221.65903964631	857.25
1224.20996082683	858.25
1226.760089667	855.75
1229.30942657664	854.5
1231.85797196483	850.25
1234.40572623998	852.5
1236.95268980981	860.5
1239.49886308136	860
1242.04424646098	858.5
1244.58884035435	866.5
1247.13264516647	859.5
1249.67566130166	871
1252.21788916358	869.25
1254.75932915524	861
1257.29998167896	872.5
1259.83984713639	869.5
1262.37892592857	867.5
1264.91721845586	878.75
1267.45472511795	869.25
1269.9914463139	881.25
1272.52738244213	879
1275.0625339004	882.75
1277.59690108587	879.25
1280.130484395	872.75
1282.66328422367	892
1285.19530096712	886.25
1287.72653501993	880.5
1290.25698677608	897.75
1292.78665662894	892.75
1295.31554497125	888.75
1297.8436521951	882.5
1300.37097869203	900.25
1302.89752485292	896.25
1305.42329106805	886.25
1307.94827772713	898
1310.47248521921	912.5
1312.99591393279	902.75
1315.51856425575	891.75
1318.04043657536	909
1320.56153127836	910.5
1323.08184875083	908
1325.6013893783	928.75
1328.12015354572	936.5
1330.63814163744	918.75
1333.15535403727	915.5
1335.67179112839	902.75
1338.18745329347	914.75
1340.70234091454	918.25
1343.21645437314	913.25
1345.72979405019	917.25
1348.24236032607	913
1350.75415358059	924.5
1353.26517419303	925.75
1355.7754225421	934.75
1358.28489900594	933.75
1360.79360396218	934.25
1363.30153778787	914.75
1365.80870085955	919
1368.31509355319	926.25
1370.82071624424	929.75
1373.32556930762	919.25
1375.8296531177	920
1378.33296804832	918.25
1380.83551447282	924.5
1383.33729276399	928.25
1385.83830329408	912
1388.33854643489	907.25
1390.83802255762	912
1393.33673203301	918
1395.83467523128	904
1398.33185252211	914.5
1400.82826427471	918.5
1403.32391085777	914
1405.81879263947	914
1408.31290998752	915
1410.80626326908	912.25
1413.29885285087	918.25
1415.79067909909	905
1418.28174237944	899.5
1420.77204305717	921
1423.26158149702	922.25
1425.75035806323	920
1428.2383731196	922.25
1430.72562702942	918
1433.21212015554	932.75
1435.69785286028	938.25
1438.18282550555	931.25
1440.66703845275	929.25
1443.15049206284	931.75
1445.6331866963	924.75
1448.11512271316	928.25
1450.59630047298	955.75
1453.07672033486	954.75
1455.55638265748	951.75
1458.03528779902	956.5
1460.51343611725	960.25
1462.99082796946	961
1465.46746371252	957
1467.94334370285	936
1470.41846829642	938.25
1472.89283784878	948
1475.36645271503	931.75
1477.83931324983	949.25
1480.31141980743	937.25
1482.78277274164	931
1485.25337240583	922.5
1487.72321915297	931.25
1490.19231333557	937.25
1492.66065530578	932.75
1495.12824541525	943.5
1497.5950840153	927
1500.06117145678	934.75
1502.52650809014	938.25
1504.99109426543	933
1507.45493033227	932.5
1509.91801663992	942.25
1512.38035353717	949
1514.84194137248	940
1517.30278049386	939.5
1519.76287124894	941.25
1522.22221398497	952.75
1524.68080904876	933.5
1527.13865678681	947.75
1529.59575754514	942.25
1532.05211166945	963.5
1534.50771950503	951.5
1536.96258139678	960
1539.41669768924	951.25
1541.87006872656	965
1544.32269485252	961.75
1546.77457641051	969.25
1549.22571374357	978
1551.67610719434	979.75
1554.12575710513	983.25
1556.57466381785	970.25
1559.02282767408	987.25
1561.47024901499	987.75
1563.91692818144	991
1566.3628655139	982.75
1568.80806135249	994
1571.252516037	985.25
1573.6962299068	989.5
1576.13920330099	991.5
1578.58143655828	1004.5
1581.02293001704	1005.25
1583.46368401528	991
1585.90369889071	1003
1588.34297498065	988
1590.7815126221	983
1593.21931215173	982.75
1595.65637390588	998.25
1598.09269822053	996.5
1600.52828543135	1014
1602.96313587367	992.5
1605.3972498825	1019.75
1607.83062779252	983.25
1610.26326993808	991.75
1612.69517665322	994
1615.12634827165	990.5
1617.55678512676	971.25
1619.98648755163	977.5
1622.41545587902	977.25
1624.84369044138	953.75
1627.27119157085	963.5
1629.69795959924	953.75
1632.12399485808	959.75
1634.54929767859	965
1636.97386839165	965.25
1639.39770732789	946.75
1641.8208148176	950
1644.24319119078	948.75
1646.66483677715	958.25
1649.0857519061	955.5
1651.50593690677	955
1653.92539210795	952.25
1656.3441178382	940.25
1658.76211442575	957.75
1661.17938219855	939.5
1663.59592148428	961
1666.01173261032	959.75
1668.42681590377	940.75
1670.84117169145	953.75
1673.25480029991	952
1675.66770205541	955.25
1678.07987728393	954.75
1680.49132631119	949
1682.90204946263	963.5
1685.31204706342	958.75
1687.72131943846	958.5
1690.1298669124	969
1692.53768980957	968.5
1694.94478845411	975.25
1697.35116316982	967.25
1699.75681428031	960.5
1702.16174210887	974.5
1704.56594697858	967
1706.96942921222	980
1709.37218913235	967.25
1711.77422706125	962
1714.17554332098	958.25
1716.5761382333	973.75
1718.97601211977	965.5
1721.37516530169	956.75
1723.77359810006	958.5
1726.17131083572	958.25
1728.56830382922	971.75
1730.96457740087	965.5
1733.36013187075	955.5
1735.75496755868	954.75
1738.14908478428	973
1740.54248386689	954
1742.93516512565	959.25
1745.32712887946	960.75
1747.71837544697	965.25
1750.10890514662	958.25
1752.49871829661	961
1754.88781521492	955.25
1757.27619621929	969.75
1759.66386162726	959.75
1762.05081175612	963
1764.43704692297	955.75
1766.82256744465	962
1769.20737363782	956.5
1771.59146581887	961.75
1773.97484430405	951.5
1776.35750940932	979.5
1778.73946145048	967.75
1781.12070074309	969.25
1783.50122760249	960.5
1785.88104234385	974
1788.26014528209	969
1790.63853673196	970
1793.01621700796	974
1795.39318642443	979
1797.76944529549	978.25
1800.14499393503	988.75
1802.51983265681	974.5
1804.8939617743	995
1807.26738160085	978.75
1809.64009244957	977.25
1812.01209463339	971
1814.38338846504	979.25
1816.75397425706	988.5
1819.12385232181	986.75
1821.49302297142	976.5
1823.86148651789	981
1826.22924327299	974
1828.59629354831	975.25
1830.96263765526	969.75
1833.32827590507	987.25
1835.69320860877	971.25
1838.05743607724	967.75
1840.42095862113	972
1842.78377655097	965.25
1845.14589017707	988.5
1847.50729980956	979.25
1849.86800575843	973.75
1852.22800833346	979
1854.58730784427	970.75
1856.94590460032	974.25
1859.30379891087	983.5
1861.66099108503	993.75
1864.01748143175	976.25
1866.37327025978	995.25
1868.72835787773	996.25
1871.08274459403	984.25
1873.43643071697	978.5
1875.78941655464	986.25
1878.14170241498	995.5
1880.4932886058	987.25
1882.84417543469	1002.75
1885.19436320915	995.75
1887.54385223646	998.5
1889.89264282378	993.25
1892.24073527809	988.75
1894.58812990625	1004.25
1896.93482701493	1003
1899.28082691067	1023.75
1901.62612989984	1005.25
1903.97073628868	1007.25
1906.31464638326	1001.5
1908.6578604895	1007.5
1911.00037891321	1019.75
1913.34220196	1011.5
1915.68332993537	1026.25
1918.02376314468	1023.5
1920.36350189311	1021.25
1922.70254648573	1023.75
1925.04089722744	1006.25
1927.37855442303	1014.75
1929.71551837715	1017.5
1932.05178939426	1011.25
1934.38736777876	1020.25
1936.72225383484	1034.25
1939.0564478666	1019.25
1941.38995017799	1020
1943.72276107283	1010.5
1946.05488085479	1020.75
1948.38630982744	1022.5
1950.71704829419	1029.75
1953.04709655832	1008.5
1955.376454923	1013.75
1957.70512369126	1022
1960.03310316599	1025.25
1962.36039364999	1023.5
1964.68699544589	1027.5
1967.01290885622	1008.75
1969.33813418338	1032
1971.66267172965	1026.25
1973.98652179718	1027
1976.309684688	1017.75
1978.63216070402	1016.25
1980.95395014705	1024.5
1983.27505331873	1021.25
1985.59547052063	1021.75
1987.9152020542	1019.75
1990.23424822074	1024.75
1992.55260932146	1037.25
1994.87028565746	1037.5
1997.18727752968	1025.75
1999.503585239	1022
2001.81920908618	1056.25
2004.13414937184	1038
2006.44840639651	1041.25
2008.7619804606	1033.75
2011.07487186442	1058.5
2013.38708090815	1047.5
2015.6986078919	1054.25
2018.00945311564	1036
2020.31961687923	1040.5
2022.62909948246	1058
2024.93790122498	1045.75
2027.24602240636	1035.25
2029.55346332604	1060
2031.86022428337	1057
2034.16630557761	1052.5
2036.47170750791	1049.75
2038.77643037331	1049.5
2041.08047447275	1051
2043.38384010509	1054.75
2045.68652756907	1074
2047.98853716335	1069.5
2050.28986918648	1058.75
2052.59052393692	1055.5
2054.89050171302	1040.25
2057.18980281306	1065
2059.4884275352	1056.75
2061.78637617753	1058.5
2064.08364903802	1057.25
2066.38024641457	1050.25
2068.67616860497	1050.75
2070.97141590694	1052.25
2073.26598861809	1062.25
2075.55988703595	1061.25
2077.85311145796	1053
2080.14566218145	1064.25
2082.43753950371	1063.75
2084.72874372188	1055
2087.01927513307	1045
2089.30913403428	1051.5
2091.59832072241	1057.5
2093.88683549429	1057.5
2096.17467864666	1056
2098.46185047619	1054.5
2100.74835127944	1060
2103.03418135292	1071
2105.31934099303	1059.5
2107.6038304961	1061.5
2109.88765015838	1069.5
2112.17080027602	1073.5
2114.45328114513	1073.5
2116.7350930617	1071.75
2119.01623632165	1061.5
2121.29671122085	1056.5
2123.57651805505	1061.25
2125.85565711996	1063.5
2128.13412871117	1066.75
2130.41193312424	1075.25
2132.68907065462	1054.5
2134.96554159771	1069.5
2137.24134624881	1072
2139.51648490317	1085.25
2141.79095785593	1066.5
2144.0647654022	1068.75
2146.33790783698	1073.25
2148.61038545524	1078.5
2150.88219855182	1083.5
2153.15334742154	1068.25
2155.42383235911	1079.75
2157.6936536592	1059
2159.9628116164	1078.25
2162.23130652522	1079.75
2164.49913868011	1082
2166.76630837544	1073
2169.03281590552	1068.25
2171.2986615646	1077.5
2173.56384564685	1086.5
2175.82836844637	1086.5
2178.0922302572	1077.75
2180.35543137332	1088
2182.61797208862	1079
2184.87985269695	1087.75
2187.14107349208	1077
2189.40163476773	1078
2191.66153681753	1068.5
2193.92077993507	1085.25
2196.17936441386	1067.25
2198.43729054735	1084.75
2200.69455862894	1075.25
2202.95116895194	1065.5
2205.20712180962	1084
2207.46241749519	1069.5
2209.71705630179	1080.5
2211.97103852248	1071
2214.2243644503	1069.5
2216.47703437819	1078.25
2218.72904859905	1084.75
2220.98040740571	1074
2223.23111109095	1082
2225.4811599475	1079
2227.73055426799	1074.75
2229.97929434504	1076
2232.22738047118	1076.5
2234.47481293889	1077.5
2236.72159204058	1066.75
2238.96771806864	1077.5
2241.21319131536	1089.25
2243.458012073	1078
2245.70218063374	1090.75
2247.94569728973	1081.25
2250.18856233304	1073.5
2252.4307760557	1076.75
2254.67233874967	1083.5
2256.91325070687	1070.5
2259.15351221915	1064.25
2261.39312357831	1079.5
2263.63208507611	1078.5
2265.87039700422	1078.25
2268.1080596543	1079.5
2270.34507331792	1073.75
2272.5814382866	1082
2274.81715485183	1071.25
2277.05222330502	1084.75
2279.28664393755	1091.25
2281.52041704072	1072
2283.75354290581	1077
2285.98602182401	1080
2288.21785408648	1086.75
2290.44903998434	1086.25
2292.67957980862	1084
2294.90947385033	1079.5
2297.1387224004	1085.75
2299.36732574975	1072.5
2301.59528418921	1067.75
2303.82259800958	1087
2306.04926750158	1098
2308.27529295593	1084
2310.50067466325	1072.25
2312.72541291412	1089.75
2314.9495079991	1091.25
2317.17296020866	1075.5
2319.39576983323	1084
2321.61793716322	1091.5
2323.83946248894	1092.25
2326.06034610069	1078.25
2328.28058828871	1095
2330.50018934317	1092.75
2332.7191495542	1084
2334.93746921192	1089.75
2337.15514860633	1092
2339.37218802743	1088
2341.58858776516	1080
2343.80434810941	1086.25
2346.01946935001	1078.75
2348.23395177675	1087.5
2350.44779567939	1098.25
2352.66100134759	1092.75
2354.87356907101	1090.5
2357.08549913925	1084.25
2359.29679184185	1067.75
2361.50744746829	1095.25
2363.71746630804	1079.5
2365.92684865048	1089.5
2368.13559478499	1068.25
2370.34370500083	1083.75
2372.55117958727	1073.75
2374.75801883352	1095.75
2376.96422302874	1062.5
2379.16979246202	1091
2381.37472742243	1072.25
2383.57902819898	1084
2385.78269508063	1066.75
2387.98572835629	1085.25
2390.18812831482	1084
2392.38989524505	1086.75
2394.59102943573	1075.5
2396.79153117559	1077.25
2398.9914007533	1081
2401.19063845748	1072.75
2403.38924457672	1077.5
2405.58721939951	1075.5
2407.78456321435	1077
2409.98127630966	1092.25
2412.17735897382	1067.75
2414.37281149517	1081.5
2416.56763416198	1076.75
2418.76182726249	1077
2420.95539108487	1089
2423.14832591726	1078.75
2425.34063204776	1086.25
2427.53230976439	1077
2429.72335935513	1076.25
2431.91378110795	1067.5
2434.10357531071	1058.75
2436.29274225125	1081
2438.48128221739	1072.75
2440.66919549683	1074.25
2442.8564823773	1083.75
2445.04314314641	1058.25
2447.22917809176	1061.5
2449.4145875009	1072.5
2451.59937166131	1072.5
2453.78353086044	1073.25
2455.96706538568	1073.75
2458.14997552436	1084.5
2460.33226156379	1087.75
2462.51392379119	1060.75
2464.69496249376	1072.75
2466.87537795862	1061
2469.05517047288	1063
2471.23434032357	1065.75
2473.41288779767	1061.75
2475.59081318211	1073.75
2477.76811676378	1071.25
2479.9447988295	1066.5
2482.12085966605	1065.5
2484.29629956016	1063.75
2486.4711187985	1064
2488.64531766769	1068.75
2490.8188964543	1075.5
2492.99185544484	1063.5
2495.16419492579	1056
2497.33591518353	1067.5
2499.50701650444	1068
2501.67749917482	1068.75
2503.84736348091	1069.75
2506.01660970891	1051.25
2508.18523814496	1060
2510.35324907514	1058.5
2512.52064278551	1054.25
2514.68741956201	1055.75
2516.85357969058	1071.5
2519.01912345709	1064.75
2521.18405114735	1057.75
2523.34836304711	1061.25
2525.51205944208	1072
2527.6751406179	1069
2529.83760686016	1077.75
2531.99945845439	1068.25
2534.16069568606	1070
2536.3213188406	1079
2538.48132820336	1062.25
2540.64072405965	1065
2542.79950669471	1065.75
2544.95767639373	1092.5
2547.11523344184	1073.25
2549.27217812411	1069.5
2551.42851072555	1069.75
2553.58423153111	1079.25
2555.73934082569	1070.25
2557.89383889412	1079
2560.04772602118	1079.75
2562.20100249158	1055
2564.35366858996	1059.75
2566.50572460093	1062.5
2568.65717080901	1057
2570.80800749867	1072
2572.95823495433	1064
2575.10785346031	1069
2577.25686330093	1054.25
2579.40526476038	1044.75
2581.55305812282	1073
2583.70024367237	1058.5
2585.84682169303	1033.75
2587.99279246879	1051.75
2590.13815628354	1070.5
2592.28291342112	1065.5
2594.42706416531	1054.75
2596.5706087998	1050.5
2598.71354760826	1051
2600.85588087425	1068.25
2602.99760888127	1060.75
2605.13873191278	1061
2607.27925025214	1060
2609.41916418269	1059.25
2611.55847398764	1060.75
2613.69717995017	1050.5
2615.83528235339	1054.25
2617.97278148034	1065.75
2620.10967761398	1063.75
2622.2459710372	1059.25
2624.38166203284	1053.25
2626.51675088365	1065.75
2628.65123787231	1057.75
2630.78512328145	1070.75
2632.9184073936	1070.5
2635.05109049124	1057.5
2637.18317285676	1074.5
2639.31465477248	1053.75
2641.44553652067	1066
2643.5758183835	1071.25
2645.70550064309	1062.5
2647.83458358144	1082.25
2649.96306748053	1064.5
2652.09095262223	1075.25
2654.21823928836	1057
2656.34492776063	1067
2658.47101832071	1066.75
2660.59651125015	1050.75
2662.72140683047	1065.5
2664.84570534309	1039.25
2666.96940706934	1064
2669.0925122905	1054.25
2671.21502128773	1055.75
2673.33693434215	1069.5
2675.45825173479	1059.25
2677.57897374658	1065.25
2679.69910065839	1060.5
2681.818632751	1052
2683.93757030511	1067.25
2686.05591360133	1059
2688.17366292021	1061
2690.29081854218	1070.5
2692.40738074762	1064.75
2694.52334981681	1060.5
2696.63872602995	1069.75
2698.75350966713	1072.5
2700.86770100841	1072.75
2702.98130033371	1074.75
2705.09430792289	1077.25
2707.20672405571	1074.75
2709.31854901185	1071.25
2711.42978307091	1073.5
2713.54042651238	1064.5
2715.65047961567	1070
2717.7599426601	1067.25
2719.86881592491	1074.5
2721.97709968924	1085.25
2724.08479423213	1080.75
2726.19189983255	1079.25
2728.29841676934	1071.75
2730.4043453213	1080.75
2732.5096857671	1085.25
2734.61443838532	1082
2736.71860345444	1070.5
2738.82218125286	1067.25
2740.92517205889	1073
2743.02757615072	1062.75
2745.12939380646	1076.25
2747.23062530411	1070.25
2749.33127092159	1072.75
2751.4313309367	1074.25
2753.53080562716	1074.25
2755.62969527058	1073.5
2757.72800014448	1079.75
2759.82572052625	1082.5
2761.92285669323	1061.5
2764.0194089226	1078.75
2766.11537749147	1078
2768.21076267686	1059
2770.30556475566	1061.5
2772.39978400465	1071.75
2774.49342070054	1068.75
2776.58647511991	1095.25
2778.67894753923	1088
2780.77083823487	1076.75
2782.8621474831	1065.5
2784.95287556007	1074.75
2787.04302274184	1083
2789.13258930433	1087.75
2791.22157552338	1079.25
2793.30998167471	1070.25
2795.39780803392	1083.5
2797.4850548765	1085.25
2799.57172247786	1078.25
2801.65781111324	1075.25
2803.74332105781	1073.25
2805.82825258661	1064.5
2807.91260597457	1080
2809.9963814965	1083.5
2812.07957942711	1074.25
2814.16220004096	1089.75
2816.24424361252	1092
2818.32571041614	1090.75
2820.40660072604	1087.25
2822.48691481631	1100.5
2824.56665296098	1086.25
2826.64581543388	1100.5
2828.72440250876	1116.5
2830.80241445925	1129.75
2832.87985155885	1130.5
2834.95671408093	1159.5
2837.03300229875	1151.75
2839.10871648544	1171
2841.18385691399	1175.5
2843.25842385729	1157.75
2845.33241758808	1148
2847.40583837898	1146.75
2849.4786865025	1140
2851.550962231	1134.5
2853.6226658367	1132
2855.69379759173	1131.5
2857.76435776806	1131
2859.83434663753	1143.5
2861.90376447184	1174.75
2863.97261154259	1212.75
2866.0408881212	1227.5
2868.10859447901	1234.25
2870.17573088717	1257.25
2872.24229761673	1244.75
2874.30829493859	1239.5
2876.37372312352	1257
2878.43858244215	1260.25
2880.50287316496	1290.25
2882.56659556231	1283
2884.62974990439	1286.75
2886.69233646129	1282.5
2888.75435550293	1262.75
2890.81580729909	1248.75
2892.87669211941	1242.75
2894.93701023339	1244.25
2896.99676191039	1234.5
2899.05594741961	1237
2901.1145670301	1244.75
2903.1726210108	1233
2905.23010963045	1259.75
2907.28703315768	1248.75
2909.34339186096	1235.5
2911.39918600861	1232.25
2913.45441586879	1229
2915.50908170952	1232
2917.56318379867	1225.25
2919.61672240395	1248.75
2921.66969779291	1236.5
2923.72211023295	1235.5
2925.77395999134	1227.75
2927.82524733515	1236.5
2929.87597253132	1213.5
2931.92613584663	1183.5
2933.97573754769	1188.25
2936.02477790097	1160.5
2938.07325717276	1155.5
2940.1211756292	1164.75
2942.16853353626	1141.25
2944.21533115976	1185.75
2946.26156876536	1183.25
2948.30724661853	1198.5
2950.3523649846	1231.5
2952.39692412872	1249.5
2954.44092431587	1243.5
2956.48436581089	1273
2958.52724887843	1307.5
2960.56957378296	1334
2962.6113407888	1312.5
2964.65255016011	1297.5
2966.69320216083	1273
2968.73329705479	1240
2970.77283510559	1205
2972.81181657671	1184.75
2974.8502417314	1157.25
2976.88811083279	1155.75
2978.92542414378	1142.5
2980.96218192713	1145.75
2982.99838444541	1128.25
2985.034031961	1143.25
2987.06912473612	1130.75
2989.1036630328	1119.75
2991.13764711288	1112
2993.17107723804	1134.75
2995.20395366974	1129.75
2997.23627666931	1129.25
2999.26804649782	1133.5
3001.29926341624	1110.75
3003.32992768528	1129.25
3005.3600395655	1115.5
3007.38959931726	1137.25
3009.41860720076	1131.25
3011.44706347595	1125.5
3013.47496840263	1130.25
3015.50232224041	1117
3017.5291252487	1149.75
3019.5553776867	1130.5
3021.58107981344	1122.75
3023.60623188773	1133.25
3025.63083416822	1138.5
3027.65488691331	1128.75
3029.67839038125	1148
3031.70134483007	1134
3033.72375051759	1133.25
3035.74560770144	1152
3037.76691663907	1146.5
3039.78767758768	1149.25
3041.80789080431	1135
3043.82755654577	1134.25
3045.84667506867	1136.5
3047.8652466294	1138.25
3049.88327148418	1141.75
3051.90074988899	1124.75
3053.91768209961	1150.25
3055.9340683716	1139.75
3057.94990896033	1144.25
3059.96520412095	1136.25
3061.97995410838	1143
3063.99415917734	1145
3066.00781958234	1142.75
3068.02093557766	1150.25
3070.03350741738	1129.25
3072.04553535535	1144.5
3074.05701964521	1134.25
3076.06796054036	1137.5
3078.078358294	1133.75
3080.08821315912	1145.25
3082.09752538846	1134.5
3084.10629523454	1130
3086.11452294967	1134
3088.12220878592	1141.5
3090.12935299515	1139.25
3092.13595582898	1127.5
3094.1420175388	1143.25
3096.14753837579	1131.5
3098.15251859088	1130
3100.15695843477	1137.75
3102.16085815793	1147
3104.16421801061	1134.5
3106.16703824282	1129.75
3108.16931910432	1133.5
3110.17106084464	1130.25
3112.17226371308	1158.5
3114.17292795872	1152.5
3116.17305383034	1152.25
3118.17264157657	1139.25
3120.17169144571	1135.75
3122.17020368587	1153
3124.16817854492	1151.5
3126.16561627044	1152.5
3128.16251710982	1163.5
3130.15888131017	1150.75
3132.15470911837	1148.75
3134.15000078104	1161.5
3136.14475654455	1163
3138.13897665502	1164
3140.13266135835	1147.5
3142.12581090014	1135.75
3144.11842552577	1152
3146.11050548036	1151.75
3148.10205100875	1162.75
3150.09306235557	1152.75
3152.08353976515	1149.75
3154.07348348158	1152.75
3156.06289374869	1156.25
3158.05177081006	1160.5
3160.04011490899	1153.75
3162.02792628852	1151.75
3164.01520519145	1154
3166.00195186029	1164.75
3167.98816653728	1170
3169.97384946442	1154.25
3171.95900088344	1149
3173.94362103577	1177.5
3175.92771016259	1145.25
3177.91126850484	1155
3179.89429630312	1144.75
3181.87679379782	1156.5
3183.85876122903	1173
3185.84019883657	1166.5
3187.82110685997	1156
3189.80148553851	1160.75
3191.78133511116	1169.75
3193.76065581664	1156.25
3195.73944789337	1151
3197.7177115795	1174
3199.6954471129	1162.5
3201.67265473114	1154.5
3203.64933467153	1163.5
3205.62548717107	1176.75
3207.60111246648	1153.5
3209.57621079421	1151.5
3211.55078239041	1166.25
3213.52482749093	1152
3215.49834633133	1161.75
3217.4713391469	1164.75
3219.44380617262	1166.5
3221.41574764317	1175.5
3223.38716379296	1149
3225.35805485607	1163.5
3227.32842106631	1177
3229.29826265718	1188.5
3231.26757986187	1152.5
3233.2363729133	1166.5
3235.20464204405	1163
3237.17238748643	1181
3239.13960947243	1188
3241.10630823374	1165.75
3243.07248400174	1175.75
3245.03813700748	1170
3247.00326748177	1172.75
3248.96787565503	1175.25
3250.93196175742	1168.25
3252.89552601877	1167.75
3254.8585686686	1172.25
3256.82108993612	1166.25
3258.78309005022	1169.5
3260.74456923948	1171
3262.70552773215	1170.5
3264.66596575617	1170.5
3266.62588353916	1176.75
3268.58528130843	1173.75
3270.54415929094	1177.75
3272.50251771336	1177.25
3274.46035680201	1175.75
3276.4176767829	1161.25
3278.37447788171	1176.5
3280.33076032379	1194
3282.28652433416	1180.25
3284.24177013751	1176
3286.1964979582	1177.75
3288.15070802027	1175.25
3290.10440054741	1178
3292.05757576298	1168
3294.01023389001	1181
3295.96237515119	1184.75
3297.91399976887	1185.25
3299.86510796506	1184.75
3301.81569996142	1177.75
3303.76577597932	1171.75
3305.7153362397	1178.75
3307.66438096324	1180.75
3309.61291037024	1182
3311.56092468064	1177.5
3313.50842411404	1168
3315.45540888971	1173
3317.40187922656	1175.5
3319.34783534315	1177.5
3321.29327745768	1176.75
3323.23820578801	1163.75
3325.18262055164	1176.25
3327.1265219657	1176
3329.06991024699	1178.25
3331.01278561194	1161.75
3332.95514827662	1169
3334.89699845674	1180.25
3336.83833636766	1163.5
3338.77916222434	1166.25
3340.71947624143	1165.75
3342.65927863317	1155.5
3344.59856961346	1156.5
3346.53734939584	1170.5
3348.47561819344	1154.75
3350.41337621906	1155.25
3352.35062368513	1167.5
3354.28736080368	1163
3356.22358778637	1167.25
3358.15930484452	1176
3360.09451218904	1156.75
3362.02921003047	1145.5
3363.96339857898	1169
3365.89707804436	1161.75
3367.83024863602	1157
3369.76291056299	1170.25
3371.69506403389	1160.75
3373.62670925699	1170.75
3375.55784644016	1167.25
3377.4884757909	1169.75
3379.41859751629	1162
3381.34821182305	1164.25
3383.27731891749	1180
3385.20591900555	1173
3387.13401229276	1179.25
3389.06159898426	1182.5
3390.9886792848	1181.75
3392.91525339872	1181
3394.84132152998	1188
3396.76688388213	1181.25
3398.69194065833	1175.75
3400.61649206133	1171
3402.54053829348	1182.5
3404.46407955672	1173.75
3406.3871160526	1184.75
3408.30964798225	1183.75
3410.23167554639	1199
3412.15319894535	1195.25
3414.07421837904	1170
3415.99473404695	1179.75
3417.91474614817	1175.75
3419.83425488136	1178.5
3421.75326044479	1176.5
3423.67176303631	1170.5
3425.58976285332	1172.75
3427.50726009282	1167.75
3429.42425495143	1182
3431.34074762528	1183.25
3433.25673831012	1169.75
3435.17222720127	1189.75
3437.08721449362	1171.25
3439.00170038164	1198.5
3440.91568505936	1184.75
3442.82916872039	1165.75
3444.74215155791	1171
3446.65463376468	1169.75
3448.566615533	1170.75
3450.47809705476	1164.5
3452.3890785214	1169.25
3454.29956012393	1165
3456.20954205293	1184
3458.11902449853	1173.5
3460.02800765041	1170.25
3461.93649169784	1162
3463.84447682962	1177.5
3465.75196323412	1163
3467.65895109925	1175.75
3469.56544061249	1172
3471.47143196086	1165.75
3473.37692533093	1153
3475.28192090884	1175
3477.18641888026	1165.25
3479.09041943039	1163.75
3480.99392274402	1157.75
3482.89692900545	1181.75
3484.79943839853	1156.75
3486.70145110666	1181.25
3488.60296731277	1172.25
3490.50398719933	1150.5
3492.40451094836	1170
3494.30453874141	1159.25
3496.20407075956	1166.75
3498.10310718342	1166.75
3500.00164819315	1175.25