201.866871357051	725.25
204.754250281454	731.25
207.640596790938	726.5
210.525911876299	729.75
213.410196525689	732.75
216.293451724508	729.75
219.175678455485	720
222.056877698662	728.5
224.937050431388	733.75
227.816197628363	725
230.694320261602	734.25
233.571419300504	732.75
236.447495711764	735
239.322550459507	739.5
242.196584505182	733.75
245.069598807626	740.25
247.941594323078	740.5
250.812572005154	742.25
253.682532804884	749
256.551477670699	747.75
259.419407548456	755.75
262.286323381439	757.25
265.152226110364	752.75
268.017116673389	765.75
270.880996006115	774
273.743865041622	773.5
276.605724710436	776.5
279.466575940562	784
282.326419657496	781.25
285.1852567842	776.75
288.043088241157	761.25
290.899914946349	742.25
293.75573781526	754
296.610557760898	744.25
299.464375693817	749
302.317192522078	749.75
305.169009151297	738.25
308.019826484655	739.75
310.86964542287	736
313.718466864233	726.75
316.566291704614	727.5
319.413120837457	727.5
322.258955153804	730.5
325.103795542291	725.25
327.947642889128	729.5
330.79049807819	718.25
333.632361990927	724.25
336.473235506444	720.25
339.31311950145	723
342.152014850322	722.25
344.989922425062	714.75
347.826843095354	725
350.662777728528	727.25
353.497727189577	723.5
356.331692341195	713.75
359.164674043732	725.75
361.996673155267	718
364.827690531536	724
367.65772702602	726.25
370.486783489887	722.75
373.314860772047	719.25
376.14195971912	717.5
378.968081175466	714.5
381.793225983212	721.5
384.617394982201	726.25
387.44058901005	720.25
390.262808902131	714.5
393.08405549161	722.25
395.904329609395	723.25
398.723632084213	715.25
401.541963742569	720.25
404.359325408779	722.5
407.175717904938	723.25
409.991142050982	720.75
412.805598664665	721.25
415.619088561551	725.75
418.43161255505	725.75
421.243171456415	719.75
424.053766074758	728.25
426.863397217017	722.25
429.672065688024	719.5
432.479772290455	729.25
435.286517824879	722
438.092303089736	721.25
440.897128881359	717
443.70099599399	726.5
446.503905219761	727.75
449.305857348711	721.25
452.106853168796	721
454.906893465919	718.5
457.705979023885	733.75
460.504110624439	721.75
463.3012890473	727
466.097515070087	725.25
468.892789468424	733.25
471.687113015869	736.25
474.48048648395	721.25
477.272910642198	721.75
480.064386258109	721
482.854914097159	728.25
485.644494922839	724.5
488.433129496636	726
491.220818578047	718.75
494.007562924584	726.25
496.793363291785	730.5
499.578220433217	742.25
502.362135100473	724.75
505.145108043209	726
507.927140009098	745.5
510.708231743909	733.75
513.488383991433	734.25
516.267597493556	734.25
519.04587299022	734.25
521.82321121946	739
524.599612917398	737
527.375078818233	735
530.149609654287	740
532.923206155967	726.25
535.695869051804	739.25
538.467599068448	735.75
541.238396930665	731
544.008263361364	733.5
546.777199081578	728.25
549.545204810493	734.75
552.312281265436	738
555.078429161898	732.5
557.843649213533	736.75
560.607942132156	729.75
563.371308627753	730.75
566.133749408495	743.5
568.895265180756	748.5
571.655856649064	750.25
574.415524516189	748
577.174269483075	745.5
579.932092248884	740.75
582.688993510994	751.5
585.444973965023	743.5
588.200034304795	741
590.95417522237	741.25
593.70739740807	746
596.459701550433	737.75
599.21108833628	746.5
601.961558450668	739
604.711112576933	741
607.459751396673	742
610.207475589748	737.5
612.954285834338	737.75
615.700182806879	746.5
618.445167182101	748.75
621.189239633055	762
623.932400831087	771.75
626.674651445839	838
629.415992145303	927
632.156423595745	934
634.895946461813	903
637.634561406449	804.5
640.37226909096	765
643.109070174978	747.75
645.844965316508	746.5
648.579955171888	742.5
651.314040395846	741
654.047221641456	742.5
656.779499560176	740
659.510874801828	746
662.241348014642	754.25
664.97091984524	738.5
667.699590938606	751
670.427361938164	745
673.15423348573	748
675.880206221526	750.75
678.605280784206	747
681.329457810829	750.75
684.05273793692	742.25
686.775121796389	748.5
689.49661002163	745.75
692.217203243454	753.25
694.936902091144	752.75
697.655707192425	768.5
700.373619173493	795.5
703.09063865901	802
705.806766272093	779.5
708.522002634378	766.75
711.236348365946	759
713.94980408538	757.5
716.662370409762	745.75
719.374047954676	744.5
722.08483733419	742
724.794739160909	743.25
727.503754045949	750.5
730.21188259892	748.5
732.919125427998	749.5
735.625483139855	747
738.330956339723	746.5
741.035545631374	752.5
743.739251617106	760.75
746.44207489779	748
749.144016072852	755
751.845075740272	743.75
754.545254496603	763
757.244552936976	758.25
759.94297165508	750.5
762.640511243222	750.25
765.337172292249	753.5
768.032955391649	749.75
770.727861129482	747
773.421890092413	756.5
776.11504286572	752
778.807320033298	757.5
781.49872217765	760.5
784.18924987991	764
786.87890371984	760.75
789.567684275826	781.5
792.255592124908	794.25
794.94262784276	797.25
797.628792003703	791.25
800.314085180715	780.5
802.998507945427	782.75
805.682060868145	780
808.364744517821	781.75
811.046559462105	780.75
813.727506267311	783.75
816.407585498422	788.25
819.08679771913	789.25
821.765143491822	792.5
824.442623377563	796.5
827.119237936127	785.75
829.794987726003	794.25
832.469873304377	799.5
835.143895227167	790.75
837.817054048985	802.75
840.489350323205	819.25
843.160784601892	820.75
845.831357435894	851.75
848.501069374739	879
851.169920966753	957
853.837912758987	1031.5
856.505045297232	1111.75
859.171319126071	1113.75
861.836734788823	1046.5
864.501292827579	959.75
867.164993783208	889
869.827838195361	839
872.489826602454	816.75
875.150959541701	815
877.811237549104	803.75
880.470661159456	796
883.129230906357	803.75
885.786947322205	803.5
888.443810938206	793
891.099822284385	793.25
893.754981889586	783.5
896.409290281452	783.25
899.062747986485	786.75
901.715355529999	789
904.367113436154	783.25
907.01802222793	781.5
909.668082427172	778
912.317294554574	775.25
914.965659129659	785.75
917.613176670835	773.5
920.259847695364	776.25
922.90567271936	775.75
925.550652257825	773.5
928.194786824621	774.75
930.838076932512	769
933.480523093109	785.5
936.122125816953	768
938.762885613447	769.75
941.402802990899	763.25
944.041878456523	764.25
946.680112516428	770.25
949.31750567563	774.75
951.954058438081	779.5
954.589771306633	776
957.224644783048	767
959.858679368044	779
962.491875561238	771
965.12423386121	777
967.75575476545	775.75
970.386438770423	780.5
973.016286371501	780.5
975.645298063046	777
978.273474338355	780
980.900815689674	790.5
983.527322608243	787.25
986.152995584245	793.5
988.777835106834	799.25
991.401841664148	812
994.025015743307	834
996.647357830407	829.75
999.268868410534	846
1001.88954796777	821.75
1004.50939698518	813.25
1007.12841594484	799.5
1009.74660532783	803
1012.36396561423	797.5
1014.98049728314	805
1017.59620081267	788
1020.21107667995	797.5
1022.82512536112	793.25
1025.43834733138	798.75
1028.05074306493	802.75
1030.66231303501	799
1033.27305771392	792
1035.88297757299	802.5
1038.49207308257	790.75
1041.10034471211	792
1043.70779293008	792.5
1046.31441820402	786.5
1048.92022100052	793.25
1051.52520178525	805.5
1054.12936102295	798.5
1056.73269917742	796
1059.33521671154	801.75
1061.93691408729	790
1064.53779176571	799.25
1067.13785020694	792
1069.73708987022	805
1072.33551121386	793
1074.93311469528	807.75
1077.52990077103	821.75
1080.12586989674	826.75
1082.72102252714	841.5
1085.31535911611	860
1087.90888011663	908.5
1090.50158598078	954.5
1093.09347715979	967.25
1095.68455410403	967.75
1098.27481726296	942.25
1100.86426708523	905.5
1103.45290401857	896
1106.04072850991	884.25
1108.6277410053	885
1111.21394194993	902.5
1113.79933178816	905.75
1116.3839109635	907.75
1118.96767991862	899
1121.55063909539	885.25
1124.13278893477	884.5
1126.71412987696	857.25
1129.29466236132	846
1131.87438682637	838
1134.45330370982	828.5
1137.03141344858	826
1139.60871647872	824.75
1142.18521323554	815.25
1144.7609041535	820.5
1147.33578966629	820.75
1149.90987020676	820.25
1152.48314620702	816.5
1155.05561809835	811
1157.62728631125	805
1160.19815127545	808.5
1162.76821341988	808.75
1165.33747317271	806.5
1167.90593096133	823.25
1170.47358721235	830.75
1173.04044235163	851
1175.60649680425	848.25
1178.17175099454	855.25
1180.73620534607	853.75
1183.29986028165	870
1185.86271622336	883.75
1188.42477359249	865.5
1190.98603280964	859.25
1193.54649429462	851.25
1196.10615846653	837
1198.66502574372	823.25
1201.22309654385	819.25
1203.78037128378	817.25
1206.33685037971	802.25
1208.89253424709	801
1211.44742330063	800.75
1214.00151795438	800.25
1216.55481862163	814.25
1219.10732571497	796.5
1221.65903964631	803.5
1224.20996082683	793
1226.760089667	803
1229.30942657664	804.75
1231.85797196483	816
1234.40572623998	810.5
1236.95268980981	813.25
1239.49886308136	818.75
1242.04424646098	823.5
1244.58884035435	828.25
1247.13264516647	829.75
1249.67566130166	821.25
1252.21788916358	832.5
1254.75932915524	843.75
1257.29998167896	847.75
1259.83984713639	852
1262.37892592857	871.5
1264.91721845586	880.75
1267.45472511795	902.75
1269.9914463139	922
1272.52738244213	968.75
1275.0625339004	1006.5
1277.59690108587	1056.75
1280.130484395	1083
1282.66328422367	1104.75
1285.19530096712	1111.75
1287.72653501993	1139.25
1290.25698677608	1143.25
1292.78665662894	1146.5
1295.31554497125	1087.25
1297.8436521951	1027.25
1300.37097869203	974
1302.89752485292	940.25
1305.42329106805	917.5
1307.94827772713	921
1310.47248521921	905.5
1312.99591393279	888.25
1315.51856425575	879.25
1318.04043657536	879.5
1320.56153127836	862.5
1323.08184875083	861.5
1325.6013893783	848.5
1328.12015354572	848.25
1330.63814163744	841.25
1333.15535403727	843
1335.67179112839	845.25
1338.18745329347	828.5
1340.70234091454	841
1343.21645437314	841.75
1345.72979405019	847.25
1348.24236032607	851.5
1350.75415358059	849.5
1353.26517419303	845.75
1355.7754225421	843.25
1358.28489900594	842
1360.79360396218	844.25
1363.30153778787	843.25
1365.80870085955	851.75
1368.31509355319	848.25
1370.82071624424	860.5
1373.32556930762	851.5
1375.8296531177	848.25
1378.33296804832	853.25
1380.83551447282	853.5
1383.33729276399	842
1385.83830329408	841.25
1388.33854643489	839
1390.83802255762	839.25
1393.33673203301	843.25
1395.83467523128	839.75
1398.33185252211	850.5
1400.82826427471	847.25
1403.32391085777	859
1405.81879263947	854.25
1408.31290998752	863.75
1410.80626326908	877.25
1413.29885285087	900.5
1415.79067909909	896.5
1418.28174237944	903.5
1420.77204305717	873.25
1423.26158149702	868.25
1425.75035806323	861
1428.2383731196	847
1430.72562702942	844.5
1433.21212015554	853.5
1435.69785286028	864.75
1438.18282550555	861
1440.66703845275	856.5
1443.15049206284	859.75
1445.6331866963	870.75
1448.11512271316	876.5
1450.59630047298	871.25
1453.07672033486	873.75
1455.55638265748	885
1458.03528779902	882.5
1460.51343611725	889.75
1462.99082796946	896.5
1465.46746371252	882
1467.94334370285	875.25
1470.41846829642	857
1472.89283784878	861.75
1475.36645271503	855
1477.83931324983	855.25
1480.31141980743	840
1482.78277274164	850
1485.25337240583	846.5
1487.72321915297	840.75
1490.19231333557	846.25
1492.66065530578	841
1495.12824541525	855.25
1497.5950840153	855.5
1500.06117145678	842.5
1502.52650809014	845.5
1504.99109426543	837.25
1507.45493033227	854.75
1509.91801663992	855.75
1512.38035353717	846
1514.84194137248	842
1517.30278049386	850
1519.76287124894	839.5
1522.22221398497	851.25
1524.68080904876	850.75
1527.13865678681	843.5
1529.59575754514	846
1532.05211166945	845.75
1534.50771950503	855.5
1536.96258139678	842.75
1539.41669768924	850
1541.87006872656	852.5
1544.32269485252	860
1546.77457641051	864
1549.22571374357	857.25
1551.67610719434	863.25
1554.12575710513	871.25
1556.57466381785	866
1559.02282767408	866.25
1561.47024901499	873
1563.91692818144	864.75
1566.3628655139	868.5
1568.80806135249	872.75
1571.252516037	874.25
1573.6962299068	882.25
1576.13920330099	884.5
1578.58143655828	899.5
1581.02293001704	901
1583.46368401528	891.25
1585.90369889071	895.25
1588.34297498065	898.75
1590.7815126221	912.5
1593.21931215173	919
1595.65637390588	945.5
1598.09269822053	981.75
1600.52828543135	1052.75
1602.96313587367	1154.25
1605.3972498825	1284.25
1607.83062779252	1519
1610.26326993808	1848
1612.69517665322	2117.5
1615.12634827165	2143
1617.55678512676	1829.25
1619.98648755163	1426.25
1622.41545587902	1168.5
1624.84369044138	1028.25
1627.27119157085	973
1629.69795959924	939.25
1632.12399485808	915.5
1634.54929767859	903.5
1636.97386839165	885.5
1639.39770732789	889.5
1641.8208148176	876.75
1644.24319119078	881.5
1646.66483677715	876.5
1649.0857519061	882
1651.50593690677	880.5
1653.92539210795	873
1656.3441178382	882.25
1658.76211442575	883
1661.17938219855	870.25
1663.59592148428	884.5
1666.01173261032	883
1668.42681590377	886.25
1670.84117169145	885
1673.25480029991	885
1675.66770205541	879.5
1678.07987728393	903.75
1680.49132631119	892.75
1682.90204946263	909.75
1685.31204706342	894.25
1687.72131943846	906.5
1690.1298669124	905.75
1692.53768980957	905.75
1694.94478845411	910.75
1697.35116316982	903.5
1699.75681428031	919.25
1702.16174210887	919.75
1704.56594697858	927.75
1706.96942921222	961.25
1709.37218913235	1001.5
1711.77422706125	1048.5
1714.17554332098	1099.25
1716.5761382333	1194.5
1718.97601211977	1303.75
1721.37516530169	1454.5
1723.77359810006	1643.25
1726.17131083572	1743.25
1728.56830382922	1682.5
1730.96457740087	1504.25
1733.36013187075	1354.5
1735.75496755868	1236.5
1738.14908478428	1170.75
1740.54248386689	1115.5
1742.93516512565	1053.25
1745.32712887946	1009.5
1747.71837544697	984.5
1750.10890514662	947.5
1752.49871829661	937.25
1754.88781521492	946.5
1757.27619621929	922
1759.66386162726	911.75
1762.05081175612	915.5
1764.43704692297	908
1766.82256744465	909
1769.20737363782	895.75
1771.59146581887	906.25
1773.97484430405	906.75
1776.35750940932	911.25
1778.73946145048	900.25
1781.12070074309	902.75
1783.50122760249	900.5
1785.88104234385	890.75
1788.26014528209	898
1790.63853673196	898.5
1793.01621700796	900.75
1795.39318642443	910.75
1797.76944529549	898
1800.14499393503	909.25
1802.51983265681	917
1804.8939617743	895
1807.26738160085	907
1809.64009244957	914.5
1812.01209463339	904.25
1814.38338846504	902.5
1816.75397425706	900.5
1819.12385232181	910.5
1821.49302297142	898.75
1823.86148651789	915.5
1826.22924327299	903.75
1828.59629354831	903.75
1830.96263765526	912.25
1833.32827590507	907
1835.69320860877	903.75
1838.05743607724	908
1840.42095862113	906.5
1842.78377655097	907.5
1845.14589017707	906.75
1847.50729980956	898.75
1849.86800575843	901.5
1852.22800833346	907
1854.58730784427	906.75
1856.94590460032	908.25
1859.30379891087	908.5
1861.66099108503	913.25
1864.01748143175	912.75
1866.37327025978	918
1868.72835787773	908.5
1871.08274459403	910
1873.43643071697	907
1875.78941655464	917.75
1878.14170241498	913.5
1880.4932886058	917
1882.84417543469	917.25
1885.19436320915	922
1887.54385223646	926
1889.89264282378	932.75
1892.24073527809	932
1894.58812990625	922.75
1896.93482701493	948.5
1899.28082691067	931.25
1901.62612989984	924
1903.97073628868	940.25
1906.31464638326	925.5
1908.6578604895	932
1911.00037891321	924.5
1913.34220196	933.75
1915.68332993537	937.25
1918.02376314468	947.25
1920.36350189311	935.75
1922.70254648573	938.75
1925.04089722744	957
1927.37855442303	935.25
1929.71551837715	935.5
1932.05178939426	942.75
1934.38736777876	942.75
1936.72225383484	941.75
1939.0564478666	945.5
1941.38995017799	946.5
1943.72276107283	939.75
1946.05488085479	952.25
1948.38630982744	940.25
1950.71704829419	945.25
1953.04709655832	942
1955.376454923	955.25
1957.70512369126	932
1960.03310316599	952.75
1962.36039364999	935.5
1964.68699544589	942.25
1967.01290885622	948.25
1969.33813418338	940.25
1971.66267172965	939
1973.98652179718	941.5
1976.309684688	942.75
1978.63216070402	949
1980.95395014705	950
1983.27505331873	948
1985.59547052063	958
1987.9152020542	955.5
1990.23424822074	963.5
1992.55260932146	951.75
1994.87028565746	951
1997.18727752968	962
1999.503585239	972
2001.81920908618	957.5
2004.13414937184	962.5
2006.44840639651	972.25
2008.7619804606	965.5
2011.07487186442	967.75
2013.38708090815	976
2015.6986078919	961.5
2018.00945311564	980.75
2020.31961687923	981.25
2022.62909948246	978.75
2024.93790122498	969.25
2027.24602240636	984.25
2029.55346332604	980.75
2031.86022428337	981.5
2034.16630557761	983.75
2036.47170750791	988.75
2038.77643037331	983.25
2041.08047447275	995.75
2043.38384010509	995.25
2045.68652756907	993
2047.98853716335	987.5
2050.28986918648	971.25
2052.59052393692	983.25
2054.89050171302	991.75
2057.18980281306	999
2059.4884275352	997.75
2061.78637617753	990.75
2064.08364903802	1000.5
2066.38024641457	981.75
2068.67616860497	1000.75
2070.97141590694	986.25
2073.26598861809	995.75
2075.55988703595	998.75
2077.85311145796	990.5
2080.14566218145	1003.75
2082.43753950371	1003.5
2084.72874372188	1004
2087.01927513307	989
2089.30913403428	1005.5
2091.59832072241	1009.75
2093.88683549429	996.75
2096.17467864666	1009.5
2098.46185047619	1002
2100.74835127944	1015
2103.03418135292	1024
2105.31934099303	1014.75
2107.6038304961	1006
2109.88765015838	1017
2112.17080027602	1011.5
2114.45328114513	1031.5
2116.7350930617	1024.5
2119.01623632165	1021.75
2121.29671122085	1026.75
2123.57651805505	1017.25
2125.85565711996	1020.75
2128.13412871117	1044
2130.41193312424	1027.75
2132.68907065462	1045
2134.96554159771	1040.75
2137.24134624881	1030
2139.51648490317	1039.25
2141.79095785593	1034
2144.0647654022	1043.25
2146.33790783698	1034
2148.61038545524	1052.25
2150.88219855182	1058.5
2153.15334742154	1049
2155.42383235911	1046.75
2157.6936536592	1050.75
2159.9628116164	1045
2162.23130652522	1040.5
2164.49913868011	1042.75
2166.76630837544	1054.75
2169.03281590552	1050
2171.2986615646	1049.5
2173.56384564685	1050.25
2175.82836844637	1057
2178.0922302572	1055.75
2180.35543137332	1057.25
2182.61797208862	1067.25
2184.87985269695	1057.5
2187.14107349208	1056.5
2189.40163476773	1057
2191.66153681753	1065.25
2193.92077993507	1081.25
2196.17936441386	1075
2198.43729054735	1063.75
2200.69455862894	1062.25
2202.95116895194	1072.25
2205.20712180962	1068.25
2207.46241749519	1060.5
2209.71705630179	1072.5
2211.97103852248	1060.25
2214.2243644503	1070.5
2216.47703437819	1079
2218.72904859905	1074.5
2220.98040740571	1082.75
2223.23111109095	1090
2225.4811599475	1077.25
2227.73055426799	1075
2229.97929434504	1085
2232.22738047118	1071.75
2234.47481293889	1070.5
2236.72159204058	1086.75
2238.96771806864	1088
2241.21319131536	1107
2243.458012073	1092.5
2245.70218063374	1085.75
2247.94569728973	1085.5
2250.18856233304	1095.5
2252.4307760557	1095.5
2254.67233874967	1091
2256.91325070687	1088.75
2259.15351221915	1091.5
2261.39312357831	1094
2263.63208507611	1107.5
2265.87039700422	1112.5
2268.1080596543	1095.5
2270.34507331792	1109.5
2272.5814382866	1108.75
2274.81715485183	1101.25
2277.05222330502	1107.25
2279.28664393755	1110
2281.52041704072	1111.25
2283.75354290581	1114.75
2285.98602182401	1110.75
2288.21785408648	1110.25
2290.44903998434	1106.5
2292.67957980862	1115.25
2294.90947385033	1106.75
2297.1387224004	1112.75
2299.36732574975	1131.75
2301.59528418921	1110.75
2303.82259800958	1108.75
2306.04926750158	1127.5
2308.27529295593	1116.5
2310.50067466325	1131.25
2312.72541291412	1131.25
2314.9495079991	1127.25
2317.17296020866	1122.75
2319.39576983323	1132
2321.61793716322	1121.75
2323.83946248894	1128.5
2326.06034610069	1131.5
2328.28058828871	1134.75
2330.50018934317	1147
2332.7191495542	1137
2334.93746921192	1135
2337.15514860633	1138.25
2339.37218802743	1133.25
2341.58858776516	1137.5
2343.80434810941	1127.5
2346.01946935001	1132.5
2348.23395177675	1142.75
2350.44779567939	1147.25
2352.66100134759	1138.25
2354.87356907101	1155
2357.08549913925	1143
2359.29679184185	1131.5
2361.50744746829	1156.75
2363.71746630804	1149.5
2365.92684865048	1144.5
2368.13559478499	1142.75
2370.34370500083	1143
2372.55117958727	1147
2374.75801883352	1147.5
2376.96422302874	1153.25
2379.16979246202	1143.75
2381.37472742243	1149.5
2383.57902819898	1143.5
2385.78269508063	1134.5
2387.98572835629	1144.25
2390.18812831482	1153
2392.38989524505	1159
2394.59102943573	1134.25
2396.79153117559	1138.25
2398.9914007533	1142.5
2401.19063845748	1149
2403.38924457672	1148
2405.58721939951	1141.25
2407.78456321435	1170
2409.98127630966	1152.25
2412.17735897382	1146.5
2414.37281149517	1142
2416.56763416198	1157.5
2418.76182726249	1158
2420.95539108487	1145.75
2423.14832591726	1158.75
2425.34063204776	1146.5
2427.53230976439	1142.5
2429.72335935513	1136.25
2431.91378110795	1157
2434.10357531071	1149.25
2436.29274225125	1151
2438.48128221739	1136
2440.66919549683	1158
2442.8564823773	1148
2445.04314314641	1156.75
2447.22917809176	1160.25
2449.4145875009	1172.25
2451.59937166131	1148.75
2453.78353086044	1162
2455.96706538568	1165.25
2458.14997552436	1159.75
2460.33226156379	1144.25
2462.51392379119	1151.25
2464.69496249376	1148.75
2466.87537795862	1137.25
2469.05517047288	1161
2471.23434032357	1153.25
2473.41288779767	1147.25
2475.59081318211	1162.5
2477.76811676378	1157.75
2479.9447988295	1160
2482.12085966605	1155
2484.29629956016	1154
2486.4711187985	1161
2488.64531766769	1161.5
2490.8188964543	1152.25
2492.99185544484	1156.75
2495.16419492579	1152
2497.33591518353	1155.5
2499.50701650444	1156.25
2501.67749917482	1170
2503.84736348091	1159.75
2506.01660970891	1158.25
2508.18523814496	1150
2510.35324907514	1170.75
2512.52064278551	1145
2514.68741956201	1159.5
2516.85357969058	1163.75
2519.01912345709	1166
2521.18405114735	1170.75
2523.34836304711	1167.25
2525.51205944208	1160.5
2527.6751406179	1172.5
2529.83760686016	1167.25
2531.99945845439	1164.5
2534.16069568606	1172.75
2536.3213188406	1182.5
2538.48132820336	1175.25
2540.64072405965	1186.25
2542.79950669471	1171.5
2544.95767639373	1177.75
2547.11523344184	1189.75
2549.27217812411	1189
2551.42851072555	1183.5
2553.58423153111	1193.5
2555.73934082569	1179.25
2557.89383889412	1188.25
2560.04772602118	1195.25
2562.20100249158	1181.75
2564.35366858996	1175.75
2566.50572460093	1169
2568.65717080901	1162.75
2570.80800749867	1185.5
2572.95823495433	1174.75
2575.10785346031	1177
2577.25686330093	1185
2579.40526476038	1176.25
2581.55305812282	1195.5
2583.70024367237	1192.25
2585.84682169303	1186
2587.99279246879	1181.5
2590.13815628354	1184.25
2592.28291342112	1189
2594.42706416531	1187.75
2596.5706087998	1178.25
2598.71354760826	1199.75
2600.85588087425	1195.75
2602.99760888127	1195.75
2605.13873191278	1181.25
2607.27925025214	1188
2609.41916418269	1204.75
2611.55847398764	1196
2613.69717995017	1207.25
2615.83528235339	1194.5
2617.97278148034	1198.25
2620.10967761398	1205.75
2622.2459710372	1203.25
2624.38166203284	1195.25
2626.51675088365	1194.25
2628.65123787231	1210.25
2630.78512328145	1216.75
2632.9184073936	1188.75
2635.05109049124	1197.25
2637.18317285676	1197.75
2639.31465477248	1203
2641.44553652067	1196.5
2643.5758183835	1201
2645.70550064309	1197.25
2647.83458358144	1200.25
2649.96306748053	1196.75
2652.09095262223	1201
2654.21823928836	1185.25
2656.34492776063	1186.75
2658.47101832071	1174.75
2660.59651125015	1196.25
2662.72140683047	1182.75
2664.84570534309	1184
2666.96940706934	1199.25
2669.0925122905	1180.75
2671.21502128773	1202.25
2673.33693434215	1200.25
2675.45825173479	1203.5
2677.57897374658	1191.5
2679.69910065839	1193.5
2681.818632751	1211
2683.93757030511	1215
2686.05591360133	1193.75
2688.17366292021	1196
2690.29081854218	1186.5
2692.40738074762	1193.5
2694.52334981681	1199.75
2696.63872602995	1190.75
2698.75350966713	1204
2700.86770100841	1200
2702.98130033371	1187.75
2705.09430792289	1185.5
2707.20672405571	1191.25
2709.31854901185	1191.5
2711.42978307091	1202.25
2713.54042651238	1202.25
2715.65047961567	1209.25
2717.7599426601	1196.5
2719.86881592491	1196
2721.97709968924	1214.75
2724.08479423213	1189.5
2726.19189983255	1197.25
2728.29841676934	1186.25
2730.4043453213	1187.25
2732.5096857671	1206.75
2734.61443838532	1194.25
2736.71860345444	1189.5
2738.82218125286	1194.75
2740.92517205889	1186.5
2743.02757615072	1199.75
2745.12939380646	1202.25
2747.23062530411	1187.25
2749.33127092159	1214.75
2751.4313309367	1214
2753.53080562716	1217.75
2755.62969527058	1210.75
2757.72800014448	1192.75
2759.82572052625	1204
2761.92285669323	1208.5
2764.0194089226	1205.25
2766.11537749147	1189
2768.21076267686	1212.5
2770.30556475566	1217.5
2772.39978400465	1210
2774.49342070054	1209.75
2776.58647511991	1212.75
2778.67894753923	1228.75
2780.77083823487	1214.25
2782.8621474831	1212.75
2784.95287556007	1216
2787.04302274184	1210.5
2789.13258930433	1206.5
2791.22157552338	1208
2793.30998167471	1201.75
2795.39780803392	1226
2797.4850548765	1210
2799.57172247786	1215
2801.65781111324	1219.25
2803.74332105781	1208
2805.82825258661	1223.75
2807.91260597457	1218.25
2809.9963814965	1212.5
2812.07957942711	1222.75
2814.16220004096	1209.25
2816.24424361252	1216.5
2818.32571041614	1231.25
2820.40660072604	1208.5
2822.48691481631	1217.25
2824.56665296098	1223.5
2826.64581543388	1220.5
2828.72440250876	1203.5
2830.80241445925	1215.25
2832.87985155885	1193
2834.95671408093	1204.5
2837.03300229875	1211
2839.10871648544	1223.25
2841.18385691399	1229.5
2843.25842385729	1227.25
2845.33241758808	1208.5
2847.40583837898	1219.75
2849.4786865025	1221.75
2851.550962231	1242.5
2853.6226658367	1229.5
2855.69379759173	1236
2857.76435776806	1230.75
2859.83434663753	1248.5
2861.90376447184	1224.5
2863.97261154259	1238.75
2866.0408881212	1244
2868.10859447901	1229.75
2870.17573088717	1251
2872.24229761673	1233
2874.30829493859	1243.75
2876.37372312352	1254.25
2878.43858244215	1242
2880.50287316496	1254.25
2882.56659556231	1258.75
2884.62974990439	1268.5
2886.69233646129	1258.5
2888.75435550293	1259
2890.81580729909	1272.5
2892.87669211941	1269.5
2894.93701023339	1269
2896.99676191039	1285.75
2899.05594741961	1287
2901.1145670301	1281.25
2903.1726210108	1290.75
2905.23010963045	1303.75
2907.28703315768	1311.5
2909.34339186096	1313.5
2911.39918600861	1298.75
2913.45441586879	1282.5
2915.50908170952	1267
2917.56318379867	1277.75
2919.61672240395	1278.75
2921.66969779291	1258.5
2923.72211023295	1253
2925.77395999134	1264.25
2927.82524733515	1268.75
2929.87597253132	1273.75
2931.92613584663	1264.25
2933.97573754769	1272.25
2936.02477790097	1278.25
2938.07325717276	1277.5
2940.1211756292	1283
2942.16853353626	1276
2944.21533115976	1289.25
2946.26156876536	1293.5
2948.30724661853	1324.75
2950.3523649846	1311.5
2952.39692412872	1328.5
2954.44092431587	1352
2956.48436581089	1369.75
2958.52724887843	1371.25
2960.56957378296	1397.25
2962.6113407888	1413.75
2964.65255016011	1431.25
2966.69320216083	1421.5
2968.73329705479	1411.75
2970.77283510559	1388
2972.81181657671	1365.5
2974.8502417314	1357.5
2976.88811083279	1354.5
2978.92542414378	1345.5
2980.96218192713	1311
2982.99838444541	1325.25
2985.034031961	1328.75
2987.06912473612	1322.25
2989.1036630328	1325.75
2991.13764711288	1314
2993.17107723804	1318.75
2995.20395366974	1340.5
2997.23627666931	1367
2999.26804649782	1369.5
3001.29926341624	1376.75
3003.32992768528	1352
3005.3600395655	1349.75
3007.38959931726	1345.75
3009.41860720076	1332
3011.44706347595	1336.25
3013.47496840263	1326.5
3015.50232224041	1303.5
3017.5291252487	1297.75
3019.5553776867	1260
3021.58107981344	1267.5
3023.60623188773	1275.75
3025.63083416822	1285
3027.65488691331	1265.75
3029.67839038125	1277
3031.70134483007	1264.75
3033.72375051759	1273.5
3035.74560770144	1279.75
3037.76691663907	1277
3039.78767758768	1275.75
3041.80789080431	1275.25
3043.82755654577	1277
3045.84667506867	1271.5
3047.8652466294	1276.75
3049.88327148418	1277.75
3051.90074988899	1285.75
3053.91768209961	1289.75
3055.9340683716	1309
3057.94990896033	1309.75
3059.96520412095	1314.25
3061.97995410838	1390
3063.99415917734	1402.25
3066.00781958234	1423.25
3068.02093557766	1447
3070.03350741738	1516.75
3072.04553535535	1554.25
3074.05701964521	1602.25
3076.06796054036	1689
3078.078358294	1794.75
3080.08821315912	1967.75
3082.09752538846	2027.75
3084.10629523454	1875.5
3086.11452294967	1693
3088.12220878592	1556.5
3090.12935299515	1455.75
3092.13595582898	1406.5
3094.1420175388	1387.5
3096.14753837579	1343
3098.15251859088	1313.5
3100.15695843477	1308.25
3102.16085815793	1296.75
3104.16421801061	1293.5
3106.16703824282	1293.25
3108.16931910432	1288.75
3110.17106084464	1285.5
3112.17226371308	1266.75
3114.17292795872	1266.25
3116.17305383034	1283
3118.17264157657	1270.25
3120.17169144571	1267.75
3122.17020368587	1249.75
3124.16817854492	1239.5
3126.16561627044	1257
3128.16251710982	1247.75
3130.15888131017	1259.5
3132.15470911837	1261.5
3134.15000078104	1251.75
3136.14475654455	1256.25
3138.13897665502	1233.5
3140.13266135835	1252.5
3142.12581090014	1245.5
3144.11842552577	1259.75
3146.11050548036	1253.25
3148.10205100875	1251
3150.09306235557	1254.75
3152.08353976515	1254.75
3154.07348348158	1254.75
3156.06289374869	1255
3158.05177081006	1249.25
3160.04011490899	1256
3162.02792628852	1266.5
3164.01520519145	1248
3166.00195186029	1255.25
3167.98816653728	1257.5
3169.97384946442	1258
3171.95900088344	1252.25
3173.94362103577	1255.25
3175.92771016259	1228
3177.91126850484	1245.75
3179.89429630312	1233.25
3181.87679379782	1241.5
3183.85876122903	1254.25
3185.84019883657	1242.5
3187.82110685997	1253.5
3189.80148553851	1245
3191.78133511116	1271.75
3193.76065581664	1251.25
3195.73944789337	1250.25
3197.7177115795	1236.75
3199.6954471129	1245.75
3201.67265473114	1257.75
3203.64933467153	1239.25
3205.62548717107	1254.5
3207.60111246648	1245
3209.57621079421	1253
3211.55078239041	1242.5
3213.52482749093	1254.5
3215.49834633133	1271.5
3217.4713391469	1270.75
3219.44380617262	1255.5
3221.41574764317	1261
3223.38716379296	1263.75
3225.35805485607	1277.75
3227.32842106631	1273.25
3229.29826265718	1284
3231.26757986187	1268
3233.2363729133	1283.75
3235.20464204405	1259.25
3237.17238748643	1259.5
3239.13960947243	1260.5
3241.10630823374	1252.25
3243.07248400174	1247
3245.03813700748	1259
3247.00326748177	1260
3248.96787565503	1236
3250.93196175742	1250.25
3252.89552601877	1262.75
3254.8585686686	1261
3256.82108993612	1246.5
3258.78309005022	1263.25
3260.74456923948	1233
3262.70552773215	1239.75
3264.66596575617	1254
3266.62588353916	1253.75
3268.58528130843	1256.5
3270.54415929094	1234.5
3272.50251771336	1269.25
3274.46035680201	1247.25
3276.4176767829	1257.25
3278.37447788171	1250.5
3280.33076032379	1252.75
3282.28652433416	1263
3284.24177013751	1254
3286.1964979582	1250.25
3288.15070802027	1258.5
3290.10440054741	1263.25
3292.05757576298	1242
3294.01023389001	1243.75
3295.96237515119	1256.25
3297.91399976887	1250.75
3299.86510796506	1259
3301.81569996142	1245.25
3303.76577597932	1248.5
3305.7153362397	1248.25
3307.66438096324	1256.5
3309.61291037024	1252
3311.56092468064	1262.5
3313.50842411404	1257.25
3315.45540888971	1260.25
3317.40187922656	1253.75
3319.34783534315	1250.25
3321.29327745768	1244.25
3323.23820578801	1257
3325.18262055164	1253.25
3327.1265219657	1251.5
3329.06991024699	1266.5
3331.01278561194	1270
3332.95514827662	1250
3334.89699845674	1262
3336.83833636766	1252.5
3338.77916222434	1255.5
3340.71947624143	1256.25
3342.65927863317	1256.25
3344.59856961346	1251.5
3346.53734939584	1273.25
3348.47561819344	1244.75
3350.41337621906	1257.25
3352.35062368513	1243.75
3354.28736080368	1241.75
3356.22358778637	1252.75
3358.15930484452	1258.25
3360.09451218904	1254.75
3362.02921003047	1236.25
3363.96339857898	1254.25
3365.89707804436	1246
3367.83024863602	1228.25
3369.76291056299	1248.5
3371.69506403389	1234.5
3373.62670925699	1263.25
3375.55784644016	1239
3377.4884757909	1245.25
3379.41859751629	1252
3381.34821182305	1253.5
3383.27731891749	1265.25
3385.20591900555	1264.75
3387.13401229276	1253.5
3389.06159898426	1257.75
3390.9886792848	1270.75
3392.91525339872	1259.25
3394.84132152998	1247
3396.76688388213	1256.25
3398.69194065833	1267.25
3400.61649206133	1272
3402.54053829348	1242.5
3404.46407955672	1260.25
3406.3871160526	1252
3408.30964798225	1241.75
3410.23167554639	1253.5
3412.15319894535	1259.25
3414.07421837904	1248.75
3415.99473404695	1278
3417.91474614817	1260.75
3419.83425488136	1261
3421.75326044479	1252.75
3423.67176303631	1252
3425.58976285332	1258
3427.50726009282	1263.75
3429.42425495143	1265
3431.34074762528	1285
3433.25673831012	1250
3435.17222720127	1258
3437.08721449362	1257.25
3439.00170038164	1254.25
3440.91568505936	1247.75
3442.82916872039	1239.5
3444.74215155791	1264
3446.65463376468	1260
3448.566615533	1267.75
3450.47809705476	1245.25
3452.3890785214	1258.5
3454.29956012393	1269.25
3456.20954205293	1245.5
3458.11902449853	1262
3460.02800765041	1253.25
3461.93649169784	1236.25
3463.84447682962	1255.5
3465.75196323412	1259.25
3467.65895109925	1232.5
3469.56544061249	1238
3471.47143196086	1247.25
3473.37692533093	1235.5
3475.28192090884	1254.75
3477.18641888026	1266.5
3479.09041943039	1240.25
3480.99392274402	1245.25
3482.89692900545	1240.75
3484.79943839853	1252
3486.70145110666	1232
3488.60296731277	1233
3490.50398719933	1245.75
3492.40451094836	1232.5
3494.30453874141	1238.75
3496.20407075956	1238
3498.10310718342	1251.5
3500.00164819315	1233.25