201.866871357051	2608
204.754250281454	2629.25
207.640596790938	2637.75
210.525911876299	2631
213.410196525689	2656.25
216.293451724508	2654
219.175678455485	2622
222.056877698662	2645.75
224.937050431388	2649
227.816197628363	2668.75
230.694320261602	2667.25
233.571419300504	2669.5
236.447495711764	2692
239.322550459507	2691.75
242.196584505182	2726.25
245.069598807626	2717.5
247.941594323078	2717
250.812572005154	2725
253.682532804884	2714
256.551477670699	2730.75
259.419407548456	2724.75
262.286323381439	2732
265.152226110364	2755.75
268.017116673389	2737.25
270.880996006115	2745
273.743865041622	2738.25
276.605724710436	2752.5
279.466575940562	2730
282.326419657496	2756.5
285.1852567842	2779.75
288.043088241157	2753.25
290.899914946349	2753.5
293.75573781526	2771.25
296.610557760898	2755.5
299.464375693817	2787
302.317192522078	2748.25
305.169009151297	2783.75
308.019826484655	2779.75
310.86964542287	2770.25
313.718466864233	2735.5
316.566291704614	2750.25
319.413120837457	2751
322.258955153804	2786.75
325.103795542291	2749.25
327.947642889128	2744
330.79049807819	2743
333.632361990927	2762.75
336.473235506444	2768
339.31311950145	2779.25
342.152014850322	2759.25
344.989922425062	2799
347.826843095354	2788
350.662777728528	2798.75
353.497727189577	2796.5
356.331692341195	2824.75
359.164674043732	2835.75
361.996673155267	2815.75
364.827690531536	2859
367.65772702602	2838.75
370.486783489887	2830.5
373.314860772047	2840
376.14195971912	2839.75
378.968081175466	2828.25
381.793225983212	2828.25
384.617394982201	2871.75
387.44058901005	2869.25
390.262808902131	2862
393.08405549161	2900.75
395.904329609395	2943.5
398.723632084213	2892.25
401.541963742569	2927
404.359325408779	2873.5
407.175717904938	2886.25
409.991142050982	2873.75
412.805598664665	2874.75
415.619088561551	2854.25
418.43161255505	2865
421.243171456415	2869.5
424.053766074758	2849.25
426.863397217017	2878
429.672065688024	2888.25
432.479772290455	2903.25
435.286517824879	2899
438.092303089736	2883.75
440.897128881359	2882.75
443.70099599399	2865.5
446.503905219761	2877.25
449.305857348711	2908.25
452.106853168796	2895.25
454.906893465919	2891
457.705979023885	2906.25
460.504110624439	2921.75
463.3012890473	2885.75
466.097515070087	2888.5
468.892789468424	2882.5
471.687113015869	2847.75
474.48048648395	2834
477.272910642198	2835
480.064386258109	2841.25
482.854914097159	2861.25
485.644494922839	2874.75
488.433129496636	2867.5
491.220818578047	2903
494.007562924584	2872
496.793363291785	2889.25
499.578220433217	2921.25
502.362135100473	2926.5
505.145108043209	2931.75
507.927140009098	2922.75
510.708231743909	2907.5
513.488383991433	2895.75
516.267597493556	2935.75
519.04587299022	2949.25
521.82321121946	2931.5
524.599612917398	2942
527.375078818233	2934.75
530.149609654287	2926
532.923206155967	2918
535.695869051804	2916.75
538.467599068448	2932
541.238396930665	2892.75
544.008263361364	2865.25
546.777199081578	2850
549.545204810493	2866.5
552.312281265436	2857.25
555.078429161898	2884.5
557.843649213533	2876.25
560.607942132156	2866.25
563.371308627753	2864.75
566.133749408495	2922.25
568.895265180756	2905
571.655856649064	2879.25
574.415524516189	2908.75
577.174269483075	2917.5
579.932092248884	2919
582.688993510994	2887.75
585.444973965023	2919
588.200034304795	2913.75
590.95417522237	2924.75
593.70739740807	2914.25
596.459701550433	2937
599.21108833628	2892.5
601.961558450668	2908
604.711112576933	2921.75
607.459751396673	2903.25
610.207475589748	2899.5
612.954285834338	2906.25
615.700182806879	2873.75
618.445167182101	2905.75
621.189239633055	2906.75
623.932400831087	2853.5
626.674651445839	2889.75
629.415992145303	2898.25
632.156423595745	2892.25
634.895946461813	2861.25
637.634561406449	2857.25
640.37226909096	2871.75
643.109070174978	2872.5
645.844965316508	2891.5
648.579955171888	2856.25
651.314040395846	2862.25
654.047221641456	2911.75
656.779499560176	2874
659.510874801828	2884.75
662.241348014642	2904.75
664.97091984524	2858.5
667.699590938606	2890.5
670.427361938164	2878.5
673.15423348573	2829.25
675.880206221526	2878.25
678.605280784206	2907
681.329457810829	2876.75
684.05273793692	2866
686.775121796389	2886.25
689.49661002163	2863
692.217203243454	2864.75
694.936902091144	2881.25
697.655707192425	2866
700.373619173493	2837.25
703.09063865901	2846
705.806766272093	2864
708.522002634378	2836.75
711.236348365946	2818.5
713.94980408538	2850.75
716.662370409762	2824.25
719.374047954676	2828.25
722.08483733419	2819.75
724.794739160909	2811.25
727.503754045949	2811
730.21188259892	2843.5
732.919125427998	2846
735.625483139855	2852
738.330956339723	2830.5
741.035545631374	2816.25
743.739251617106	2834.25
746.44207489779	2846.5
749.144016072852	2862
751.845075740272	2864.5
754.545254496603	2873.5
757.244552936976	2851.75
759.94297165508	2883
762.640511243222	2866
765.337172292249	2816
768.032955391649	2867.5
770.727861129482	2885.5
773.421890092413	2824
776.11504286572	2847
778.807320033298	2809
781.49872217765	2833.25
784.18924987991	2813.75
786.87890371984	2822.25
789.567684275826	2833.75
792.255592124908	2816.5
794.94262784276	2808
797.628792003703	2824.5
800.314085180715	2816.75
802.998507945427	2907.5
805.682060868145	2973.75
808.364744517821	3023.75
811.046559462105	2984
813.727506267311	2900.25
816.407585498422	2861.25
819.08679771913	2812.25
821.765143491822	2835.25
824.442623377563	2825.5
827.119237936127	2833.75
829.794987726003	2850
832.469873304377	2871.75
835.143895227167	2857
837.817054048985	2912
840.489350323205	2931.25
843.160784601892	2945.25
845.831357435894	2889
848.501069374739	2849
851.169920966753	2879.25
853.837912758987	2867.25
856.505045297232	2856.5
859.171319126071	2846.25
861.836734788823	2837.5
864.501292827579	2840.5
867.164993783208	2824.5
869.827838195361	2815
872.489826602454	2826.5
875.150959541701	2813.75
877.811237549104	2788
880.470661159456	2839.75
883.129230906357	2772.75
885.786947322205	2812.5
888.443810938206	2824
891.099822284385	2793.5
893.754981889586	2771
896.409290281452	2822
899.062747986485	2850.75
901.715355529999	2852
904.367113436154	2827.75
907.01802222793	2829.5
909.668082427172	2817.75
912.317294554574	2816.25
914.965659129659	2830
917.613176670835	2784.75
920.259847695364	2830.25
922.90567271936	2794
925.550652257825	2850.75
928.194786824621	2820.25
930.838076932512	2825
933.480523093109	2865
936.122125816953	2845.75
938.762885613447	2843.5
941.402802990899	2841.75
944.041878456523	2893.75
946.680112516428	2862.5
949.31750567563	2822.75
951.954058438081	2872.75
954.589771306633	2869
957.224644783048	2851.25
959.858679368044	2890.25
962.491875561238	2877.5
965.12423386121	2893.5
967.75575476545	2928
970.386438770423	2960.75
973.016286371501	2999
975.645298063046	2972.5
978.273474338355	2901.25
980.900815689674	2869.25
983.527322608243	2885.25
986.152995584245	2862
988.777835106834	2896
991.401841664148	2862.5
994.025015743307	2883.25
996.647357830407	2917
999.268868410534	2885.25
1001.88954796777	2910.75
1004.50939698518	2891.25
1007.12841594484	2918.5
1009.74660532783	2909.25
1012.36396561423	2898.75
1014.98049728314	2899.5
1017.59620081267	2903.25
1020.21107667995	2890.75
1022.82512536112	2925.75
1025.43834733138	2921.75
1028.05074306493	2924
1030.66231303501	2925.5
1033.27305771392	2983
1035.88297757299	2994
1038.49207308257	2963
1041.10034471211	2973
1043.70779293008	2939.75
1046.31441820402	2941
1048.92022100052	2954
1051.52520178525	2970.5
1054.12936102295	2991.5
1056.73269917742	2987.75
1059.33521671154	2984
1061.93691408729	2966.75
1064.53779176571	2982.25
1067.13785020694	2982
1069.73708987022	2965.25
1072.33551121386	2983.25
1074.93311469528	2950.5
1077.52990077103	2969.5
1080.12586989674	2979
1082.72102252714	2992
1085.31535911611	2978.25
1087.90888011663	2968.5
1090.50158598078	2965.5
1093.09347715979	3006.75
1095.68455410403	2986
1098.27481726296	2971
1100.86426708523	2998.5
1103.45290401857	3024
1106.04072850991	2999.25
1108.6277410053	3012.75
1111.21394194993	3035.5
1113.79933178816	3009.25
1116.3839109635	3053.75
1118.96767991862	3027.25
1121.55063909539	3068
1124.13278893477	3053.75
1126.71412987696	3063.75
1129.29466236132	3049.75
1131.87438682637	3099.75
1134.45330370982	3095.25
1137.03141344858	3088.75
1139.60871647872	3098.5
1142.18521323554	3088.75
1144.7609041535	3128
1147.33578966629	3155.5
1149.90987020676	3161.5
1152.48314620702	3165.25
1155.05561809835	3180.75
1157.62728631125	3158
1160.19815127545	3159.75
1162.76821341988	3192
1165.33747317271	3218.75
1167.90593096133	3268.5
1170.47358721235	3244.75
1173.04044235163	3238.25
1175.60649680425	3158.5
1178.17175099454	3180
1180.73620534607	3144
1183.29986028165	3153.5
1185.86271622336	3134.5
1188.42477359249	3133
1190.98603280964	3144.75
1193.54649429462	3134.25
1196.10615846653	3123
1198.66502574372	3133.5
1201.22309654385	3130.5
1203.78037128378	3156.75
1206.33685037971	3114.5
1208.89253424709	3118.5
1211.44742330063	3141
1214.00151795438	3161
1216.55481862163	3204.75
1219.10732571497	3216
1221.65903964631	3189.5
1224.20996082683	3195
1226.760089667	3204.75
1229.30942657664	3197.5
1231.85797196483	3212.25
1234.40572623998	3204.5
1236.95268980981	3255.25
1239.49886308136	3251.25
1242.04424646098	3264
1244.58884035435	3290.25
1247.13264516647	3259.5
1249.67566130166	3299.5
1252.21788916358	3256.75
1254.75932915524	3304.5
1257.29998167896	3359.25
1259.83984713639	3336.75
1262.37892592857	3336.25
1264.91721845586	3362.25
1267.45472511795	3365.5
1269.9914463139	3348.75
1272.52738244213	3387.25
1275.0625339004	3397.5
1277.59690108587	3411.25
1280.130484395	3421.25
1282.66328422367	3440
1285.19530096712	3407.75
1287.72653501993	3483.25
1290.25698677608	3474.25
1292.78665662894	3536.25
1295.31554497125	3529
1297.8436521951	3540.25
1300.37097869203	3519.5
1302.89752485292	3539.5
1305.42329106805	3542.5
1307.94827772713	3589.5
1310.47248521921	3567.5
1312.99591393279	3624.75
1315.51856425575	3612.75
1318.04043657536	3604.25
1320.56153127836	3659.75
1323.08184875083	3681.25
1325.6013893783	3712
1328.12015354572	3842.5
1330.63814163744	3832.5
1333.15535403727	3790.25
1335.67179112839	3819.75
1338.18745329347	3797.75
1340.70234091454	3829.5
1343.21645437314	3781.25
1345.72979405019	3805
1348.24236032607	3826
1350.75415358059	3898.75
1353.26517419303	3857
1355.7754225421	3921.25
1358.28489900594	4001
1360.79360396218	4012.25
1363.30153778787	3987.25
1365.80870085955	4022
1368.31509355319	3993.25
1370.82071624424	4043
1373.32556930762	4007.5
1375.8296531177	4036.25
1378.33296804832	4042.25
1380.83551447282	4016
1383.33729276399	4051.75
1385.83830329408	4019.75
1388.33854643489	4015.25
1390.83802255762	4032
1393.33673203301	4078
1395.83467523128	4058.75
1398.33185252211	4077
1400.82826427471	4086.5
1403.32391085777	4095.5
1405.81879263947	4111.75
1408.31290998752	4105.25
1410.80626326908	4118.75
1413.29885285087	4178.75
1415.79067909909	4180.25
1418.28174237944	4204.75
1420.77204305717	4234.75
1423.26158149702	4226.25
1425.75035806323	4289
1428.2383731196	4305.5
1430.72562702942	4358.25
1433.21212015554	4429
1435.69785286028	4432.5
1438.18282550555	4495.5
1440.66703845275	4485.25
1443.15049206284	4501.5
1445.6331866963	4586.5
1448.11512271316	4578.25
1450.59630047298	4689.5
1453.07672033486	4717
1455.55638265748	4787.75
1458.03528779902	4783.75
1460.51343611725	4801.5
1462.99082796946	4810
1465.46746371252	4791.75
1467.94334370285	4784.25
1470.41846829642	4744
1472.89283784878	4824
1475.36645271503	4785
1477.83931324983	4856.5
1480.31141980743	4807.75
1482.78277274164	4816.25
1485.25337240583	4839.25
1487.72321915297	4832.25
1490.19231333557	4815
1492.66065530578	4831.75
1495.12824541525	4889.75
1497.5950840153	4917.25
1500.06117145678	4909.75
1502.52650809014	4933.5
1504.99109426543	4933.75
1507.45493033227	4974.5
1509.91801663992	4988.5
1512.38035353717	5027.5
1514.84194137248	5040.25
1517.30278049386	5041.25
1519.76287124894	5106
1522.22221398497	5104.75
1524.68080904876	5096.5
1527.13865678681	5166.25
1529.59575754514	5168.75
1532.05211166945	5253.5
1534.50771950503	5241.75
1536.96258139678	5299
1539.41669768924	5291.75
1541.87006872656	5333.5
1544.32269485252	5386.5
1546.77457641051	5402
1549.22571374357	5498.25
1551.67610719434	5512.75
1554.12575710513	5537
1556.57466381785	5564.25
1559.02282767408	5553.5
1561.47024901499	5608.75
1563.91692818144	5627
1566.3628655139	5712.75
1568.80806135249	5735.75
1571.252516037	5771.5
1573.6962299068	5865.75
1576.13920330099	5808
1578.58143655828	5836.75
1581.02293001704	5932.25
1583.46368401528	5936
1585.90369889071	5963
1588.34297498065	5978.5
1590.7815126221	5989.5
1593.21931215173	6049.5
1595.65637390588	6038
1598.09269822053	6130.25
1600.52828543135	6212.75
1602.96313587367	6151.25
1605.3972498825	6140.5
1607.83062779252	6130
1610.26326993808	6220.25
1612.69517665322	6227
1615.12634827165	6245.25
1617.55678512676	6196.75
1619.98648755163	6164.5
1622.41545587902	6170.5
1624.84369044138	6208
1627.27119157085	6208.75
1629.69795959924	6251.75
1632.12399485808	6295.25
1634.54929767859	6293.5
1636.97386839165	6345
1639.39770732789	6328.5
1641.8208148176	6328
1644.24319119078	6399.75
1646.66483677715	6460.5
1649.0857519061	6518
1651.50593690677	6498.75
1653.92539210795	6590.75
1656.3441178382	6547.25
1658.76211442575	6642.25
1661.17938219855	6649
1663.59592148428	6719.5
1666.01173261032	6761.5
1668.42681590377	6783.25
1670.84117169145	6849.5
1673.25480029991	6879
1675.66770205541	6943.5
1678.07987728393	6953
1680.49132631119	6990
1682.90204946263	7031
1685.31204706342	7043.5
1687.72131943846	7111.75
1690.1298669124	7172
1692.53768980957	7245
1694.94478845411	7168.5
1697.35116316982	7137.75
1699.75681428031	7247.25
1702.16174210887	7260.5
1704.56594697858	7218
1706.96942921222	7313.5
1709.37218913235	7335.25
1711.77422706125	7361
1714.17554332098	7345.5
1716.5761382333	7417.25
1718.97601211977	7392.25
1721.37516530169	7405.5
1723.77359810006	7374.5
1726.17131083572	7402
1728.56830382922	7438.75
1730.96457740087	7461.25
1733.36013187075	7379.5
1735.75496755868	7471.75
1738.14908478428	7489.5
1740.54248386689	7470.25
1742.93516512565	7531
1745.32712887946	7602.25
1747.71837544697	7558
1750.10890514662	7572.25
1752.49871829661	7608.75
1754.88781521492	7576.25
1757.27619621929	7673.25
1759.66386162726	7663.5
1762.05081175612	7737.25
1764.43704692297	7770.5
1766.82256744465	7676
1769.20737363782	7816
1771.59146581887	7720.75
1773.97484430405	7854
1776.35750940932	7843.75
1778.73946145048	7888.75
1781.12070074309	7894.25
1783.50122760249	7943.5
1785.88104234385	7936
1788.26014528209	7997
1790.63853673196	8077
1793.01621700796	8100.25
1795.39318642443	8120.25
1797.76944529549	8074
1800.14499393503	8158
1802.51983265681	8123
1804.8939617743	8254.75
1807.26738160085	8230.25
1809.64009244957	8264
1812.01209463339	8179.5
1814.38338846504	8322.25
1816.75397425706	8223
1819.12385232181	8367.5
1821.49302297142	8351.75
1823.86148651789	8345.5
1826.22924327299	8373.75
1828.59629354831	8447
1830.96263765526	8428
1833.32827590507	8487.25
1835.69320860877	8435.75
1838.05743607724	8520.25
1840.42095862113	8436.25
1842.78377655097	8537
1845.14589017707	8517.5
1847.50729980956	8486.25
1849.86800575843	8554.5
1852.22800833346	8524.25
1854.58730784427	8570.25
1856.94590460032	8619.75
1859.30379891087	8658.5
1861.66099108503	8674.25
1864.01748143175	8755.75
1866.37327025978	8725.25
1868.72835787773	8702.75
1871.08274459403	8778.5
1873.43643071697	8831.5
1875.78941655464	8914.25
1878.14170241498	8909.5
1880.4932886058	8985
1882.84417543469	9040.75
1885.19436320915	8988.5
1887.54385223646	9071.75
1889.89264282378	9102.25
1892.24073527809	9149.75
1894.58812990625	9238.75
1896.93482701493	9290.75
1899.28082691067	9320.75
1901.62612989984	9385.25
1903.97073628868	9402.5
1906.31464638326	9425.5
1908.6578604895	9425
1911.00037891321	9549.25
1913.34220196	9571
1915.68332993537	9563.5
1918.02376314468	9637.5
1920.36350189311	9605.5
1922.70254648573	9658.25
1925.04089722744	9681.5
1927.37855442303	9712
1929.71551837715	9721.5
1932.05178939426	9653.25
1934.38736777876	9694.75
1936.72225383484	9702.5
1939.0564478666	9817.25
1941.38995017799	9812.25
1943.72276107283	9809.75
1946.05488085479	9770.5
1948.38630982744	9782.5
1950.71704829419	9801.5
1953.04709655832	9718.25
1955.376454923	9836.75
1957.70512369126	9830.75
1960.03310316599	9793.25
1962.36039364999	9829.25
1964.68699544589	9811
1967.01290885622	9877.5
1969.33813418338	9909.25
1971.66267172965	9940.5
1973.98652179718	10005.5
1976.309684688	10057.5
1978.63216070402	10066.25
1980.95395014705	10207.25
1983.27505331873	10021.5
1985.59547052063	10124
1987.9152020542	10172.5
1990.23424822074	10202.75
1992.55260932146	10210.5
1994.87028565746	10250.75
1997.18727752968	10252.75
1999.503585239	10363.5
2001.81920908618	10333.5
2004.13414937184	10396
2006.44840639651	10538.25
2008.7619804606	10577.5
2011.07487186442	10580.5
2013.38708090815	10680.5
2015.6986078919	10700.5
2018.00945311564	10620
2020.31961687923	10655
2022.62909948246	10847.5
2024.93790122498	10847.75
2027.24602240636	10895.25
2029.55346332604	10867.5
2031.86022428337	10929.25
2034.16630557761	10969.75
2036.47170750791	10968.5
2038.77643037331	11000
2041.08047447275	11053.5
2043.38384010509	10953.25
2045.68652756907	11072.25
2047.98853716335	10984.5
2050.28986918648	11068.25
2052.59052393692	11130
2054.89050171302	11158
2057.18980281306	11137.75
2059.4884275352	11190
2061.78637617753	11043
2064.08364903802	11060
2066.38024641457	11097.5
2068.67616860497	11169.25
2070.97141590694	11122.5
2073.26598861809	11154.25
2075.55988703595	11026.5
2077.85311145796	11067.75
2080.14566218145	11091
2082.43753950371	11141.25
2084.72874372188	11022.5
2087.01927513307	11053.5
2089.30913403428	11045.75
2091.59832072241	11113.25
2093.88683549429	11023.5
2096.17467864666	11109.25
2098.46185047619	11167.25
2100.74835127944	11077.75
2103.03418135292	11205
2105.31934099303	11094.25
2107.6038304961	11103
2109.88765015838	11210.25
2112.17080027602	11145.75
2114.45328114513	11166.25
2116.7350930617	11203
2119.01623632165	11202
2121.29671122085	11124.5
2123.57651805505	11227.25
2125.85565711996	11257
2128.13412871117	11295
2130.41193312424	11295.5
2132.68907065462	11328.75
2134.96554159771	11302.25
2137.24134624881	11340
2139.51648490317	11257.5
2141.79095785593	11358.5
2144.0647654022	11386.25
2146.33790783698	11376.75
2148.61038545524	11328.75
2150.88219855182	11440.25
2153.15334742154	11380
2155.42383235911	11463.75
2157.6936536592	11383.75
2159.9628116164	11343.75
2162.23130652522	11350.5
2164.49913868011	11418.25
2166.76630837544	11407.25
2169.03281590552	11376.25
2171.2986615646	11388
2173.56384564685	11363
2175.82836844637	11290
2178.0922302572	11351.75
2180.35543137332	11357
2182.61797208862	11239
2184.87985269695	11216
2187.14107349208	11304.25
2189.40163476773	11278.5
2191.66153681753	11278
2193.92077993507	11090.25
2196.17936441386	11165.25
2198.43729054735	11149
2200.69455862894	11148
2202.95116895194	11167.5
2205.20712180962	11085.25
2207.46241749519	11119.75
2209.71705630179	11134.5
2211.97103852248	11082
2214.2243644503	11104.5
2216.47703437819	11069.5
2218.72904859905	10965.75
2220.98040740571	11087.75
2223.23111109095	11013.25
2225.4811599475	10936.25
2227.73055426799	11027.75
2229.97929434504	10967.25
2232.22738047118	10864.5
2234.47481293889	10909.75
2236.72159204058	11047
2238.96771806864	10960.25
2241.21319131536	10917.75
2243.458012073	10829.5
2245.70218063374	10900.5
2247.94569728973	10914.5
2250.18856233304	10826.75
2252.4307760557	10752.75
2254.67233874967	10756.25
2256.91325070687	10722.75
2259.15351221915	10753.25
2261.39312357831	10740.25
2263.63208507611	10698.5
2265.87039700422	10706.25
2268.1080596543	10819
2270.34507331792	10687
2272.5814382866	10655
2274.81715485183	10612.5
2277.05222330502	10748.25
2279.28664393755	10667.5
2281.52041704072	10610.25
2283.75354290581	10660.75
2285.98602182401	10639
2288.21785408648	10615.5
2290.44903998434	10606.5
2292.67957980862	10567.25
2294.90947385033	10504.75
2297.1387224004	10557.5
2299.36732574975	10584.25
2301.59528418921	10551
2303.82259800958	10574
2306.04926750158	10485.25
2308.27529295593	10432.25
2310.50067466325	10502.75
2312.72541291412	10545
2314.9495079991	10470.75
2317.17296020866	10473.75
2319.39576983323	10481
2321.61793716322	10458.5
2323.83946248894	10351
2326.06034610069	10394.75
2328.28058828871	10416.25
2330.50018934317	10359.25
2332.7191495542	10329.75
2334.93746921192	10326.75
2337.15514860633	10293.5
2339.37218802743	10307.5
2341.58858776516	10214
2343.80434810941	10206.5
2346.01946935001	10194.25
2348.23395177675	10198
2350.44779567939	10247.5
2352.66100134759	10119.5
2354.87356907101	10153.75
2357.08549913925	10144.25
2359.29679184185	10114.5
2361.50744746829	10150.5
2363.71746630804	10087.75
2365.92684865048	10037.75
2368.13559478499	10036.75
2370.34370500083	10058
2372.55117958727	10007.5
2374.75801883352	9973.75
2376.96422302874	9936.75
2379.16979246202	9877.75
2381.37472742243	9916.5
2383.57902819898	9902
2385.78269508063	9806
2387.98572835629	9874
2390.18812831482	9832.5
2392.38989524505	9782
2394.59102943573	9860.25
2396.79153117559	9829
2398.9914007533	9760.25
2401.19063845748	9732.25
2403.38924457672	9721.25
2405.58721939951	9699.25
2407.78456321435	9662.75
2409.98127630966	9636
2412.17735897382	9614
2414.37281149517	9601.75
2416.56763416198	9625.75
2418.76182726249	9641.75
2420.95539108487	9592.25
2423.14832591726	9535
2425.34063204776	9517.5
2427.53230976439	9499.75
2429.72335935513	9469.75
2431.91378110795	9501.25
2434.10357531071	9443.5
2436.29274225125	9469.25
2438.48128221739	9439.5
2440.66919549683	9417.25
2442.8564823773	9471.25
2445.04314314641	9342.5
2447.22917809176	9420.25
2449.4145875009	9424.75
2451.59937166131	9331
2453.78353086044	9334
2455.96706538568	9351.75
2458.14997552436	9305.75
2460.33226156379	9240.25
2462.51392379119	9261.75
2464.69496249376	9232
2466.87537795862	9219.5
2469.05517047288	9182.5
2471.23434032357	9183
2473.41288779767	9205.75
2475.59081318211	9137.75
2477.76811676378	9134
2479.9447988295	9083.75
2482.12085966605	9059
2484.29629956016	9054
2486.4711187985	9076.75
2488.64531766769	9108.25
2490.8188964543	9023.5
2492.99185544484	9100.75
2495.16419492579	8993.5
2497.33591518353	9031.25
2499.50701650444	9039
2501.67749917482	8996.5
2503.84736348091	9012
2506.01660970891	9031.75
2508.18523814496	8986
2510.35324907514	9030
2512.52064278551	9034.25
2514.68741956201	9082.5
2516.85357969058	9115
2519.01912345709	9098
2521.18405114735	9024.5
2523.34836304711	9010
2525.51205944208	8991.75
2527.6751406179	9012.25
2529.83760686016	9012.5
2531.99945845439	8999.75
2534.16069568606	9058
2536.3213188406	9056
2538.48132820336	8995.75
2540.64072405965	9010.25
2542.79950669471	8953
2544.95767639373	9109
2547.11523344184	9019
2549.27217812411	8953.25
2551.42851072555	9020.25
2553.58423153111	8969.5
2555.73934082569	8896.25
2557.89383889412	8930.5
2560.04772602118	8956.75
2562.20100249158	8892.75
2564.35366858996	8866.75
2566.50572460093	8883.75
2568.65717080901	8814.25
2570.80800749867	8853.25
2572.95823495433	8808.25
2575.10785346031	8764
2577.25686330093	8745.75
2579.40526476038	8682.25
2581.55305812282	8703
2583.70024367237	8614.25
2585.84682169303	8658.25
2587.99279246879	8656
2590.13815628354	8600.25
2592.28291342112	8615.5
2594.42706416531	8621
2596.5706087998	8603.5
2598.71354760826	8671.75
2600.85588087425	8565.5
2602.99760888127	8619.5
2605.13873191278	8570.5
2607.27925025214	8478.75
2609.41916418269	8552.25
2611.55847398764	8628.5
2613.69717995017	8519.5
2615.83528235339	8650
2617.97278148034	8609.25
2620.10967761398	8601.5
2622.2459710372	8563.75
2624.38166203284	8602.25
2626.51675088365	8535.25
2628.65123787231	8539.5
2630.78512328145	8542.75
2632.9184073936	8539.25
2635.05109049124	8578
2637.18317285676	8540
2639.31465477248	8552.5
2641.44553652067	8604.25
2643.5758183835	8528.75
2645.70550064309	8575.5
2647.83458358144	8557.5
2649.96306748053	8666.5
2652.09095262223	8660
2654.21823928836	8674.75
2656.34492776063	8568
2658.47101832071	8616.25
2660.59651125015	8654.5
2662.72140683047	8614.75
2664.84570534309	8578.5
2666.96940706934	8628.75
2669.0925122905	8553.5
2671.21502128773	8576.25
2673.33693434215	8615.75
2675.45825173479	8598.25
2677.57897374658	8617.5
2679.69910065839	8647
2681.818632751	8553.75
2683.93757030511	8558.25
2686.05591360133	8498.5
2688.17366292021	8549.25
2690.29081854218	8522.75
2692.40738074762	8468.25
2694.52334981681	8597
2696.63872602995	8474.5
2698.75350966713	8541
2700.86770100841	8553.75
2702.98130033371	8585.75
2705.09430792289	8602.5
2707.20672405571	8586.25
2709.31854901185	8620.25
2711.42978307091	8547.25
2713.54042651238	8622
2715.65047961567	8583.25
2717.7599426601	8556.75
2719.86881592491	8648
2721.97709968924	8668.5
2724.08479423213	8645.75
2726.19189983255	8641.75
2728.29841676934	8650
2730.4043453213	8696
2732.5096857671	8705.5
2734.61443838532	8684.75
2736.71860345444	8647.75
2738.82218125286	8682
2740.92517205889	8656.5
2743.02757615072	8704.25
2745.12939380646	8624.5
2747.23062530411	8694.25
2749.33127092159	8714.5
2751.4313309367	8704.75
2753.53080562716	8725.5
2755.62969527058	8741.5
2757.72800014448	8703.75
2759.82572052625	8672.5
2761.92285669323	8717.75
2764.0194089226	8728.25
2766.11537749147	8755
2768.21076267686	8748.25
2770.30556475566	8747.25
2772.39978400465	8761.75
2774.49342070054	8715.25
2776.58647511991	8738.25
2778.67894753923	8704.25
2780.77083823487	8755.75
2782.8621474831	8700.75
2784.95287556007	8751.5
2787.04302274184	8718.75
2789.13258930433	8791.5
2791.22157552338	8735
2793.30998167471	8714.75
2795.39780803392	8818.25
2797.4850548765	8799
2799.57172247786	8706.75
2801.65781111324	8786
2803.74332105781	8821.75
2805.82825258661	8781.25
2807.91260597457	8819
2809.9963814965	8856.25
2812.07957942711	8874.25
2814.16220004096	8781.75
2816.24424361252	8799.25
2818.32571041614	8850
2820.40660072604	8853
2822.48691481631	8932.25
2824.56665296098	8928
2826.64581543388	8943
2828.72440250876	9085
2830.80241445925	9102.5
2832.87985155885	9190.75
2834.95671408093	9348.75
2837.03300229875	9511.5
2839.10871648544	9501.5
2841.18385691399	9565.25
2843.25842385729	9541.75
2845.33241758808	9395.75
2847.40583837898	9402.25
2849.4786865025	9399.5
2851.550962231	9355.5
2853.6226658367	9403.25
2855.69379759173	9365
2857.76435776806	9372.5
2859.83434663753	9496.25
2861.90376447184	9692
2863.97261154259	9820.75
2866.0408881212	9990.25
2868.10859447901	10018
2870.17573088717	10015.25
2872.24229761673	9981.75
2874.30829493859	10041.75
2876.37372312352	10092.25
2878.43858244215	10316.25
2880.50287316496	10377.5
2882.56659556231	10405.25
2884.62974990439	10459.25
2886.69233646129	10373.25
2888.75435550293	10322.75
2890.81580729909	10300.25
2892.87669211941	10152.5
2894.93701023339	10168.75
2896.99676191039	10207.5
2899.05594741961	10245
2901.1145670301	10277.25
2903.1726210108	10310.75
2905.23010963045	10426.5
2907.28703315768	10322.25
2909.34339186096	10258.75
2911.39918600861	10295.75
2913.45441586879	10110.25
2915.50908170952	10079.75
2917.56318379867	10099.75
2919.61672240395	10115.25
2921.66969779291	10102.75
2923.72211023295	10146.75
2925.77395999134	10156
2927.82524733515	10132
2929.87597253132	10085
2931.92613584663	10010
2933.97573754769	9930.25
2936.02477790097	9884.75
2938.07325717276	9797.25
2940.1211756292	9853
2942.16853353626	9863
2944.21533115976	9915.25
2946.26156876536	9994
2948.30724661853	10062
2950.3523649846	10157.25
2952.39692412872	10245.75
2954.44092431587	10236.25
2956.48436581089	10222
2958.52724887843	10292
2960.56957378296	10383.25
2962.6113407888	10405.75
2964.65255016011	10266.25
2966.69320216083	10285
2968.73329705479	10091.75
2970.77283510559	9972.5
2972.81181657671	9901.5
2974.8502417314	9889.75
2976.88811083279	9792
2978.92542414378	9853.5
2980.96218192713	9786
2982.99838444541	9816.75
2985.034031961	9813.25
2987.06912473612	9845.75
2989.1036630328	9855.25
2991.13764711288	9757.5
2993.17107723804	9771
2995.20395366974	9836
2997.23627666931	9882
2999.26804649782	9841
3001.29926341624	9930.5
3003.32992768528	9943.75
3005.3600395655	9927
3007.38959931726	9980.25
3009.41860720076	10036.25
3011.44706347595	10116.75
3013.47496840263	10049.75
3015.50232224041	10105.5
3017.5291252487	10200
3019.5553776867	10063.25
3021.58107981344	10192
3023.60623188773	10213
3025.63083416822	10186.25
3027.65488691331	10296.25
3029.67839038125	10259.5
3031.70134483007	10238.25
3033.72375051759	10362.25
3035.74560770144	10332.75
3037.76691663907	10332.75
3039.78767758768	10380.25
3041.80789080431	10397.75
3043.82755654577	10402.5
3045.84667506867	10399
3047.8652466294	10434
3049.88327148418	10412.25
3051.90074988899	10410
3053.91768209961	10362.25
3055.9340683716	10381
3057.94990896033	10385.25
3059.96520412095	10501
3061.97995410838	10487
3063.99415917734	10543
3066.00781958234	10497.75
3068.02093557766	10507
3070.03350741738	10433.75
3072.04553535535	10533.5
3074.05701964521	10462.25
3076.06796054036	10480.5
3078.078358294	10413.75
3080.08821315912	10499.5
3082.09752538846	10624.25
3084.10629523454	10395.5
3086.11452294967	10560.75
3088.12220878592	10531.75
3090.12935299515	10571.25
3092.13595582898	10522.75
3094.1420175388	10575.75
3096.14753837579	10572.75
3098.15251859088	10534.5
3100.15695843477	10543.75
3102.16085815793	10572.75
3104.16421801061	10587.25
3106.16703824282	10569.5
3108.16931910432	10625.5
3110.17106084464	10601
3112.17226371308	10630
3114.17292795872	10720.25
3116.17305383034	10751.75
3118.17264157657	10624
3120.17169144571	10729.75
3122.17020368587	10633.75
3124.16817854492	10704.5
3126.16561627044	10694.5
3128.16251710982	10804
3130.15888131017	10776.25
3132.15470911837	10868.5
3134.15000078104	10833.5
3136.14475654455	10805.25
3138.13897665502	10860.5
3140.13266135835	10893.25
3142.12581090014	10867.25
3144.11842552577	10917.75
3146.11050548036	11033.75
3148.10205100875	11005.25
3150.09306235557	11017
3152.08353976515	10925
3154.07348348158	10854.75
3156.06289374869	11040.75
3158.05177081006	10958
3160.04011490899	10970.25
3162.02792628852	11030.75
3164.01520519145	11002.5
3166.00195186029	10959.25
3167.98816653728	11012.5
3169.97384946442	10942
3171.95900088344	11026.5
3173.94362103577	11015.75
3175.92771016259	11024.25
3177.91126850484	11080.5
3179.89429630312	10996.5
3181.87679379782	10973
3183.85876122903	11096
3185.84019883657	11080
3187.82110685997	11127.5
3189.80148553851	11080.5
3191.78133511116	11160.75
3193.76065581664	11168.5
3195.73944789337	11201.25
3197.7177115795	11131
3199.6954471129	11159.75
3201.67265473114	11130.5
3203.64933467153	11157.25
3205.62548717107	11199.5
3207.60111246648	11271.75
3209.57621079421	11195
3211.55078239041	11221.75
3213.52482749093	11138.5
3215.49834633133	11285.5
3217.4713391469	11376.75
3219.44380617262	11296.5
3221.41574764317	11395.75
3223.38716379296	11301.75
3225.35805485607	11316
3227.32842106631	11374.25
3229.29826265718	11512.5
3231.26757986187	11449
3233.2363729133	11557
3235.20464204405	11467.25
3237.17238748643	11441
3239.13960947243	11497
3241.10630823374	11514.25
3243.07248400174	11556
3245.03813700748	11676.5
3247.00326748177	11596.5
3248.96787565503	11629.25
3250.93196175742	11611.5
3252.89552601877	11630
3254.8585686686	11740.5
3256.82108993612	11771.25
3258.78309005022	11720.75
3260.74456923948	11723.5
3262.70552773215	11763.75
3264.66596575617	11794
3266.62588353916	11672.75
3268.58528130843	11699.25
3270.54415929094	11622.5
3272.50251771336	11710.75
3274.46035680201	11734
3276.4176767829	11814.75
3278.37447788171	11685.75
3280.33076032379	11856.5
3282.28652433416	11735.5
3284.24177013751	11793
3286.1964979582	11883
3288.15070802027	11856.25
3290.10440054741	11846
3292.05757576298	11748
3294.01023389001	11832
3295.96237515119	11874
3297.91399976887	11851.75
3299.86510796506	11878.75
3301.81569996142	11924.25
3303.76577597932	11954.25
3305.7153362397	11928.25
3307.66438096324	11832.75
3309.61291037024	11972
3311.56092468064	11894
3313.50842411404	11847.75
3315.45540888971	11931.5
3317.40187922656	11822
3319.34783534315	11917.75
3321.29327745768	11853.75
3323.23820578801	11714
3325.18262055164	11816
3327.1265219657	11851.25
3329.06991024699	11877
3331.01278561194	11917
3332.95514827662	11838.5
3334.89699845674	11867.75
3336.83833636766	11805
3338.77916222434	11765.5
3340.71947624143	11775
3342.65927863317	11832
3344.59856961346	11780
3346.53734939584	11886.75
3348.47561819344	11792.5
3350.41337621906	11737.5
3352.35062368513	11851.25
3354.28736080368	11818.75
3356.22358778637	11769.75
3358.15930484452	11819.75
3360.09451218904	11899.5
3362.02921003047	11910.25
3363.96339857898	11922.5
3365.89707804436	11948
3367.83024863602	11929.75
3369.76291056299	11826.25
3371.69506403389	11810.25
3373.62670925699	11889.75
3375.55784644016	11981.5
3377.4884757909	11827
3379.41859751629	12007.5
3381.34821182305	11921.25
3383.27731891749	11946.25
3385.20591900555	11967
3387.13401229276	11952.75
3389.06159898426	12005
3390.9886792848	12013
3392.91525339872	12087.25
3394.84132152998	12025.25
3396.76688388213	12011.75
3398.69194065833	12070.75
3400.61649206133	12060
3402.54053829348	12052.5
3404.46407955672	11992
3406.3871160526	11971.75
3408.30964798225	12078.25
3410.23167554639	11996.75
3412.15319894535	12080
3414.07421837904	11973
3415.99473404695	12056.25
3417.91474614817	12074.25
3419.83425488136	12107.25
3421.75326044479	12068.5
3423.67176303631	12045.5
3425.58976285332	12059.75
3427.50726009282	12005.5
3429.42425495143	11937
3431.34074762528	12020.25
3433.25673831012	11889.5
3435.17222720127	11926.25
3437.08721449362	11966.75
3439.00170038164	11811
3440.91568505936	11925
3442.82916872039	11847.75
3444.74215155791	11861.5
3446.65463376468	11903
3448.566615533	11891
3450.47809705476	11784
3452.3890785214	11830.5
3454.29956012393	11826
3456.20954205293	11823.75
3458.11902449853	11792.25
3460.02800765041	11673.5
3461.93649169784	11725.5
3463.84447682962	11633.25
3465.75196323412	11665.25
3467.65895109925	11640.75
3469.56544061249	11666.75
3471.47143196086	11582.25
3473.37692533093	11680.75
3475.28192090884	11542.75
3477.18641888026	11622.25
3479.09041943039	11624.75
3480.99392274402	11548
3482.89692900545	11630.75
3484.79943839853	11515.5
3486.70145110666	11544
3488.60296731277	11548.5
3490.50398719933	11459.5
3492.40451094836	11420.75
3494.30453874141	11518.75
3496.20407075956	11433.25
3498.10310718342	11481.75
3500.00164819315	11424.25