201.866871357051	831.75
204.754250281454	830.75
207.640596790938	826.25
210.525911876299	830.75
213.410196525689	812.75
216.293451724508	802.5
219.175678455485	816.5
222.056877698662	793.25
224.937050431388	803
227.816197628363	804.5
230.694320261602	809
233.571419300504	807
236.447495711764	804.75
239.322550459507	801
242.196584505182	807.25
245.069598807626	809.25
247.941594323078	802.5
250.812572005154	803.75
253.682532804884	804.5
256.551477670699	804
259.419407548456	804.75
262.286323381439	808.25
265.152226110364	818.25
268.017116673389	805.5
270.880996006115	808
273.743865041622	809.25
276.605724710436	811
279.466575940562	808.75
282.326419657496	806
285.1852567842	807
288.043088241157	810.75
290.899914946349	809.75
293.75573781526	809.5
296.610557760898	806.5
299.464375693817	803
302.317192522078	809
305.169009151297	803.75
308.019826484655	815.5
310.86964542287	815
313.718466864233	802.25
316.566291704614	801.25
319.413120837457	812
322.258955153804	809
325.103795542291	810.5
327.947642889128	811
330.79049807819	812.5
333.632361990927	812.25
336.473235506444	806
339.31311950145	820.25
342.152014850322	821.25
344.989922425062	816.75
347.826843095354	821
350.662777728528	818.25
353.497727189577	820.5
356.331692341195	830.5
359.164674043732	821.25
361.996673155267	833.75
364.827690531536	838.75
367.65772702602	824
370.486783489887	828
373.314860772047	845.25
376.14195971912	841.25
378.968081175466	833
381.793225983212	826.25
384.617394982201	851
387.44058901005	843.5
390.262808902131	836.75
393.08405549161	839
395.904329609395	834
398.723632084213	837.5
401.541963742569	837.75
404.359325408779	833.75
407.175717904938	830.75
409.991142050982	825.75
412.805598664665	835.5
415.619088561551	829.75
418.43161255505	830.5
421.243171456415	826.75
424.053766074758	838.75
426.863397217017	834.25
429.672065688024	836
432.479772290455	829.25
435.286517824879	845.25
438.092303089736	830.5
440.897128881359	832
443.70099599399	824.5
446.503905219761	843
449.305857348711	835.5
452.106853168796	837.25
454.906893465919	822.75
457.705979023885	835.25
460.504110624439	821.5
463.3012890473	845.25
466.097515070087	830
468.892789468424	829.5
471.687113015869	841.5
474.48048648395	828.25
477.272910642198	837.5
480.064386258109	838.25
482.854914097159	829.25
485.644494922839	829.75
488.433129496636	829.5
491.220818578047	845.5
494.007562924584	841
496.793363291785	849
499.578220433217	845.25
502.362135100473	847
505.145108043209	832.25
507.927140009098	838.5
510.708231743909	847.5
513.488383991433	840.25
516.267597493556	846.5
519.04587299022	842.5
521.82321121946	833
524.599612917398	847.75
527.375078818233	837
530.149609654287	847.75
532.923206155967	837.5
535.695869051804	837.5
538.467599068448	844.75
541.238396930665	832.5
544.008263361364	832.75
546.777199081578	836.75
549.545204810493	824
552.312281265436	836.75
555.078429161898	830.25
557.843649213533	835.75
560.607942132156	832.25
563.371308627753	845
566.133749408495	851
568.895265180756	836.25
571.655856649064	846.5
574.415524516189	839
577.174269483075	837
579.932092248884	838.75
582.688993510994	844.25
585.444973965023	853
588.200034304795	855.25
590.95417522237	857.5
593.70739740807	855
596.459701550433	860.25
599.21108833628	843
601.961558450668	853.25
604.711112576933	862.75
607.459751396673	859
610.207475589748	862.75
612.954285834338	860
615.700182806879	863.5
618.445167182101	855.75
621.189239633055	858.5
623.932400831087	845.5
626.674651445839	854.25
629.415992145303	850
632.156423595745	850.75
634.895946461813	854.25
637.634561406449	851.5
640.37226909096	849
643.109070174978	856
645.844965316508	845
648.579955171888	847.75
651.314040395846	856.25
654.047221641456	843.25
656.779499560176	837
659.510874801828	841.5
662.241348014642	845.75
664.97091984524	829.25
667.699590938606	845.25
670.427361938164	844.75
673.15423348573	845.5
675.880206221526	856.25
678.605280784206	845.75
681.329457810829	848.5
684.05273793692	844.75
686.775121796389	850.5
689.49661002163	847.75
692.217203243454	838.75
694.936902091144	836.25
697.655707192425	828.75
700.373619173493	830.5
703.09063865901	836
705.806766272093	832.25
708.522002634378	841.5
711.236348365946	834.75
713.94980408538	824.5
716.662370409762	824.5
719.374047954676	835
722.08483733419	827
724.794739160909	828
727.503754045949	822.5
730.21188259892	829.5
732.919125427998	829.25
735.625483139855	826.75
738.330956339723	838
741.035545631374	836.25
743.739251617106	834.5
746.44207489779	830.25
749.144016072852	836
751.845075740272	835.25
754.545254496603	841.5
757.244552936976	838.75
759.94297165508	826.75
762.640511243222	831.75
765.337172292249	834
768.032955391649	828.75
770.727861129482	841.5
773.421890092413	835.75
776.11504286572	838.5
778.807320033298	833.75
781.49872217765	844
784.18924987991	834.75
786.87890371984	828.75
789.567684275826	827.25
792.255592124908	817.5
794.94262784276	826
797.628792003703	829.75
800.314085180715	820.75
802.998507945427	832.5
805.682060868145	827.75
808.364744517821	828
811.046559462105	832.25
813.727506267311	817
816.407585498422	836
819.08679771913	819.75
821.765143491822	831.5
824.442623377563	826.25
827.119237936127	835.75
829.794987726003	832.75
832.469873304377	824.5
835.143895227167	833.5
837.817054048985	838
840.489350323205	842.25
843.160784601892	828.75
845.831357435894	846
848.501069374739	830.5
851.169920966753	829.5
853.837912758987	835.5
856.505045297232	832.5
859.171319126071	839
861.836734788823	830
864.501292827579	828.75
867.164993783208	827.25
869.827838195361	831.75
872.489826602454	831.5
875.150959541701	835
877.811237549104	836
880.470661159456	831.5
883.129230906357	828.5
885.786947322205	827.75
888.443810938206	834.75
891.099822284385	837.25
893.754981889586	823.25
896.409290281452	829
899.062747986485	830.25
901.715355529999	825.75
904.367113436154	829.75
907.01802222793	818.5
909.668082427172	827.5
912.317294554574	826
914.965659129659	831.75
917.613176670835	833
920.259847695364	826.25
922.90567271936	823.5
925.550652257825	832
928.194786824621	835.5
930.838076932512	832.5
933.480523093109	822.5
936.122125816953	827.5
938.762885613447	828.25
941.402802990899	849
944.041878456523	837.5
946.680112516428	835
949.31750567563	831.25
951.954058438081	845.5
954.589771306633	841.75
957.224644783048	835.5
959.858679368044	833.75
962.491875561238	826.25
965.12423386121	832.5
967.75575476545	839
970.386438770423	824
973.016286371501	832.25
975.645298063046	831.25
978.273474338355	830
980.900815689674	837.25
983.527322608243	818.25
986.152995584245	829.75
988.777835106834	830
991.401841664148	843
994.025015743307	840.75
996.647357830407	845.25
999.268868410534	843.5
1001.88954796777	842
1004.50939698518	847.5
1007.12841594484	831
1009.74660532783	841.25
1012.36396561423	837.5
1014.98049728314	834.5
1017.59620081267	835.5
1020.21107667995	829.25
1022.82512536112	839.5
1025.43834733138	851
1028.05074306493	838.75
1030.66231303501	852.75
1033.27305771392	843
1035.88297757299	836.75
1038.49207308257	842.5
1041.10034471211	845
1043.70779293008	851
1046.31441820402	845.5
1048.92022100052	844.75
1051.52520178525	848.5
1054.12936102295	850
1056.73269917742	859
1059.33521671154	861.25
1061.93691408729	852.5
1064.53779176571	860.5
1067.13785020694	842
1069.73708987022	853.75
1072.33551121386	844.5
1074.93311469528	856
1077.52990077103	845.25
1080.12586989674	852
1082.72102252714	840
1085.31535911611	836
1087.90888011663	842
1090.50158598078	841.75
1093.09347715979	848.75
1095.68455410403	839.5
1098.27481726296	844.25
1100.86426708523	857.25
1103.45290401857	858.25
1106.04072850991	845.25
1108.6277410053	843
1111.21394194993	847
1113.79933178816	842.75
1116.3839109635	854.25
1118.96767991862	851.25
1121.55063909539	853.25
1124.13278893477	861.5
1126.71412987696	873.5
1129.29466236132	881.5
1131.87438682637	864.75
1134.45330370982	859.75
1137.03141344858	870.75
1139.60871647872	862
1142.18521323554	863.75
1144.7609041535	865.5
1147.33578966629	862.25
1149.90987020676	861
1152.48314620702	859.25
1155.05561809835	864.75
1157.62728631125	856.75
1160.19815127545	861.25
1162.76821341988	858.25
1165.33747317271	851.75
1167.90593096133	855.75
1170.47358721235	845
1173.04044235163	850.75
1175.60649680425	855.5
1178.17175099454	855.75
1180.73620534607	853.75
1183.29986028165	855.25
1185.86271622336	854
1188.42477359249	858
1190.98603280964	855
1193.54649429462	858
1196.10615846653	840.25
1198.66502574372	844
1201.22309654385	845.5
1203.78037128378	856.5
1206.33685037971	861.5
1208.89253424709	845.25
1211.44742330063	843
1214.00151795438	870.5
1216.55481862163	855.5
1219.10732571497	854.25
1221.65903964631	862
1224.20996082683	859.75
1226.760089667	849.5
1229.30942657664	845.75
1231.85797196483	866
1234.40572623998	852
1236.95268980981	861.75
1239.49886308136	856
1242.04424646098	861.5
1244.58884035435	874.25
1247.13264516647	856.5
1249.67566130166	862.75
1252.21788916358	851.75
1254.75932915524	868.75
1257.29998167896	855.5
1259.83984713639	870.5
1262.37892592857	878.25
1264.91721845586	880
1267.45472511795	867.25
1269.9914463139	871.75
1272.52738244213	872.75
1275.0625339004	890.75
1277.59690108587	872.75
1280.130484395	871.75
1282.66328422367	876.5
1285.19530096712	872.25
1287.72653501993	886
1290.25698677608	901.5
1292.78665662894	914.75
1295.31554497125	913.75
1297.8436521951	907.25
1300.37097869203	905
1302.89752485292	888.5
1305.42329106805	883.25
1307.94827772713	882
1310.47248521921	897.75
1312.99591393279	886.5
1315.51856425575	883.75
1318.04043657536	886
1320.56153127836	896.75
1323.08184875083	895.5
1325.6013893783	897.75
1328.12015354572	891.5
1330.63814163744	901
1333.15535403727	897.25
1335.67179112839	924.75
1338.18745329347	925.5
1340.70234091454	919
1343.21645437314	937.5
1345.72979405019	919
1348.24236032607	902
1350.75415358059	907
1353.26517419303	899
1355.7754225421	903
1358.28489900594	902.5
1360.79360396218	904
1363.30153778787	911.25
1365.80870085955	904.75
1368.31509355319	901
1370.82071624424	896
1373.32556930762	895.5
1375.8296531177	904.25
1378.33296804832	900.75
1380.83551447282	891.75
1383.33729276399	875.25
1385.83830329408	899.5
1388.33854643489	893.75
1390.83802255762	888.5
1393.33673203301	889.75
1395.83467523128	890.75
1398.33185252211	890.25
1400.82826427471	901.5
1403.32391085777	888.25
1405.81879263947	891
1408.31290998752	900.25
1410.80626326908	892.75
1413.29885285087	897.25
1415.79067909909	897.5
1418.28174237944	900.25
1420.77204305717	905
1423.26158149702	899
1425.75035806323	897.75
1428.2383731196	897.75
1430.72562702942	902.5
1433.21212015554	906.25
1435.69785286028	906.5
1438.18282550555	920
1440.66703845275	910.5
1443.15049206284	921
1445.6331866963	929.75
1448.11512271316	924
1450.59630047298	924
1453.07672033486	936
1455.55638265748	926.25
1458.03528779902	923.5
1460.51343611725	913.25
1462.99082796946	920.5
1465.46746371252	924.5
1467.94334370285	913.5
1470.41846829642	907.75
1472.89283784878	903.5
1475.36645271503	914
1477.83931324983	902.25
1480.31141980743	910
1482.78277274164	908
1485.25337240583	892
1487.72321915297	895
1490.19231333557	896
1492.66065530578	896
1495.12824541525	899.25
1497.5950840153	896.5
1500.06117145678	907.75
1502.52650809014	913
1504.99109426543	900.5
1507.45493033227	899.75
1509.91801663992	902.25
1512.38035353717	916.5
1514.84194137248	914.75
1517.30278049386	922.25
1519.76287124894	940
1522.22221398497	946
1524.68080904876	963.25
1527.13865678681	982.75
1529.59575754514	968.75
1532.05211166945	955.75
1534.50771950503	930.25
1536.96258139678	933.25
1539.41669768924	916.5
1541.87006872656	914.25
1544.32269485252	930.75
1546.77457641051	918.75
1549.22571374357	928
1551.67610719434	922
1554.12575710513	922
1556.57466381785	917.5
1559.02282767408	918.25
1561.47024901499	933.5
1563.91692818144	919.25
1566.3628655139	930.25
1568.80806135249	944
1571.252516037	935.25
1573.6962299068	934.25
1576.13920330099	934.25
1578.58143655828	953.75
1581.02293001704	939.75
1583.46368401528	937.25
1585.90369889071	940.25
1588.34297498065	932.75
1590.7815126221	943.5
1593.21931215173	945.75
1595.65637390588	931.25
1598.09269822053	935.5
1600.52828543135	947.75
1602.96313587367	924
1605.3972498825	917.25
1607.83062779252	939.25
1610.26326993808	932.5
1612.69517665322	926.5
1615.12634827165	930
1617.55678512676	916.5
1619.98648755163	914.75
1622.41545587902	913
1624.84369044138	911
1627.27119157085	910.25
1629.69795959924	912.25
1632.12399485808	917.5
1634.54929767859	910.5
1636.97386839165	906.75
1639.39770732789	908.75
1641.8208148176	897.75
1644.24319119078	905.5
1646.66483677715	896.25
1649.0857519061	912.25
1651.50593690677	917.5
1653.92539210795	903
1656.3441178382	915.75
1658.76211442575	904
1661.17938219855	909.25
1663.59592148428	913.25
1666.01173261032	917.5
1668.42681590377	920.5
1670.84117169145	916.25
1673.25480029991	919.5
1675.66770205541	910.5
1678.07987728393	905.5
1680.49132631119	899.75
1682.90204946263	915
1685.31204706342	914.25
1687.72131943846	913.5
1690.1298669124	918
1692.53768980957	913
1694.94478845411	907.25
1697.35116316982	910.25
1699.75681428031	923
1702.16174210887	920.75
1704.56594697858	918
1706.96942921222	919.25
1709.37218913235	918.75
1711.77422706125	914.75
1714.17554332098	906.5
1716.5761382333	925.5
1718.97601211977	917
1721.37516530169	904.25
1723.77359810006	912
1726.17131083572	916.75
1728.56830382922	925
1730.96457740087	908.5
1733.36013187075	908.5
1735.75496755868	923.75
1738.14908478428	909.5
1740.54248386689	917
1742.93516512565	908.25
1745.32712887946	898.25
1747.71837544697	927
1750.10890514662	909
1752.49871829661	903.75
1754.88781521492	918
1757.27619621929	917.25
1759.66386162726	923.75
1762.05081175612	915.5
1764.43704692297	907.75
1766.82256744465	910.5
1769.20737363782	921
1771.59146581887	921.5
1773.97484430405	923.25
1776.35750940932	927.5
1778.73946145048	932.25
1781.12070074309	908.75
1783.50122760249	913
1785.88104234385	925.5
1788.26014528209	933
1790.63853673196	940.75
1793.01621700796	922.75
1795.39318642443	910
1797.76944529549	929
1800.14499393503	930.25
1802.51983265681	930.25
1804.8939617743	942.75
1807.26738160085	933.5
1809.64009244957	922
1812.01209463339	925
1814.38338846504	946.25
1816.75397425706	927.25
1819.12385232181	934.5
1821.49302297142	943
1823.86148651789	930.25
1826.22924327299	930.5
1828.59629354831	928.5
1830.96263765526	942.5
1833.32827590507	926
1835.69320860877	938
1838.05743607724	925.75
1840.42095862113	939.75
1842.78377655097	925.75
1845.14589017707	918.5
1847.50729980956	919.5
1849.86800575843	919.25
1852.22800833346	933.25
1854.58730784427	923.5
1856.94590460032	939
1859.30379891087	942.5
1861.66099108503	927.25
1864.01748143175	945.25
1866.37327025978	936.75
1868.72835787773	935.75
1871.08274459403	941.75
1873.43643071697	939.25
1875.78941655464	949.5
1878.14170241498	928
1880.4932886058	945.75
1882.84417543469	947.5
1885.19436320915	941
1887.54385223646	935
1889.89264282378	944.75
1892.24073527809	943.5
1894.58812990625	940.25
1896.93482701493	964.5
1899.28082691067	945.25
1901.62612989984	948.5
1903.97073628868	960
1906.31464638326	953.25
1908.6578604895	962.5
1911.00037891321	952
1913.34220196	976.25
1915.68332993537	952.25
1918.02376314468	963.75
1920.36350189311	971.25
1922.70254648573	965.75
1925.04089722744	972
1927.37855442303	960.75
1929.71551837715	966
1932.05178939426	957.75
1934.38736777876	972.5
1936.72225383484	965
1939.0564478666	974
1941.38995017799	963.5
1943.72276107283	964.5
1946.05488085479	974
1948.38630982744	956.25
1950.71704829419	954
1953.04709655832	972.25
1955.376454923	951.75
1957.70512369126	972.5
1960.03310316599	965
1962.36039364999	961.5
1964.68699544589	964.75
1967.01290885622	966.75
1969.33813418338	958.5
1971.66267172965	978.25
1973.98652179718	965.75
1976.309684688	970.75
1978.63216070402	977.75
1980.95395014705	975
1983.27505331873	967.25
1985.59547052063	968
1987.9152020542	970.75
1990.23424822074	975.75
1992.55260932146	977
1994.87028565746	977.75
1997.18727752968	980
1999.503585239	986.75
2001.81920908618	984.75
2004.13414937184	995.25
2006.44840639651	985
2008.7619804606	980.5
2011.07487186442	986.75
2013.38708090815	995.5
2015.6986078919	992
2018.00945311564	983.5
2020.31961687923	996.25
2022.62909948246	991.75
2024.93790122498	995.75
2027.24602240636	997.5
2029.55346332604	1003.75
2031.86022428337	999.25
2034.16630557761	1002.75
2036.47170750791	991.5
2038.77643037331	1002.25
2041.08047447275	1011
2043.38384010509	987.5
2045.68652756907	1006.5
2047.98853716335	1011.75
2050.28986918648	1003.75
2052.59052393692	1007
2054.89050171302	1002.75
2057.18980281306	1016.25
2059.4884275352	1019.75
2061.78637617753	1010.25
2064.08364903802	1014.25
2066.38024641457	1013.75
2068.67616860497	1003.75
2070.97141590694	1000.75
2073.26598861809	1022.75
2075.55988703595	996
2077.85311145796	1001.75
2080.14566218145	1008.75
2082.43753950371	1016.25
2084.72874372188	1019.25
2087.01927513307	1028.25
2089.30913403428	1014.5
2091.59832072241	1005.75
2093.88683549429	1015.25
2096.17467864666	1006
2098.46185047619	1027
2100.74835127944	1036
2103.03418135292	1016
2105.31934099303	1007.5
2107.6038304961	1014.5
2109.88765015838	1023.75
2112.17080027602	1029
2114.45328114513	1027
2116.7350930617	1017.75
2119.01623632165	1009.75
2121.29671122085	1023.5
2123.57651805505	1011.5
2125.85565711996	1038.25
2128.13412871117	1037.5
2130.41193312424	1015.5
2132.68907065462	1049
2134.96554159771	1025.75
2137.24134624881	1028.5
2139.51648490317	1047
2141.79095785593	1048.25
2144.0647654022	1038.5
2146.33790783698	1048.25
2148.61038545524	1031
2150.88219855182	1045.5
2153.15334742154	1041
2155.42383235911	1052.5
2157.6936536592	1043
2159.9628116164	1037.25
2162.23130652522	1048.5
2164.49913868011	1052
2166.76630837544	1039.25
2169.03281590552	1065.25
2171.2986615646	1044
2173.56384564685	1042.5
2175.82836844637	1047.75
2178.0922302572	1067.25
2180.35543137332	1047.75
2182.61797208862	1045.75
2184.87985269695	1051.5
2187.14107349208	1056.5
2189.40163476773	1066.25
2191.66153681753	1068.75
2193.92077993507	1059.5
2196.17936441386	1050.25
2198.43729054735	1058.25
2200.69455862894	1057.75
2202.95116895194	1057.5
2205.20712180962	1059.25
2207.46241749519	1061.5
2209.71705630179	1051
2211.97103852248	1054.5
2214.2243644503	1058.75
2216.47703437819	1070.5
2218.72904859905	1059
2220.98040740571	1049.75
2223.23111109095	1065.5
2225.4811599475	1064
2227.73055426799	1058.5
2229.97929434504	1057.25
2232.22738047118	1070.5
2234.47481293889	1061.25
2236.72159204058	1054.75
2238.96771806864	1073.5
2241.21319131536	1071.25
2243.458012073	1074
2245.70218063374	1072.5
2247.94569728973	1079.75
2250.18856233304	1073.5
2252.4307760557	1056
2254.67233874967	1073.75
2256.91325070687	1065.5
2259.15351221915	1074.25
2261.39312357831	1086.25
2263.63208507611	1072.75
2265.87039700422	1077.75
2268.1080596543	1095
2270.34507331792	1072
2272.5814382866	1088
2274.81715485183	1075
2277.05222330502	1067.5
2279.28664393755	1086.5
2281.52041704072	1078.75
2283.75354290581	1079
2285.98602182401	1079.5
2288.21785408648	1084.25
2290.44903998434	1083.25
2292.67957980862	1094.5
2294.90947385033	1079.25
2297.1387224004	1092.25
2299.36732574975	1101.75
2301.59528418921	1084
2303.82259800958	1079.5
2306.04926750158	1084
2308.27529295593	1089.75
2310.50067466325	1084.75
2312.72541291412	1086
2314.9495079991	1095.75
2317.17296020866	1088.25
2319.39576983323	1093.5
2321.61793716322	1090.25
2323.83946248894	1080.5
2326.06034610069	1100.75
2328.28058828871	1099.25
2330.50018934317	1095.25
2332.7191495542	1089.5
2334.93746921192	1090.25
2337.15514860633	1109.75
2339.37218802743	1106.5
2341.58858776516	1103
2343.80434810941	1086.5
2346.01946935001	1098.25
2348.23395177675	1099
2350.44779567939	1105.75
2352.66100134759	1111.25
2354.87356907101	1104.75
2357.08549913925	1100.25
2359.29679184185	1095.25
2361.50744746829	1088
2363.71746630804	1101.25
2365.92684865048	1081
2368.13559478499	1109
2370.34370500083	1113.75
2372.55117958727	1099.25
2374.75801883352	1096.75
2376.96422302874	1100
2379.16979246202	1103.25
2381.37472742243	1098.25
2383.57902819898	1113.75
2385.78269508063	1111.75
2387.98572835629	1096.25
2390.18812831482	1097
2392.38989524505	1086.75
2394.59102943573	1112.5
2396.79153117559	1107
2398.9914007533	1098.75
2401.19063845748	1108.75
2403.38924457672	1104.25
2405.58721939951	1095.5
2407.78456321435	1122.5
2409.98127630966	1100.5
2412.17735897382	1113
2414.37281149517	1110
2416.56763416198	1091.75
2418.76182726249	1091.25
2420.95539108487	1101.25
2423.14832591726	1097.5
2425.34063204776	1097.25
2427.53230976439	1099.75
2429.72335935513	1099.25
2431.91378110795	1107
2434.10357531071	1109
2436.29274225125	1107
2438.48128221739	1089.25
2440.66919549683	1109.25
2442.8564823773	1088
2445.04314314641	1098
2447.22917809176	1092.25
2449.4145875009	1106.5
2451.59937166131	1087.75
2453.78353086044	1101.5
2455.96706538568	1096.5
2458.14997552436	1097.5
2460.33226156379	1104.5
2462.51392379119	1104.25
2464.69496249376	1088.5
2466.87537795862	1099
2469.05517047288	1113.25
2471.23434032357	1106.25
2473.41288779767	1106
2475.59081318211	1085
2477.76811676378	1100.25
2479.9447988295	1105.5
2482.12085966605	1111
2484.29629956016	1105.5
2486.4711187985	1119.5
2488.64531766769	1097.5
2490.8188964543	1094.25
2492.99185544484	1097
2495.16419492579	1099.5
2497.33591518353	1087.75
2499.50701650444	1095.25
2501.67749917482	1090
2503.84736348091	1096.5
2506.01660970891	1089
2508.18523814496	1100.25
2510.35324907514	1099.5
2512.52064278551	1093.25
2514.68741956201	1100.5
2516.85357969058	1113.5
2519.01912345709	1108.25
2521.18405114735	1104.25
2523.34836304711	1105.75
2525.51205944208	1117.5
2527.6751406179	1102.75
2529.83760686016	1122
2531.99945845439	1116.25
2534.16069568606	1111.25
2536.3213188406	1107.75
2538.48132820336	1114
2540.64072405965	1109
2542.79950669471	1109.75
2544.95767639373	1125.5
2547.11523344184	1120.75
2549.27217812411	1123.25
2551.42851072555	1115.75
2553.58423153111	1110.25
2555.73934082569	1109.75
2557.89383889412	1107
2560.04772602118	1100.75
2562.20100249158	1102.5
2564.35366858996	1105
2566.50572460093	1111.25
2568.65717080901	1107
2570.80800749867	1110.75
2572.95823495433	1110.25
2575.10785346031	1101.25
2577.25686330093	1100
2579.40526476038	1098.75
2581.55305812282	1098.25
2583.70024367237	1093
2585.84682169303	1104.5
2587.99279246879	1109.25
2590.13815628354	1125.75
2592.28291342112	1108.5
2594.42706416531	1099.25
2596.5706087998	1092
2598.71354760826	1104.75
2600.85588087425	1108.5
2602.99760888127	1107.5
2605.13873191278	1112
2607.27925025214	1100.75
2609.41916418269	1107.25
2611.55847398764	1103.5
2613.69717995017	1094
2615.83528235339	1087
2617.97278148034	1105.25
2620.10967761398	1116
2622.2459710372	1113
2624.38166203284	1105.5
2626.51675088365	1117
2628.65123787231	1113
2630.78512328145	1104.25
2632.9184073936	1104.5
2635.05109049124	1120.25
2637.18317285676	1107
2639.31465477248	1119.5
2641.44553652067	1116.25
2643.5758183835	1110
2645.70550064309	1119.5
2647.83458358144	1126.25
2649.96306748053	1103.25
2652.09095262223	1119
2654.21823928836	1116.75
2656.34492776063	1107
2658.47101832071	1119.75
2660.59651125015	1105
2662.72140683047	1113
2664.84570534309	1115.75
2666.96940706934	1119.75
2669.0925122905	1110.5
2671.21502128773	1122.25
2673.33693434215	1113.5
2675.45825173479	1112
2677.57897374658	1119.5
2679.69910065839	1125.5
2681.818632751	1115.5
2683.93757030511	1120
2686.05591360133	1122
2688.17366292021	1114
2690.29081854218	1110
2692.40738074762	1114.75
2694.52334981681	1125.75
2696.63872602995	1125.25
2698.75350966713	1124.5
2700.86770100841	1131.5
2702.98130033371	1132
2705.09430792289	1115.75
2707.20672405571	1122.5
2709.31854901185	1106
2711.42978307091	1124
2713.54042651238	1136.5
2715.65047961567	1137
2717.7599426601	1127.75
2719.86881592491	1123.5
2721.97709968924	1126.5
2724.08479423213	1110.25
2726.19189983255	1118
2728.29841676934	1120.5
2730.4043453213	1124.75
2732.5096857671	1131
2734.61443838532	1113.75
2736.71860345444	1131.25
2738.82218125286	1129.75
2740.92517205889	1123.75
2743.02757615072	1125.75
2745.12939380646	1119.75
2747.23062530411	1121.5
2749.33127092159	1115.75
2751.4313309367	1135.25
2753.53080562716	1129
2755.62969527058	1127
2757.72800014448	1114.75
2759.82572052625	1135.25
2761.92285669323	1108.5
2764.0194089226	1138.75
2766.11537749147	1129.75
2768.21076267686	1141.5
2770.30556475566	1127
2772.39978400465	1132
2774.49342070054	1125
2776.58647511991	1143.75
2778.67894753923	1127.5
2780.77083823487	1131.75
2782.8621474831	1129.75
2784.95287556007	1131.5
2787.04302274184	1120
2789.13258930433	1126.25
2791.22157552338	1133.75
2793.30998167471	1129.25
2795.39780803392	1140.75
2797.4850548765	1132.5
2799.57172247786	1122.25
2801.65781111324	1148.25
2803.74332105781	1135.5
2805.82825258661	1144.5
2807.91260597457	1144
2809.9963814965	1132.75
2812.07957942711	1144
2814.16220004096	1128
2816.24424361252	1135
2818.32571041614	1135
2820.40660072604	1147.25
2822.48691481631	1132
2824.56665296098	1162.25
2826.64581543388	1141
2828.72440250876	1175
2830.80241445925	1146.25
2832.87985155885	1169.25
2834.95671408093	1178.25
2837.03300229875	1193.5
2839.10871648544	1216.75
2841.18385691399	1247.25
2843.25842385729	1257.25
2845.33241758808	1301.5
2847.40583837898	1278.75
2849.4786865025	1277.25
2851.550962231	1267.75
2853.6226658367	1270.5
2855.69379759173	1276.5
2857.76435776806	1251.75
2859.83434663753	1253.25
2861.90376447184	1243.75
2863.97261154259	1242.75
2866.0408881212	1230.5
2868.10859447901	1225.5
2870.17573088717	1218
2872.24229761673	1242.75
2874.30829493859	1235.25
2876.37372312352	1265.25
2878.43858244215	1286.75
2880.50287316496	1310.25
2882.56659556231	1310.75
2884.62974990439	1282.5
2886.69233646129	1270.25
2888.75435550293	1265
2890.81580729909	1269
2892.87669211941	1248.75
2894.93701023339	1246.5
2896.99676191039	1253.75
2899.05594741961	1247.75
2901.1145670301	1256.25
2903.1726210108	1237
2905.23010963045	1233.75
2907.28703315768	1211
2909.34339186096	1225.5
2911.39918600861	1211.5
2913.45441586879	1226
2915.50908170952	1209
2917.56318379867	1222.5
2919.61672240395	1222.25
2921.66969779291	1224.5
2923.72211023295	1199.5
2925.77395999134	1223.25
2927.82524733515	1219.5
2929.87597253132	1213.75
2931.92613584663	1211.25
2933.97573754769	1212.25
2936.02477790097	1209
2938.07325717276	1200.25
2940.1211756292	1204
2942.16853353626	1184.5
2944.21533115976	1181
2946.26156876536	1190.25
2948.30724661853	1158.75
2950.3523649846	1185.75
2952.39692412872	1159.75
2954.44092431587	1174.5
2956.48436581089	1165.75
2958.52724887843	1175
2960.56957378296	1172
2962.6113407888	1178.5
2964.65255016011	1165.5
2966.69320216083	1184.5
2968.73329705479	1163.75
2970.77283510559	1167
2972.81181657671	1168.5
2974.8502417314	1167.5
2976.88811083279	1169.5
2978.92542414378	1147.5
2980.96218192713	1173.25
2982.99838444541	1169.25
2985.034031961	1182.25
2987.06912473612	1161
2989.1036630328	1152
2991.13764711288	1191.5
2993.17107723804	1170
2995.20395366974	1168.25
2997.23627666931	1166.25
2999.26804649782	1170.5
3001.29926341624	1180.25
3003.32992768528	1188.25
3005.3600395655	1177.5
3007.38959931726	1186.5
3009.41860720076	1189.25
3011.44706347595	1184
3013.47496840263	1184
3015.50232224041	1174.75
3017.5291252487	1201.5
3019.5553776867	1191.5
3021.58107981344	1172.75
3023.60623188773	1190
3025.63083416822	1186
3027.65488691331	1201.5
3029.67839038125	1193.75
3031.70134483007	1201
3033.72375051759	1199.5
3035.74560770144	1207.75
3037.76691663907	1202
3039.78767758768	1199.75
3041.80789080431	1202.25
3043.82755654577	1197.25
3045.84667506867	1191
3047.8652466294	1219.25
3049.88327148418	1207.25
3051.90074988899	1193
3053.91768209961	1210.5
3055.9340683716	1203.25
3057.94990896033	1203.25
3059.96520412095	1217
3061.97995410838	1209.25
3063.99415917734	1212.25
3066.00781958234	1212
3068.02093557766	1200.25
3070.03350741738	1203.5
3072.04553535535	1191.5
3074.05701964521	1204.25
3076.06796054036	1210.5
3078.078358294	1190
3080.08821315912	1215.75
3082.09752538846	1214
3084.10629523454	1193.75
3086.11452294967	1207
3088.12220878592	1212.5
3090.12935299515	1223.75
3092.13595582898	1212.5
3094.1420175388	1200.5
3096.14753837579	1205
3098.15251859088	1201
3100.15695843477	1216.75
3102.16085815793	1211.5
3104.16421801061	1219.75
3106.16703824282	1208.25
3108.16931910432	1215.25
3110.17106084464	1195.25
3112.17226371308	1228.5
3114.17292795872	1216.75
3116.17305383034	1225.25
3118.17264157657	1214.5
3120.17169144571	1228.75
3122.17020368587	1212.5
3124.16817854492	1208.75
3126.16561627044	1217.75
3128.16251710982	1245
3130.15888131017	1224
3132.15470911837	1233
3134.15000078104	1234.5
3136.14475654455	1234
3138.13897665502	1205.5
3140.13266135835	1227.25
3142.12581090014	1219.25
3144.11842552577	1225
3146.11050548036	1236.5
3148.10205100875	1234
3150.09306235557	1241.25
3152.08353976515	1243.75
3154.07348348158	1233.5
3156.06289374869	1247.25
3158.05177081006	1225.5
3160.04011490899	1238.75
3162.02792628852	1236
3164.01520519145	1229.25
3166.00195186029	1238.25
3167.98816653728	1249
3169.97384946442	1228.25
3171.95900088344	1220.75
3173.94362103577	1219.5
3175.92771016259	1231.75
3177.91126850484	1233.5
3179.89429630312	1242
3181.87679379782	1233.75
3183.85876122903	1251
3185.84019883657	1230.25
3187.82110685997	1242
3189.80148553851	1234.75
3191.78133511116	1255.5
3193.76065581664	1219.5
3195.73944789337	1243.25
3197.7177115795	1234
3199.6954471129	1248.75
3201.67265473114	1251.25
3203.64933467153	1243.75
3205.62548717107	1245.75
3207.60111246648	1239.75
3209.57621079421	1251.25
3211.55078239041	1250
3213.52482749093	1240.5
3215.49834633133	1253.5
3217.4713391469	1259.5
3219.44380617262	1247
3221.41574764317	1253.5
3223.38716379296	1254.75
3225.35805485607	1258.5
3227.32842106631	1267.5
3229.29826265718	1269.25
3231.26757986187	1275.75
3233.2363729133	1275.5
3235.20464204405	1257.5
3237.17238748643	1246.75
3239.13960947243	1275.5
3241.10630823374	1265.25
3243.07248400174	1285.25
3245.03813700748	1275.5
3247.00326748177	1275.75
3248.96787565503	1271
3250.93196175742	1269.25
3252.89552601877	1282.25
3254.8585686686	1286
3256.82108993612	1277
3258.78309005022	1279
3260.74456923948	1280.75
3262.70552773215	1282.5
3264.66596575617	1276.25
3266.62588353916	1287.25
3268.58528130843	1278.25
3270.54415929094	1280.5
3272.50251771336	1286.25
3274.46035680201	1283.25
3276.4176767829	1285
3278.37447788171	1290.25
3280.33076032379	1286
3282.28652433416	1277.75
3284.24177013751	1278
3286.1964979582	1278
3288.15070802027	1274.75
3290.10440054741	1311.75
3292.05757576298	1262.25
3294.01023389001	1291.5
3295.96237515119	1266.5
3297.91399976887	1292.75
3299.86510796506	1277.75
3301.81569996142	1301.5
3303.76577597932	1295
3305.7153362397	1295.75
3307.66438096324	1288
3309.61291037024	1284.75
3311.56092468064	1287.5
3313.50842411404	1297.75
3315.45540888971	1296.25
3317.40187922656	1269.75
3319.34783534315	1281.5
3321.29327745768	1294.5
3323.23820578801	1284.5
3325.18262055164	1291
3327.1265219657	1298.5
3329.06991024699	1284
3331.01278561194	1282.75
3332.95514827662	1280.75
3334.89699845674	1303.25
3336.83833636766	1300
3338.77916222434	1288.5
3340.71947624143	1307
3342.65927863317	1298
3344.59856961346	1290.5
3346.53734939584	1306.5
3348.47561819344	1296.25
3350.41337621906	1293.25
3352.35062368513	1293
3354.28736080368	1288
3356.22358778637	1287.5
3358.15930484452	1274.5
3360.09451218904	1301.75
3362.02921003047	1299.75
3363.96339857898	1314.75
3365.89707804436	1304.25
3367.83024863602	1298.75
3369.76291056299	1298.75
3371.69506403389	1291.75
3373.62670925699	1300.25
3375.55784644016	1300.25
3377.4884757909	1293
3379.41859751629	1304
3381.34821182305	1299.5
3383.27731891749	1311.75
3385.20591900555	1326.75
3387.13401229276	1303.25
3389.06159898426	1317.25
3390.9886792848	1313
3392.91525339872	1308
3394.84132152998	1319.75
3396.76688388213	1317
3398.69194065833	1317.75
3400.61649206133	1316.75
3402.54053829348	1341
3404.46407955672	1313.5
3406.3871160526	1320
3408.30964798225	1331.5
3410.23167554639	1318.75
3412.15319894535	1358.5
3414.07421837904	1340
3415.99473404695	1328
3417.91474614817	1336.25
3419.83425488136	1327.75
3421.75326044479	1331.75
3423.67176303631	1325
3425.58976285332	1310.25
3427.50726009282	1322.25
3429.42425495143	1308
3431.34074762528	1327.25
3433.25673831012	1317.25
3435.17222720127	1332
3437.08721449362	1329.25
3439.00170038164	1326
3440.91568505936	1343.5
3442.82916872039	1322.25
3444.74215155791	1339.5
3446.65463376468	1331.25
3448.566615533	1332.75
3450.47809705476	1328.5
3452.3890785214	1326.5
3454.29956012393	1305.5
3456.20954205293	1335.75
3458.11902449853	1333.25
3460.02800765041	1332.25
3461.93649169784	1307.25
3463.84447682962	1336
3465.75196323412	1326.75
3467.65895109925	1319.25
3469.56544061249	1330.25
3471.47143196086	1329.25
3473.37692533093	1326.75
3475.28192090884	1309.25
3477.18641888026	1341.75
3479.09041943039	1329.5
3480.99392274402	1337.5
3482.89692900545	1334
3484.79943839853	1318.25
3486.70145110666	1325.25
3488.60296731277	1319
3490.50398719933	1319
3492.40451094836	1329.75
3494.30453874141	1319
3496.20407075956	1347.25
3498.10310718342	1318.75
3500.00164819315	1342