201.866871357051	1550.25
204.754250281454	1521.75
207.640596790938	1530.75
210.525911876299	1533.5
213.410196525689	1547.5
216.293451724508	1552
219.175678455485	1544.75
222.056877698662	1528.25
224.937050431388	1524.75
227.816197628363	1567.25
230.694320261602	1563.25
233.571419300504	1562.25
236.447495711764	1580
239.322550459507	1573.5
242.196584505182	1587.5
245.069598807626	1585.5
247.941594323078	1592.25
250.812572005154	1600.5
253.682532804884	1604.5
256.551477670699	1606.25
259.419407548456	1629.25
262.286323381439	1620.25
265.152226110364	1619.5
268.017116673389	1648.25
270.880996006115	1626
273.743865041622	1615.25
276.605724710436	1625.75
279.466575940562	1647.75
282.326419657496	1655.25
285.1852567842	1652.5
288.043088241157	1630.75
290.899914946349	1636.5
293.75573781526	1662.25
296.610557760898	1629.5
299.464375693817	1652.25
302.317192522078	1650.5
305.169009151297	1685.75
308.019826484655	1666
310.86964542287	1660.25
313.718466864233	1670.25
316.566291704614	1684.75
319.413120837457	1710.25
322.258955153804	1694
325.103795542291	1686.5
327.947642889128	1688.5
330.79049807819	1690.5
333.632361990927	1687.5
336.473235506444	1678.75
339.31311950145	1688.75
342.152014850322	1690.75
344.989922425062	1711.75
347.826843095354	1710.25
350.662777728528	1700
353.497727189577	1692
356.331692341195	1746
359.164674043732	1735.5
361.996673155267	1724.25
364.827690531536	1732.25
367.65772702602	1755
370.486783489887	1751.25
373.314860772047	1757.25
376.14195971912	1748.75
378.968081175466	1782
381.793225983212	1756.5
384.617394982201	1760.5
387.44058901005	1792
390.262808902131	1797.25
393.08405549161	1854
395.904329609395	1910.25
398.723632084213	1896.75
401.541963742569	1903.5
404.359325408779	1879
407.175717904938	1839.25
409.991142050982	1794
412.805598664665	1795.25
415.619088561551	1795.75
418.43161255505	1783.5
421.243171456415	1829.5
424.053766074758	1832
426.863397217017	1824.5
429.672065688024	1822.25
432.479772290455	1816.25
435.286517824879	1835.5
438.092303089736	1829.75
440.897128881359	1854.5
443.70099599399	1841.5
446.503905219761	1848.25
449.305857348711	1859.5
452.106853168796	1867
454.906893465919	1867.25
457.705979023885	1874.5
460.504110624439	1886.25
463.3012890473	1874
466.097515070087	1843
468.892789468424	1850
471.687113015869	1855.25
474.48048648395	1843.25
477.272910642198	1851.5
480.064386258109	1852
482.854914097159	1848
485.644494922839	1854.5
488.433129496636	1840
491.220818578047	1869.25
494.007562924584	1875.25
496.793363291785	1885.75
499.578220433217	1875
502.362135100473	1890.75
505.145108043209	1899
507.927140009098	1904
510.708231743909	1891.25
513.488383991433	1906
516.267597493556	1941
519.04587299022	1928.75
521.82321121946	1952
524.599612917398	1953.5
527.375078818233	1939
530.149609654287	1945.75
532.923206155967	1930.5
535.695869051804	1920.75
538.467599068448	1920.25
541.238396930665	1919
544.008263361364	1911
546.777199081578	1904.75
549.545204810493	1928.25
552.312281265436	1912.25
555.078429161898	1902
557.843649213533	1917
560.607942132156	1921.5
563.371308627753	1939
566.133749408495	1920
568.895265180756	1941
571.655856649064	1949.5
574.415524516189	1954.25
577.174269483075	1951.25
579.932092248884	1958.5
582.688993510994	1959
585.444973965023	1943.25
588.200034304795	1962.25
590.95417522237	1950
593.70739740807	1973
596.459701550433	1973.25
599.21108833628	1961.75
601.961558450668	1969.75
604.711112576933	1984.5
607.459751396673	1987
610.207475589748	1966.5
612.954285834338	1966.75
615.700182806879	1973.5
618.445167182101	1951.75
621.189239633055	1950.75
623.932400831087	1944.25
626.674651445839	1949
629.415992145303	1960
632.156423595745	1952.5
634.895946461813	1934
637.634561406449	1930.25
640.37226909096	1970.75
643.109070174978	1963.25
645.844965316508	1970.5
648.579955171888	1970
651.314040395846	1965.75
654.047221641456	1959
656.779499560176	1993.5
659.510874801828	1981.25
662.241348014642	2005.25
664.97091984524	1993
667.699590938606	1987.5
670.427361938164	1992.5
673.15423348573	1972.5
675.880206221526	1996.5
678.605280784206	1992.5
681.329457810829	2023.75
684.05273793692	1988.5
686.775121796389	2014.5
689.49661002163	1986.5
692.217203243454	2004.25
694.936902091144	2020.5
697.655707192425	1972.75
700.373619173493	2002.75
703.09063865901	2005.25
705.806766272093	1991.75
708.522002634378	1982.5
711.236348365946	1990
713.94980408538	1991.75
716.662370409762	1975
719.374047954676	1968.75
722.08483733419	1997.75
724.794739160909	1991
727.503754045949	2022.25
730.21188259892	2001.5
732.919125427998	1979.5
735.625483139855	2004.25
738.330956339723	1995
741.035545631374	2007.25
743.739251617106	2045
746.44207489779	2005
749.144016072852	2039
751.845075740272	2043.75
754.545254496603	2030.75
757.244552936976	2038.5
759.94297165508	2017.75
762.640511243222	2027.75
765.337172292249	2010.25
768.032955391649	2022.75
770.727861129482	2048.75
773.421890092413	2026.5
776.11504286572	2020
778.807320033298	2027.25
781.49872217765	2008.25
784.18924987991	2004.25
786.87890371984	2001.75
789.567684275826	2035
792.255592124908	2031.25
794.94262784276	2029
797.628792003703	2043.25
800.314085180715	2075.25
802.998507945427	2119.75
805.682060868145	2178.25
808.364744517821	2213.5
811.046559462105	2163.25
813.727506267311	2132.75
816.407585498422	2077
819.08679771913	2059.75
821.765143491822	2044.75
824.442623377563	2066.25
827.119237936127	2073.25
829.794987726003	2072.5
832.469873304377	2105.25
835.143895227167	2155.25
837.817054048985	2241
840.489350323205	2251.75
843.160784601892	2266.25
845.831357435894	2174.75
848.501069374739	2119.75
851.169920966753	2091
853.837912758987	2084
856.505045297232	2060.75
859.171319126071	2077.5
861.836734788823	2056.75
864.501292827579	2076.25
867.164993783208	2054.5
869.827838195361	2041.75
872.489826602454	2057.25
875.150959541701	2043.75
877.811237549104	2031.25
880.470661159456	2036
883.129230906357	2033.25
885.786947322205	2017.5
888.443810938206	2030.5
891.099822284385	2016
893.754981889586	2044.75
896.409290281452	2049.75
899.062747986485	2074.5
901.715355529999	2070.5
904.367113436154	2052.5
907.01802222793	2057.25
909.668082427172	2001.75
912.317294554574	2021
914.965659129659	2056.25
917.613176670835	2043.5
920.259847695364	2061
922.90567271936	2044
925.550652257825	2015.5
928.194786824621	2045.5
930.838076932512	2043
933.480523093109	2073.75
936.122125816953	2059.5
938.762885613447	2062.5
941.402802990899	2045.75
944.041878456523	2084.5
946.680112516428	2054
949.31750567563	2050.25
951.954058438081	2072.25
954.589771306633	2041.5
957.224644783048	2040
959.858679368044	2055.75
962.491875561238	2046.75
965.12423386121	2056.5
967.75575476545	2050.25
970.386438770423	2084
973.016286371501	2091.75
975.645298063046	2090.5
978.273474338355	2085
980.900815689674	2047.25
983.527322608243	2029.5
986.152995584245	2030.75
988.777835106834	2066
991.401841664148	2078.25
994.025015743307	2104.75
996.647357830407	2102.25
999.268868410534	2103.75
1001.88954796777	2088.25
1004.50939698518	2089.25
1007.12841594484	2028
1009.74660532783	2031.75
1012.36396561423	2053
1014.98049728314	2044
1017.59620081267	2026.25
1020.21107667995	2033.25
1022.82512536112	2033
1025.43834733138	2032.75
1028.05074306493	2057.25
1030.66231303501	2088
1033.27305771392	2090.25
1035.88297757299	2102
1038.49207308257	2062.5
1041.10034471211	2070.75
1043.70779293008	2092
1046.31441820402	2067
1048.92022100052	2069
1051.52520178525	2087.25
1054.12936102295	2089.25
1056.73269917742	2068.5
1059.33521671154	2039.5
1061.93691408729	2038.25
1064.53779176571	2044.75
1067.13785020694	2024.75
1069.73708987022	2033.5
1072.33551121386	2031.5
1074.93311469528	1996.75
1077.52990077103	2012.75
1080.12586989674	2037.25
1082.72102252714	2011.25
1085.31535911611	2007.75
1087.90888011663	2052.25
1090.50158598078	2018.5
1093.09347715979	2048.5
1095.68455410403	2010
1098.27481726296	2006.75
1100.86426708523	2050.25
1103.45290401857	2031
1106.04072850991	2028.5
1108.6277410053	1998.75
1111.21394194993	2036
1113.79933178816	2030.5
1116.3839109635	2015
1118.96767991862	2015.5
1121.55063909539	2023
1124.13278893477	2023.75
1126.71412987696	2016.5
1129.29466236132	2021
1131.87438682637	2056.75
1134.45330370982	2053.5
1137.03141344858	2041.5
1139.60871647872	2046.25
1142.18521323554	2070.75
1144.7609041535	2089.25
1147.33578966629	2127.25
1149.90987020676	2204
1152.48314620702	2187
1155.05561809835	2163
1157.62728631125	2131.5
1160.19815127545	2104.25
1162.76821341988	2077.25
1165.33747317271	2100.25
1167.90593096133	2079.5
1170.47358721235	2056.25
1173.04044235163	2058.75
1175.60649680425	2050.75
1178.17175099454	2011
1180.73620534607	2014.25
1183.29986028165	2005.75
1185.86271622336	2003.25
1188.42477359249	1961.5
1190.98603280964	1972.25
1193.54649429462	1982.5
1196.10615846653	1987.5
1198.66502574372	2002.5
1201.22309654385	2002.75
1203.78037128378	1978.5
1206.33685037971	1984.5
1208.89253424709	2020.5
1211.44742330063	1997.25
1214.00151795438	2019.5
1216.55481862163	2026.25
1219.10732571497	2038.75
1221.65903964631	2028.25
1224.20996082683	2012.25
1226.760089667	1997.75
1229.30942657664	1991.5
1231.85797196483	1983.5
1234.40572623998	1994.5
1236.95268980981	1994.5
1239.49886308136	2010
1242.04424646098	1975.75
1244.58884035435	2008.25
1247.13264516647	2024.5
1249.67566130166	2040
1252.21788916358	2033.25
1254.75932915524	2042.5
1257.29998167896	2055
1259.83984713639	2017
1262.37892592857	2024.25
1264.91721845586	2003
1267.45472511795	2021.25
1269.9914463139	1993.5
1272.52738244213	2021.5
1275.0625339004	2012.75
1277.59690108587	2005.75
1280.130484395	2036
1282.66328422367	1998.75
1285.19530096712	2011.75
1287.72653501993	2035.25
1290.25698677608	2028.5
1292.78665662894	2047.75
1295.31554497125	2025.5
1297.8436521951	2032.75
1300.37097869203	2025.5
1302.89752485292	2015.75
1305.42329106805	2023
1307.94827772713	2029.75
1310.47248521921	2021.5
1312.99591393279	2036
1315.51856425575	2043
1318.04043657536	2058.75
1320.56153127836	2074.5
1323.08184875083	2111.5
1325.6013893783	2177.25
1328.12015354572	2196.25
1330.63814163744	2208.25
1333.15535403727	2147.25
1335.67179112839	2133
1338.18745329347	2066.75
1340.70234091454	2067.75
1343.21645437314	2064
1345.72979405019	2063.5
1348.24236032607	2066.75
1350.75415358059	2078.5
1353.26517419303	2102.75
1355.7754225421	2109
1358.28489900594	2133
1360.79360396218	2129
1363.30153778787	2127
1365.80870085955	2118.25
1368.31509355319	2085.75
1370.82071624424	2076.75
1373.32556930762	2064.5
1375.8296531177	2075.25
1378.33296804832	2047.75
1380.83551447282	2051.25
1383.33729276399	2041.25
1385.83830329408	2045.5
1388.33854643489	2039.5
1390.83802255762	2015
1393.33673203301	2040
1395.83467523128	2029
1398.33185252211	2031.25
1400.82826427471	2027.25
1403.32391085777	1995
1405.81879263947	2022.25
1408.31290998752	2019.5
1410.80626326908	2002
1413.29885285087	1995.5
1415.79067909909	1992.25
1418.28174237944	1986.75
1420.77204305717	1990.5
1423.26158149702	2013.5
1425.75035806323	2028.25
1428.2383731196	2032.25
1430.72562702942	2052.75
1433.21212015554	2087
1435.69785286028	2106.25
1438.18282550555	2110.75
1440.66703845275	2108.25
1443.15049206284	2081.5
1445.6331866963	2095
1448.11512271316	2141.25
1450.59630047298	2165.25
1453.07672033486	2211.75
1455.55638265748	2268
1458.03528779902	2266.5
1460.51343611725	2254.75
1462.99082796946	2222.75
1465.46746371252	2173
1467.94334370285	2131.25
1470.41846829642	2094.75
1472.89283784878	2057.75
1475.36645271503	2058.5
1477.83931324983	2048.75
1480.31141980743	2048.75
1482.78277274164	2042
1485.25337240583	2041.5
1487.72321915297	2033.25
1490.19231333557	2018
1492.66065530578	2022.25
1495.12824541525	2032.75
1497.5950840153	2012.75
1500.06117145678	2034.5
1502.52650809014	2028
1504.99109426543	2019.5
1507.45493033227	2009.75
1509.91801663992	2034.75
1512.38035353717	2023.5
1514.84194137248	2026.25
1517.30278049386	2016.25
1519.76287124894	2037.75
1522.22221398497	2034.75
1524.68080904876	2004.5
1527.13865678681	1997.5
1529.59575754514	2041.75
1532.05211166945	2048.25
1534.50771950503	2040.5
1536.96258139678	2003.75
1539.41669768924	2023.5
1541.87006872656	2039.75
1544.32269485252	2028.75
1546.77457641051	2033.75
1549.22571374357	2055.25
1551.67610719434	2043.25
1554.12575710513	2063.25
1556.57466381785	2078
1559.02282767408	2056.5
1561.47024901499	2079.75
1563.91692818144	2077.25
1566.3628655139	2113.5
1568.80806135249	2096.25
1571.252516037	2088.75
1573.6962299068	2119.25
1576.13920330099	2110.25
1578.58143655828	2098.5
1581.02293001704	2135
1583.46368401528	2111.25
1585.90369889071	2105.75
1588.34297498065	2148.75
1590.7815126221	2173
1593.21931215173	2185
1595.65637390588	2202
1598.09269822053	2219.5
1600.52828543135	2193
1602.96313587367	2181.5
1605.3972498825	2136.5
1607.83062779252	2116
1610.26326993808	2131
1612.69517665322	2108
1615.12634827165	2103
1617.55678512676	2119.25
1619.98648755163	2096
1622.41545587902	2089.5
1624.84369044138	2116.75
1627.27119157085	2090.25
1629.69795959924	2077.25
1632.12399485808	2094.5
1634.54929767859	2104.5
1636.97386839165	2108.75
1639.39770732789	2096
1641.8208148176	2118
1644.24319119078	2100.75
1646.66483677715	2137.75
1649.0857519061	2133.75
1651.50593690677	2147.75
1653.92539210795	2102.25
1656.3441178382	2134.25
1658.76211442575	2128.75
1661.17938219855	2129
1663.59592148428	2154
1666.01173261032	2159
1668.42681590377	2167
1670.84117169145	2178.5
1673.25480029991	2173.5
1675.66770205541	2157.5
1678.07987728393	2167
1680.49132631119	2161.75
1682.90204946263	2181.75
1685.31204706342	2173.5
1687.72131943846	2185.75
1690.1298669124	2178
1692.53768980957	2226.75
1694.94478845411	2202.75
1697.35116316982	2204.25
1699.75681428031	2198.75
1702.16174210887	2210.75
1704.56594697858	2194.5
1706.96942921222	2213.25
1709.37218913235	2195.75
1711.77422706125	2213.75
1714.17554332098	2205.5
1716.5761382333	2220.25
1718.97601211977	2191.75
1721.37516530169	2205.25
1723.77359810006	2200.5
1726.17131083572	2193.25
1728.56830382922	2183.5
1730.96457740087	2201.5
1733.36013187075	2189.5
1735.75496755868	2228
1738.14908478428	2184.25
1740.54248386689	2209.25
1742.93516512565	2175.5
1745.32712887946	2233
1747.71837544697	2207.25
1750.10890514662	2221.25
1752.49871829661	2212.5
1754.88781521492	2207.25
1757.27619621929	2221
1759.66386162726	2201.25
1762.05081175612	2230.5
1764.43704692297	2233.25
1766.82256744465	2201.25
1769.20737363782	2235.5
1771.59146581887	2203.75
1773.97484430405	2235
1776.35750940932	2259.25
1778.73946145048	2235.25
1781.12070074309	2247
1783.50122760249	2257
1785.88104234385	2220
1788.26014528209	2249.5
1790.63853673196	2266.25
1793.01621700796	2265.75
1795.39318642443	2267.25
1797.76944529549	2268.25
1800.14499393503	2289.25
1802.51983265681	2276.75
1804.8939617743	2288.75
1807.26738160085	2294.75
1809.64009244957	2299.75
1812.01209463339	2261.75
1814.38338846504	2273.5
1816.75397425706	2263.5
1819.12385232181	2248.5
1821.49302297142	2299
1823.86148651789	2287.5
1826.22924327299	2277
1828.59629354831	2319.75
1830.96263765526	2294.75
1833.32827590507	2286
1835.69320860877	2281.75
1838.05743607724	2295
1840.42095862113	2303.5
1842.78377655097	2279.25
1845.14589017707	2287.25
1847.50729980956	2281.75
1849.86800575843	2302.25
1852.22800833346	2287.75
1854.58730784427	2278.5
1856.94590460032	2313.5
1859.30379891087	2299
1861.66099108503	2328.5
1864.01748143175	2336.75
1866.37327025978	2305
1868.72835787773	2307.25
1871.08274459403	2319.5
1873.43643071697	2337
1875.78941655464	2358
1878.14170241498	2334.5
1880.4932886058	2339.25
1882.84417543469	2367
1885.19436320915	2340.5
1887.54385223646	2350.25
1889.89264282378	2377.25
1892.24073527809	2387.25
1894.58812990625	2374.25
1896.93482701493	2411.75
1899.28082691067	2413.5
1901.62612989984	2430
1903.97073628868	2433.5
1906.31464638326	2420
1908.6578604895	2412
1911.00037891321	2454.25
1913.34220196	2463
1915.68332993537	2459
1918.02376314468	2434.75
1920.36350189311	2448.5
1922.70254648573	2442.5
1925.04089722744	2440.75
1927.37855442303	2436.75
1929.71551837715	2448.5
1932.05178939426	2467.5
1934.38736777876	2466.5
1936.72225383484	2428
1939.0564478666	2461.25
1941.38995017799	2429.25
1943.72276107283	2455.25
1946.05488085479	2448.75
1948.38630982744	2451
1950.71704829419	2454.75
1953.04709655832	2448.5
1955.376454923	2445.5
1957.70512369126	2438.75
1960.03310316599	2444.25
1962.36039364999	2459
1964.68699544589	2449
1967.01290885622	2467
1969.33813418338	2449.25
1971.66267172965	2459.75
1973.98652179718	2434.75
1976.309684688	2474.5
1978.63216070402	2464
1980.95395014705	2507.5
1983.27505331873	2454.75
1985.59547052063	2482
1987.9152020542	2483.25
1990.23424822074	2469.75
1992.55260932146	2479.75
1994.87028565746	2511.25
1997.18727752968	2489
1999.503585239	2502.5
2001.81920908618	2511.25
2004.13414937184	2516.25
2006.44840639651	2501.5
2008.7619804606	2526.25
2011.07487186442	2528.25
2013.38708090815	2556.25
2015.6986078919	2539
2018.00945311564	2560.75
2020.31961687923	2541.5
2022.62909948246	2548.25
2024.93790122498	2569.5
2027.24602240636	2573
2029.55346332604	2613.25
2031.86022428337	2587.5
2034.16630557761	2598
2036.47170750791	2581.75
2038.77643037331	2565.75
2041.08047447275	2610.5
2043.38384010509	2580.5
2045.68652756907	2590
2047.98853716335	2612.25
2050.28986918648	2619.25
2052.59052393692	2625.25
2054.89050171302	2607
2057.18980281306	2629.75
2059.4884275352	2601.75
2061.78637617753	2592
2064.08364903802	2609.25
2066.38024641457	2577.75
2068.67616860497	2634.25
2070.97141590694	2607.5
2073.26598861809	2602.5
2075.55988703595	2603.75
2077.85311145796	2594
2080.14566218145	2597
2082.43753950371	2625.25
2084.72874372188	2616.75
2087.01927513307	2605.25
2089.30913403428	2632.5
2091.59832072241	2583.25
2093.88683549429	2623.5
2096.17467864666	2618.75
2098.46185047619	2616.5
2100.74835127944	2645
2103.03418135292	2600.75
2105.31934099303	2601.5
2107.6038304961	2622.5
2109.88765015838	2607.75
2112.17080027602	2622.75
2114.45328114513	2663
2116.7350930617	2635.5
2119.01623632165	2623.25
2121.29671122085	2645.25
2123.57651805505	2672.5
2125.85565711996	2649.25
2128.13412871117	2671.25
2130.41193312424	2654
2132.68907065462	2647
2134.96554159771	2661
2137.24134624881	2653.5
2139.51648490317	2650.25
2141.79095785593	2666.25
2144.0647654022	2679.75
2146.33790783698	2668.25
2148.61038545524	2648.75
2150.88219855182	2729.5
2153.15334742154	2702.5
2155.42383235911	2702
2157.6936536592	2711.5
2159.9628116164	2708
2162.23130652522	2675.75
2164.49913868011	2696
2166.76630837544	2709
2169.03281590552	2686.25
2171.2986615646	2694.5
2173.56384564685	2722
2175.82836844637	2696
2178.0922302572	2677.5
2180.35543137332	2669
2182.61797208862	2708.25
2184.87985269695	2726
2187.14107349208	2699.5
2189.40163476773	2726.5
2191.66153681753	2706.75
2193.92077993507	2693.75
2196.17936441386	2719.25
2198.43729054735	2717.5
2200.69455862894	2731.5
2202.95116895194	2704.5
2205.20712180962	2723
2207.46241749519	2690
2209.71705630179	2691.5
2211.97103852248	2724.25
2214.2243644503	2724.25
2216.47703437819	2689.25
2218.72904859905	2715.25
2220.98040740571	2725.5
2223.23111109095	2699.75
2225.4811599475	2741.75
2227.73055426799	2722.25
2229.97929434504	2705.25
2232.22738047118	2683.5
2234.47481293889	2716
2236.72159204058	2720
2238.96771806864	2723.5
2241.21319131536	2714.75
2243.458012073	2713.25
2245.70218063374	2716.75
2247.94569728973	2729
2250.18856233304	2735.25
2252.4307760557	2692.25
2254.67233874967	2723.5
2256.91325070687	2727
2259.15351221915	2732
2261.39312357831	2707.75
2263.63208507611	2709.25
2265.87039700422	2731
2268.1080596543	2742
2270.34507331792	2714.75
2272.5814382866	2703.5
2274.81715485183	2754
2277.05222330502	2720
2279.28664393755	2744.25
2281.52041704072	2726.25
2283.75354290581	2726
2285.98602182401	2724.5
2288.21785408648	2720.25
2290.44903998434	2720
2292.67957980862	2720.75
2294.90947385033	2738
2297.1387224004	2733
2299.36732574975	2745.5
2301.59528418921	2764.75
2303.82259800958	2767.75
2306.04926750158	2709.75
2308.27529295593	2746.5
2310.50067466325	2747.75
2312.72541291412	2736.25
2314.9495079991	2747.75
2317.17296020866	2748.5
2319.39576983323	2748
2321.61793716322	2726.5
2323.83946248894	2747.25
2326.06034610069	2740.25
2328.28058828871	2708
2330.50018934317	2728
2332.7191495542	2733.75
2334.93746921192	2720.25
2337.15514860633	2728.5
2339.37218802743	2724
2341.58858776516	2721.75
2343.80434810941	2674.75
2346.01946935001	2726
2348.23395177675	2689
2350.44779567939	2738.75
2352.66100134759	2708.25
2354.87356907101	2738
2357.08549913925	2707.75
2359.29679184185	2692.5
2361.50744746829	2695.5
2363.71746630804	2741
2365.92684865048	2703.75
2368.13559478499	2711.75
2370.34370500083	2704.5
2372.55117958727	2686
2374.75801883352	2680
2376.96422302874	2716
2379.16979246202	2689.75
2381.37472742243	2677.75
2383.57902819898	2695.75
2385.78269508063	2735
2387.98572835629	2667.25
2390.18812831482	2708.5
2392.38989524505	2696.25
2394.59102943573	2682.75
2396.79153117559	2691
2398.9914007533	2670.25
2401.19063845748	2700.25
2403.38924457672	2681
2405.58721939951	2645.5
2407.78456321435	2678.75
2409.98127630966	2668.5
2412.17735897382	2683
2414.37281149517	2666.25
2416.56763416198	2678.5
2418.76182726249	2688.75
2420.95539108487	2649.5
2423.14832591726	2665.25
2425.34063204776	2670.5
2427.53230976439	2650
2429.72335935513	2654.5
2431.91378110795	2651.75
2434.10357531071	2652.75
2436.29274225125	2643.75
2438.48128221739	2612
2440.66919549683	2651
2442.8564823773	2650.25
2445.04314314641	2632.75
2447.22917809176	2625.5
2449.4145875009	2616
2451.59937166131	2638.5
2453.78353086044	2610.75
2455.96706538568	2636.5
2458.14997552436	2603.25
2460.33226156379	2606.25
2462.51392379119	2637
2464.69496249376	2591
2466.87537795862	2606.5
2469.05517047288	2585.75
2471.23434032357	2586
2473.41288779767	2613.5
2475.59081318211	2599.5
2477.76811676378	2594
2479.9447988295	2608.5
2482.12085966605	2565.25
2484.29629956016	2551
2486.4711187985	2574
2488.64531766769	2574.5
2490.8188964543	2581
2492.99185544484	2573.5
2495.16419492579	2557.75
2497.33591518353	2583.75
2499.50701650444	2541.5
2501.67749917482	2553.25
2503.84736348091	2583.25
2506.01660970891	2526
2508.18523814496	2566
2510.35324907514	2570.25
2512.52064278551	2561
2514.68741956201	2580.5
2516.85357969058	2584.25
2519.01912345709	2582.75
2521.18405114735	2553
2523.34836304711	2599.75
2525.51205944208	2572.75
2527.6751406179	2568.25
2529.83760686016	2563.25
2531.99945845439	2559.5
2534.16069568606	2591.75
2536.3213188406	2591.25
2538.48132820336	2573.25
2540.64072405965	2563
2542.79950669471	2585.25
2544.95767639373	2585.5
2547.11523344184	2579.75
2549.27217812411	2541.25
2551.42851072555	2563.25
2553.58423153111	2571
2555.73934082569	2570.5
2557.89383889412	2544.75
2560.04772602118	2553.75
2562.20100249158	2515
2564.35366858996	2515
2566.50572460093	2541.25
2568.65717080901	2520.25
2570.80800749867	2512.25
2572.95823495433	2517.75
2575.10785346031	2527.75
2577.25686330093	2508.75
2579.40526476038	2493
2581.55305812282	2505.5
2583.70024367237	2499
2585.84682169303	2506.25
2587.99279246879	2509.5
2590.13815628354	2481.5
2592.28291342112	2488.5
2594.42706416531	2473.5
2596.5706087998	2480
2598.71354760826	2493.75
2600.85588087425	2499.5
2602.99760888127	2497
2605.13873191278	2490.75
2607.27925025214	2464.75
2609.41916418269	2469.5
2611.55847398764	2455.25
2613.69717995017	2464.75
2615.83528235339	2500.25
2617.97278148034	2457.25
2620.10967761398	2434.75
2622.2459710372	2482.25
2624.38166203284	2469
2626.51675088365	2474.5
2628.65123787231	2478.25
2630.78512328145	2474.25
2632.9184073936	2488.5
2635.05109049124	2475.5
2637.18317285676	2477.5
2639.31465477248	2451.75
2641.44553652067	2476.75
2643.5758183835	2483.75
2645.70550064309	2491.5
2647.83458358144	2480.25
2649.96306748053	2510.75
2652.09095262223	2517.25
2654.21823928836	2487.75
2656.34492776063	2465.75
2658.47101832071	2474
2660.59651125015	2496
2662.72140683047	2478
2664.84570534309	2459.5
2666.96940706934	2470.75
2669.0925122905	2449.25
2671.21502128773	2493.75
2673.33693434215	2467.25
2675.45825173479	2469.5
2677.57897374658	2446
2679.69910065839	2458
2681.818632751	2442
2683.93757030511	2462
2686.05591360133	2458
2688.17366292021	2432.25
2690.29081854218	2463
2692.40738074762	2452
2694.52334981681	2451.5
2696.63872602995	2435.75
2698.75350966713	2459.5
2700.86770100841	2484.25
2702.98130033371	2471
2705.09430792289	2474.75
2707.20672405571	2487.75
2709.31854901185	2501.5
2711.42978307091	2486.25
2713.54042651238	2486.5
2715.65047961567	2519.25
2717.7599426601	2528.5
2719.86881592491	2567.25
2721.97709968924	2550.5
2724.08479423213	2546
2726.19189983255	2525.5
2728.29841676934	2504
2730.4043453213	2495
2732.5096857671	2497.25
2734.61443838532	2467.5
2736.71860345444	2463.75
2738.82218125286	2508.25
2740.92517205889	2473.25
2743.02757615072	2479.75
2745.12939380646	2451.25
2747.23062530411	2462
2749.33127092159	2451
2751.4313309367	2433.75
2753.53080562716	2445.25
2755.62969527058	2453.5
2757.72800014448	2444.25
2759.82572052625	2438.25
2761.92285669323	2395
2764.0194089226	2444
2766.11537749147	2424.75
2768.21076267686	2426.75
2770.30556475566	2418.25
2772.39978400465	2383.5
2774.49342070054	2409.75
2776.58647511991	2427.75
2778.67894753923	2403.75
2780.77083823487	2452.25
2782.8621474831	2393.5
2784.95287556007	2402.25
2787.04302274184	2418.25
2789.13258930433	2416.75
2791.22157552338	2425.25
2793.30998167471	2409.75
2795.39780803392	2428.25
2797.4850548765	2409.5
2799.57172247786	2377.5
2801.65781111324	2391
2803.74332105781	2423.5
2805.82825258661	2438.75
2807.91260597457	2426.75
2809.9963814965	2447
2812.07957942711	2424.5
2814.16220004096	2419
2816.24424361252	2421.75
2818.32571041614	2437
2820.40660072604	2462.75
2822.48691481631	2502.75
2824.56665296098	2515.75
2826.64581543388	2554
2828.72440250876	2600.75
2830.80241445925	2681
2832.87985155885	2833.75
2834.95671408093	3022.5
2837.03300229875	3188.25
2839.10871648544	3280.25
2841.18385691399	3299.5
2843.25842385729	3159
2845.33241758808	2989.5
2847.40583837898	2881.75
2849.4786865025	2818.25
2851.550962231	2762.5
2853.6226658367	2720.75
2855.69379759173	2766
2857.76435776806	2845
2859.83434663753	2983.25
2861.90376447184	3252
2863.97261154259	3519.25
2866.0408881212	3661.5
2868.10859447901	3708.75
2870.17573088717	3697.75
2872.24229761673	3665.5
2874.30829493859	3696
2876.37372312352	3875
2878.43858244215	4077.75
2880.50287316496	4227.75
2882.56659556231	4337.5
2884.62974990439	4324.75
2886.69233646129	4273.5
2888.75435550293	4097
2890.81580729909	3970.5
2892.87669211941	3838
2894.93701023339	3779.75
2896.99676191039	3786
2899.05594741961	3876.5
2901.1145670301	3929.75
2903.1726210108	4011.25
2905.23010963045	4034.25
2907.28703315768	3922
2909.34339186096	3729.25
2911.39918600861	3553.25
2913.45441586879	3424.75
2915.50908170952	3391.25
2917.56318379867	3377
2919.61672240395	3388.75
2921.66969779291	3470.75
2923.72211023295	3487.25
2925.77395999134	3452.75
2927.82524733515	3401.25
2929.87597253132	3273
2931.92613584663	3167.75
2933.97573754769	3003.25
2936.02477790097	2903.75
2938.07325717276	2842.75
2940.1211756292	2802.75
2942.16853353626	2822.75
2944.21533115976	2931.5
2946.26156876536	3034.5
2948.30724661853	3245.75
2950.3523649846	3376.5
2952.39692412872	3398.75
2954.44092431587	3302.75
2956.48436581089	3198.75
2958.52724887843	3161.5
2960.56957378296	3111
2962.6113407888	3076.5
2964.65255016011	2974
2966.69320216083	2903
2968.73329705479	2808.75
2970.77283510559	2749
2972.81181657671	2638.25
2974.8502417314	2614
2976.88811083279	2569.25
2978.92542414378	2549.5
2980.96218192713	2521.5
2982.99838444541	2481.25
2985.034031961	2485.75
2987.06912473612	2442.75
2989.1036630328	2414.25
2991.13764711288	2441.75
2993.17107723804	2425.5
2995.20395366974	2401.75
2997.23627666931	2440.25
2999.26804649782	2433.25
3001.29926341624	2418.25
3003.32992768528	2446.25
3005.3600395655	2435.75
3007.38959931726	2443
3009.41860720076	2428.25
3011.44706347595	2467.25
3013.47496840263	2452
3015.50232224041	2430.5
3017.5291252487	2458.75
3019.5553776867	2437.5
3021.58107981344	2444.75
3023.60623188773	2476.5
3025.63083416822	2437.75
3027.65488691331	2450.75
3029.67839038125	2418
3031.70134483007	2428.75
3033.72375051759	2435.75
3035.74560770144	2439.25
3037.76691663907	2456.5
3039.78767758768	2502.75
3041.80789080431	2448
3043.82755654577	2439.5
3045.84667506867	2451
3047.8652466294	2454.75
3049.88327148418	2465.5
3051.90074988899	2431
3053.91768209961	2462.75
3055.9340683716	2422.75
3057.94990896033	2417
3059.96520412095	2453.75
3061.97995410838	2444.75
3063.99415917734	2447.75
3066.00781958234	2459
3068.02093557766	2468.25
3070.03350741738	2430.5
3072.04553535535	2429.75
3074.05701964521	2434
3076.06796054036	2433
3078.078358294	2423
3080.08821315912	2484
3082.09752538846	2455.75
3084.10629523454	2429.25
3086.11452294967	2438.25
3088.12220878592	2429.75
3090.12935299515	2434
3092.13595582898	2430.25
3094.1420175388	2437
3096.14753837579	2444
3098.15251859088	2430
3100.15695843477	2441.75
3102.16085815793	2457
3104.16421801061	2426.25
3106.16703824282	2451.75
3108.16931910432	2429.25
3110.17106084464	2420.25
3112.17226371308	2445.5
3114.17292795872	2430
3116.17305383034	2453.5
3118.17264157657	2452
3120.17169144571	2446
3122.17020368587	2434.25
3124.16817854492	2438
3126.16561627044	2475.25
3128.16251710982	2467.75
3130.15888131017	2435
3132.15470911837	2451
3134.15000078104	2463.5
3136.14475654455	2481.25
3138.13897665502	2476.25
3140.13266135835	2461.75
3142.12581090014	2470.5
3144.11842552577	2513.75
3146.11050548036	2494.5
3148.10205100875	2459.25
3150.09306235557	2504.25
3152.08353976515	2468.75
3154.07348348158	2446.5
3156.06289374869	2462.75
3158.05177081006	2504.25
3160.04011490899	2471.25
3162.02792628852	2475.75
3164.01520519145	2465.25
3166.00195186029	2482
3167.98816653728	2471.5
3169.97384946442	2480.25
3171.95900088344	2487
3173.94362103577	2474.5
3175.92771016259	2499.5
3177.91126850484	2495.5
3179.89429630312	2500
3181.87679379782	2471
3183.85876122903	2464.75
3185.84019883657	2508.75
3187.82110685997	2503
3189.80148553851	2460.25
3191.78133511116	2491.25
3193.76065581664	2499
3195.73944789337	2488.75
3197.7177115795	2484.5
3199.6954471129	2490.25
3201.67265473114	2505.75
3203.64933467153	2468
3205.62548717107	2475.75
3207.60111246648	2490.25
3209.57621079421	2481
3211.55078239041	2481.75
3213.52482749093	2463.25
3215.49834633133	2501.25
3217.4713391469	2519.5
3219.44380617262	2488
3221.41574764317	2515
3223.38716379296	2487
3225.35805485607	2512.5
3227.32842106631	2490.5
3229.29826265718	2524
3231.26757986187	2509
3233.2363729133	2536.25
3235.20464204405	2534.5
3237.17238748643	2527.75
3239.13960947243	2508.75
3241.10630823374	2525.75
3243.07248400174	2501.5
3245.03813700748	2522.5
3247.00326748177	2530
3248.96787565503	2522.25
3250.93196175742	2522.5
3252.89552601877	2537.75
3254.8585686686	2517
3256.82108993612	2546.75
3258.78309005022	2524.25
3260.74456923948	2530.5
3262.70552773215	2553
3264.66596575617	2531.75
3266.62588353916	2494
3268.58528130843	2547.5
3270.54415929094	2522.5
3272.50251771336	2513
3274.46035680201	2530
3276.4176767829	2550.75
3278.37447788171	2500.75
3280.33076032379	2555.5
3282.28652433416	2587
3284.24177013751	2553.25
3286.1964979582	2541
3288.15070802027	2569.5
3290.10440054741	2556.25
3292.05757576298	2516.75
3294.01023389001	2548
3295.96237515119	2544.25
3297.91399976887	2548.25
3299.86510796506	2532.75
3301.81569996142	2548.75
3303.76577597932	2549.5
3305.7153362397	2521
3307.66438096324	2540.75
3309.61291037024	2530.75
3311.56092468064	2514.5
3313.50842411404	2532.25
3315.45540888971	2519.75
3317.40187922656	2543
3319.34783534315	2521
3321.29327745768	2497
3323.23820578801	2489
3325.18262055164	2521
3327.1265219657	2511.5
3329.06991024699	2533
3331.01278561194	2523.5
3332.95514827662	2519.75
3334.89699845674	2523.75
3336.83833636766	2528.25
3338.77916222434	2508
3340.71947624143	2521.75
3342.65927863317	2523.5
3344.59856961346	2511.5
3346.53734939584	2547.75
3348.47561819344	2533
3350.41337621906	2486
3352.35062368513	2502.75
3354.28736080368	2539.25
3356.22358778637	2523.25
3358.15930484452	2540.5
3360.09451218904	2516.5
3362.02921003047	2523.75
3363.96339857898	2526.25
3365.89707804436	2507.25
3367.83024863602	2534.25
3369.76291056299	2506.5
3371.69506403389	2485.75
3373.62670925699	2521.25
3375.55784644016	2531.75
3377.4884757909	2513.75
3379.41859751629	2539
3381.34821182305	2547.25
3383.27731891749	2520
3385.20591900555	2518
3387.13401229276	2494.75
3389.06159898426	2506
3390.9886792848	2552.5
3392.91525339872	2561.25
3394.84132152998	2530.25
3396.76688388213	2517
3398.69194065833	2533.25
3400.61649206133	2534.75
3402.54053829348	2543.75
3404.46407955672	2527.5
3406.3871160526	2549
3408.30964798225	2525.5
3410.23167554639	2544.5
3412.15319894535	2550.25
3414.07421837904	2534.25
3415.99473404695	2528.75
3417.91474614817	2533.75
3419.83425488136	2553.25
3421.75326044479	2541.25
3423.67176303631	2540.75
3425.58976285332	2525.25
3427.50726009282	2537.25
3429.42425495143	2525
3431.34074762528	2516.25
3433.25673831012	2517
3435.17222720127	2512.5
3437.08721449362	2513.75
3439.00170038164	2476.5
3440.91568505936	2546
3442.82916872039	2522.25
3444.74215155791	2481.5
3446.65463376468	2527.25
3448.566615533	2495.75
3450.47809705476	2516.25
3452.3890785214	2497.75
3454.29956012393	2509.75
3456.20954205293	2492.5
3458.11902449853	2501
3460.02800765041	2489.25
3461.93649169784	2480
3463.84447682962	2473
3465.75196323412	2457.25
3467.65895109925	2496
3469.56544061249	2480.75
3471.47143196086	2468
3473.37692533093	2504
3475.28192090884	2471
3477.18641888026	2492
3479.09041943039	2477
3480.99392274402	2507
3482.89692900545	2474.25
3484.79943839853	2454
3486.70145110666	2478.5
3488.60296731277	2456
3490.50398719933	2475.5
3492.40451094836	2441
3494.30453874141	2492
3496.20407075956	2460
3498.10310718342	2462.25
3500.00164819315	2456