201.866871357051	813.5
204.754250281454	820.75
207.640596790938	808.75
210.525911876299	813.75
213.410196525689	803.5
216.293451724508	815.25
219.175678455485	804.25
222.056877698662	816.25
224.937050431388	822
227.816197628363	829.75
230.694320261602	829.75
233.571419300504	835.25
236.447495711764	837.75
239.322550459507	846.25
242.196584505182	862.75
245.069598807626	872.25
247.941594323078	872
250.812572005154	875.75
253.682532804884	879
256.551477670699	872.75
259.419407548456	861.75
262.286323381439	848.75
265.152226110364	846.5
268.017116673389	839.25
270.880996006115	840
273.743865041622	844.75
276.605724710436	845.5
279.466575940562	844.75
282.326419657496	833.25
285.1852567842	831
288.043088241157	836.5
290.899914946349	840.25
293.75573781526	830.75
296.610557760898	833.5
299.464375693817	837.5
302.317192522078	839.5
305.169009151297	846
308.019826484655	848
310.86964542287	835.75
313.718466864233	842.5
316.566291704614	843.25
319.413120837457	851.25
322.258955153804	844.5
325.103795542291	846.75
327.947642889128	847.25
330.79049807819	843.5
333.632361990927	847.25
336.473235506444	831.5
339.31311950145	846.5
342.152014850322	839
344.989922425062	848.75
347.826843095354	846
350.662777728528	835.25
353.497727189577	835.5
356.331692341195	848.75
359.164674043732	842.25
361.996673155267	842.75
364.827690531536	838.25
367.65772702602	846.75
370.486783489887	853
373.314860772047	853.25
376.14195971912	855.75
378.968081175466	856.5
381.793225983212	866
384.617394982201	870.5
387.44058901005	895.75
390.262808902131	908.75
393.08405549161	938.5
395.904329609395	978.5
398.723632084213	1005.25
401.541963742569	983.75
404.359325408779	951.5
407.175717904938	913.75
409.991142050982	892.5
412.805598664665	875.25
415.619088561551	884.5
418.43161255505	879.5
421.243171456415	876.5
424.053766074758	876.75
426.863397217017	875
429.672065688024	865.5
432.479772290455	892
435.286517824879	887
438.092303089736	879.75
440.897128881359	893.75
443.70099599399	898
446.503905219761	906.25
449.305857348711	939.5
452.106853168796	952
454.906893465919	946.25
457.705979023885	943.75
460.504110624439	914.75
463.3012890473	908.5
466.097515070087	899.75
468.892789468424	882.25
471.687113015869	888.5
474.48048648395	881.25
477.272910642198	875.5
480.064386258109	879.5
482.854914097159	878.25
485.644494922839	880.75
488.433129496636	880
491.220818578047	873
494.007562924584	868.75
496.793363291785	879.5
499.578220433217	883.5
502.362135100473	877.5
505.145108043209	883.5
507.927140009098	877.5
510.708231743909	893.25
513.488383991433	888.5
516.267597493556	897
519.04587299022	908
521.82321121946	911.5
524.599612917398	915.75
527.375078818233	931.25
530.149609654287	921
532.923206155967	912.75
535.695869051804	920.75
538.467599068448	901.5
541.238396930665	901.5
544.008263361364	881.75
546.777199081578	884
549.545204810493	890
552.312281265436	897
555.078429161898	901.75
557.843649213533	895
560.607942132156	892.25
563.371308627753	897
566.133749408495	891
568.895265180756	892
571.655856649064	891.75
574.415524516189	892.5
577.174269483075	902.5
579.932092248884	898
582.688993510994	897
585.444973965023	893.25
588.200034304795	912
590.95417522237	898.5
593.70739740807	906.75
596.459701550433	903.25
599.21108833628	898.75
601.961558450668	899.25
604.711112576933	903.75
607.459751396673	884.25
610.207475589748	901.75
612.954285834338	901.5
615.700182806879	886.75
618.445167182101	883.75
621.189239633055	886.25
623.932400831087	895.25
626.674651445839	896.25
629.415992145303	896.75
632.156423595745	890.5
634.895946461813	898.25
637.634561406449	899.5
640.37226909096	904.25
643.109070174978	891.25
645.844965316508	895.75
648.579955171888	900.5
651.314040395846	901.5
654.047221641456	908.25
656.779499560176	895.5
659.510874801828	898.75
662.241348014642	915.75
664.97091984524	904.5
667.699590938606	903.5
670.427361938164	903.25
673.15423348573	897.5
675.880206221526	906
678.605280784206	908.5
681.329457810829	910.5
684.05273793692	902.5
686.775121796389	915
689.49661002163	912
692.217203243454	911.75
694.936902091144	923
697.655707192425	907.25
700.373619173493	905.75
703.09063865901	898.5
705.806766272093	902
708.522002634378	904.75
711.236348365946	901.5
713.94980408538	919
716.662370409762	918
719.374047954676	915
722.08483733419	919
724.794739160909	913.25
727.503754045949	918.25
730.21188259892	917.25
732.919125427998	914
735.625483139855	907.75
738.330956339723	913
741.035545631374	916.75
743.739251617106	916.75
746.44207489779	918.25
749.144016072852	915.5
751.845075740272	917.25
754.545254496603	930
757.244552936976	927
759.94297165508	924
762.640511243222	918.25
765.337172292249	930.75
768.032955391649	916.75
770.727861129482	932.25
773.421890092413	931.25
776.11504286572	936.75
778.807320033298	938
781.49872217765	932.25
784.18924987991	934.5
786.87890371984	931.75
789.567684275826	934.5
792.255592124908	951.75
794.94262784276	974
797.628792003703	994.75
800.314085180715	1045.25
802.998507945427	1154
805.682060868145	1310
808.364744517821	1408
811.046559462105	1355
813.727506267311	1216.5
816.407585498422	1088.75
819.08679771913	1003.25
821.765143491822	1002
824.442623377563	994.25
827.119237936127	996.5
829.794987726003	1010
832.469873304377	1028
835.143895227167	1038.75
837.817054048985	1029.25
840.489350323205	1045.75
843.160784601892	1048.25
845.831357435894	1007.25
848.501069374739	996.25
851.169920966753	994.5
853.837912758987	967.25
856.505045297232	977.75
859.171319126071	966.75
861.836734788823	980.75
864.501292827579	971
867.164993783208	962.5
869.827838195361	966.5
872.489826602454	957.75
875.150959541701	963.5
877.811237549104	959.75
880.470661159456	973.5
883.129230906357	962.75
885.786947322205	952.25
888.443810938206	962
891.099822284385	971.25
893.754981889586	978.5
896.409290281452	961
899.062747986485	984
901.715355529999	957.25
904.367113436154	967.75
907.01802222793	964
909.668082427172	966.25
912.317294554574	977
914.965659129659	971.25
917.613176670835	982
920.259847695364	983.75
922.90567271936	998.5
925.550652257825	1002.5
928.194786824621	997
930.838076932512	983
933.480523093109	992.5
936.122125816953	998.25
938.762885613447	1004
941.402802990899	1001.75
944.041878456523	1005.25
946.680112516428	996
949.31750567563	1009.75
951.954058438081	993.25
954.589771306633	1010.75
957.224644783048	996.5
959.858679368044	1004.5
962.491875561238	1021
965.12423386121	1063
967.75575476545	1129
970.386438770423	1211.5
973.016286371501	1244.75
975.645298063046	1205.75
978.273474338355	1115
980.900815689674	1055.75
983.527322608243	1024.5
986.152995584245	1019.75
988.777835106834	1004.75
991.401841664148	1005
994.025015743307	1001
996.647357830407	1004.25
999.268868410534	1008.25
1001.88954796777	1019.25
1004.50939698518	1030.75
1007.12841594484	1013.25
1009.74660532783	1011.5
1012.36396561423	1022
1014.98049728314	1013.25
1017.59620081267	1015.75
1020.21107667995	1005.5
1022.82512536112	1004
1025.43834733138	1021.5
1028.05074306493	1028.5
1030.66231303501	1051.25
1033.27305771392	1056.25
1035.88297757299	1072.5
1038.49207308257	1061.5
1041.10034471211	1057.5
1043.70779293008	1059.5
1046.31441820402	1056.5
1048.92022100052	1046.25
1051.52520178525	1054.75
1054.12936102295	1058.5
1056.73269917742	1058.25
1059.33521671154	1064
1061.93691408729	1044.25
1064.53779176571	1060.75
1067.13785020694	1044.75
1069.73708987022	1039.25
1072.33551121386	1039.25
1074.93311469528	1041.75
1077.52990077103	1053.5
1080.12586989674	1050.25
1082.72102252714	1059
1085.31535911611	1075.5
1087.90888011663	1080.75
1090.50158598078	1067.75
1093.09347715979	1053
1095.68455410403	1053.75
1098.27481726296	1057
1100.86426708523	1061.5
1103.45290401857	1068
1106.04072850991	1071
1108.6277410053	1064.75
1111.21394194993	1063
1113.79933178816	1058.25
1116.3839109635	1066.5
1118.96767991862	1072.75
1121.55063909539	1088.75
1124.13278893477	1112.25
1126.71412987696	1093
1129.29466236132	1110.5
1131.87438682637	1119.5
1134.45330370982	1123.75
1137.03141344858	1115.5
1139.60871647872	1121.5
1142.18521323554	1148
1144.7609041535	1166.25
1147.33578966629	1176.5
1149.90987020676	1214
1152.48314620702	1205.5
1155.05561809835	1224.5
1157.62728631125	1238.25
1160.19815127545	1258.75
1162.76821341988	1325.75
1165.33747317271	1398.5
1167.90593096133	1436.5
1170.47358721235	1417.25
1173.04044235163	1392.75
1175.60649680425	1378.25
1178.17175099454	1389
1180.73620534607	1320.75
1183.29986028165	1264.75
1185.86271622336	1223
1188.42477359249	1197
1190.98603280964	1214
1193.54649429462	1205.75
1196.10615846653	1191.25
1198.66502574372	1173.75
1201.22309654385	1171.5
1203.78037128378	1165.25
1206.33685037971	1165.5
1208.89253424709	1147.5
1211.44742330063	1164.5
1214.00151795438	1188.75
1216.55481862163	1213
1219.10732571497	1209.25
1221.65903964631	1210.75
1224.20996082683	1200.75
1226.760089667	1175.5
1229.30942657664	1185
1231.85797196483	1201
1234.40572623998	1190.25
1236.95268980981	1223
1239.49886308136	1253
1242.04424646098	1264.75
1244.58884035435	1261.25
1247.13264516647	1272.25
1249.67566130166	1258.5
1252.21788916358	1275
1254.75932915524	1281.75
1257.29998167896	1277.75
1259.83984713639	1259.75
1262.37892592857	1257.25
1264.91721845586	1259.5
1267.45472511795	1245
1269.9914463139	1235.25
1272.52738244213	1257
1275.0625339004	1255.75
1277.59690108587	1256
1280.130484395	1280.5
1282.66328422367	1285.5
1285.19530096712	1279.75
1287.72653501993	1300.75
1290.25698677608	1301.5
1292.78665662894	1323.75
1295.31554497125	1350
1297.8436521951	1380
1300.37097869203	1348
1302.89752485292	1371
1305.42329106805	1399.25
1307.94827772713	1397.25
1310.47248521921	1387.75
1312.99591393279	1390.5
1315.51856425575	1385.5
1318.04043657536	1407.25
1320.56153127836	1439.75
1323.08184875083	1473.5
1325.6013893783	1517
1328.12015354572	1541.5
1330.63814163744	1563
1333.15535403727	1518.5
1335.67179112839	1484.75
1338.18745329347	1469.75
1340.70234091454	1451.75
1343.21645437314	1431.5
1345.72979405019	1463.75
1348.24236032607	1462.75
1350.75415358059	1484.25
1353.26517419303	1500.5
1355.7754225421	1545.5
1358.28489900594	1547.25
1360.79360396218	1562.25
1363.30153778787	1542.75
1365.80870085955	1538
1368.31509355319	1506
1370.82071624424	1531.75
1373.32556930762	1527.75
1375.8296531177	1529
1378.33296804832	1522
1380.83551447282	1534.75
1383.33729276399	1526
1385.83830329408	1527.25
1388.33854643489	1539
1390.83802255762	1531.75
1393.33673203301	1549
1395.83467523128	1523.25
1398.33185252211	1536
1400.82826427471	1569.5
1403.32391085777	1566.75
1405.81879263947	1597.25
1408.31290998752	1580.25
1410.80626326908	1589.75
1413.29885285087	1635.5
1415.79067909909	1648.75
1418.28174237944	1644.25
1420.77204305717	1666
1423.26158149702	1648.25
1425.75035806323	1693.75
1428.2383731196	1681.25
1430.72562702942	1726.5
1433.21212015554	1787.5
1435.69785286028	1807
1438.18282550555	1807.5
1440.66703845275	1812.75
1443.15049206284	1804
1445.6331866963	1831.5
1448.11512271316	1890.75
1450.59630047298	1925.25
1453.07672033486	1998.75
1455.55638265748	2031
1458.03528779902	2064.5
1460.51343611725	2054
1462.99082796946	2055
1465.46746371252	1978.75
1467.94334370285	1954
1470.41846829642	1931.25
1472.89283784878	1931.75
1475.36645271503	1913.5
1477.83931324983	1940.25
1480.31141980743	1947.25
1482.78277274164	1953.75
1485.25337240583	1936.25
1487.72321915297	1977.25
1490.19231333557	1987.25
1492.66065530578	2002.25
1495.12824541525	2025.5
1497.5950840153	2016.25
1500.06117145678	2020
1502.52650809014	2018.25
1504.99109426543	2026
1507.45493033227	2041
1509.91801663992	2052.5
1512.38035353717	2072
1514.84194137248	2067.75
1517.30278049386	2103.5
1519.76287124894	2084
1522.22221398497	2109.5
1524.68080904876	2104
1527.13865678681	2129.25
1529.59575754514	2145.5
1532.05211166945	2189.25
1534.50771950503	2205.5
1536.96258139678	2206.25
1539.41669768924	2230.25
1541.87006872656	2260.5
1544.32269485252	2313.75
1546.77457641051	2310
1549.22571374357	2359
1551.67610719434	2359.25
1554.12575710513	2356.25
1556.57466381785	2370
1559.02282767408	2337
1561.47024901499	2377.75
1563.91692818144	2375.75
1566.3628655139	2418.75
1568.80806135249	2453.25
1571.252516037	2452.5
1573.6962299068	2472
1576.13920330099	2482.5
1578.58143655828	2497
1581.02293001704	2485.25
1583.46368401528	2495.5
1585.90369889071	2528
1588.34297498065	2581.5
1590.7815126221	2611.5
1593.21931215173	2654.5
1595.65637390588	2742.5
1598.09269822053	2906.5
1600.52828543135	3070.25
1602.96313587367	3055.75
1605.3972498825	2950.75
1607.83062779252	2863.75
1610.26326993808	2928
1612.69517665322	2963
1615.12634827165	2926.5
1617.55678512676	2789.5
1619.98648755163	2727
1622.41545587902	2665
1624.84369044138	2628.5
1627.27119157085	2649
1629.69795959924	2690.75
1632.12399485808	2682
1634.54929767859	2699
1636.97386839165	2687.75
1639.39770732789	2691.75
1641.8208148176	2703.75
1644.24319119078	2685.75
1646.66483677715	2682.25
1649.0857519061	2681.5
1651.50593690677	2707
1653.92539210795	2711.5
1656.3441178382	2716.75
1658.76211442575	2732
1661.17938219855	2755.25
1663.59592148428	2745.25
1666.01173261032	2791.5
1668.42681590377	2782.75
1670.84117169145	2781.5
1673.25480029991	2768.75
1675.66770205541	2791
1678.07987728393	2809.5
1680.49132631119	2849.75
1682.90204946263	2845
1685.31204706342	2836
1687.72131943846	2902.5
1690.1298669124	2864.25
1692.53768980957	2934.5
1694.94478845411	2920.5
1697.35116316982	2923
1699.75681428031	2899.5
1702.16174210887	2949
1704.56594697858	2928.5
1706.96942921222	2940.75
1709.37218913235	2977.5
1711.77422706125	2930.5
1714.17554332098	2945.25
1716.5761382333	2958.75
1718.97601211977	2941.75
1721.37516530169	2955.25
1723.77359810006	2960.5
1726.17131083572	2978
1728.56830382922	3011.25
1730.96457740087	2997.25
1733.36013187075	2950.75
1735.75496755868	2983.5
1738.14908478428	2980.75
1740.54248386689	3026.5
1742.93516512565	2948.75
1745.32712887946	2984.25
1747.71837544697	2973.75
1750.10890514662	2974
1752.49871829661	2981
1754.88781521492	2970
1757.27619621929	3004.25
1759.66386162726	2988.25
1762.05081175612	3013.25
1764.43704692297	3035.75
1766.82256744465	3016.25
1769.20737363782	3031.25
1771.59146581887	2996.25
1773.97484430405	3028.25
1776.35750940932	3043.75
1778.73946145048	3040.25
1781.12070074309	3036
1783.50122760249	3095.5
1785.88104234385	3074
1788.26014528209	3097.25
1790.63853673196	3089.25
1793.01621700796	3122.75
1795.39318642443	3133.75
1797.76944529549	3115.25
1800.14499393503	3153.25
1802.51983265681	3123.5
1804.8939617743	3179
1807.26738160085	3186.75
1809.64009244957	3187.5
1812.01209463339	3162.5
1814.38338846504	3229.75
1816.75397425706	3217.25
1819.12385232181	3209.25
1821.49302297142	3225.75
1823.86148651789	3194
1826.22924327299	3210.75
1828.59629354831	3218.5
1830.96263765526	3212.75
1833.32827590507	3209.75
1835.69320860877	3232
1838.05743607724	3254.25
1840.42095862113	3256.25
1842.78377655097	3253.75
1845.14589017707	3243.75
1847.50729980956	3261.25
1849.86800575843	3281.25
1852.22800833346	3285.75
1854.58730784427	3264
1856.94590460032	3278.25
1859.30379891087	3319.5
1861.66099108503	3323.25
1864.01748143175	3329.75
1866.37327025978	3333
1868.72835787773	3313
1871.08274459403	3373.5
1873.43643071697	3332.75
1875.78941655464	3404.25
1878.14170241498	3368.5
1880.4932886058	3417.75
1882.84417543469	3437.5
1885.19436320915	3416.25
1887.54385223646	3439.5
1889.89264282378	3483.25
1892.24073527809	3455
1894.58812990625	3518
1896.93482701493	3521.5
1899.28082691067	3528
1901.62612989984	3557.25
1903.97073628868	3560.25
1906.31464638326	3526.75
1908.6578604895	3550.75
1911.00037891321	3607.25
1913.34220196	3625.75
1915.68332993537	3618.75
1918.02376314468	3633
1920.36350189311	3588
1922.70254648573	3620
1925.04089722744	3606
1927.37855442303	3652.5
1929.71551837715	3661.25
1932.05178939426	3651.25
1934.38736777876	3663.25
1936.72225383484	3635.25
1939.0564478666	3718.5
1941.38995017799	3677.25
1943.72276107283	3685
1946.05488085479	3652.5
1948.38630982744	3681.5
1950.71704829419	3695.25
1953.04709655832	3655.75
1955.376454923	3685
1957.70512369126	3713.25
1960.03310316599	3692.5
1962.36039364999	3723
1964.68699544589	3707
1967.01290885622	3716
1969.33813418338	3729.5
1971.66267172965	3733.5
1973.98652179718	3723.25
1976.309684688	3742
1978.63216070402	3738.5
1980.95395014705	3832.25
1983.27505331873	3771.75
1985.59547052063	3781.75
1987.9152020542	3812.75
1990.23424822074	3785.75
1992.55260932146	3828.25
1994.87028565746	3845.75
1997.18727752968	3866.25
1999.503585239	3835.25
2001.81920908618	3860.5
2004.13414937184	3842.75
2006.44840639651	3909.5
2008.7619804606	3911
2011.07487186442	3925
2013.38708090815	3969
2015.6986078919	3964.25
2018.00945311564	3996.25
2020.31961687923	3975
2022.62909948246	4025
2024.93790122498	4019.5
2027.24602240636	4033.75
2029.55346332604	4033
2031.86022428337	4026.75
2034.16630557761	4046.75
2036.47170750791	4052.75
2038.77643037331	4069.75
2041.08047447275	4094.5
2043.38384010509	4039.25
2045.68652756907	4047.25
2047.98853716335	4072
2050.28986918648	4117.25
2052.59052393692	4108.5
2054.89050171302	4112.5
2057.18980281306	4155.5
2059.4884275352	4145.25
2061.78637617753	4096.75
2064.08364903802	4107.75
2066.38024641457	4107.5
2068.67616860497	4142.5
2070.97141590694	4088.75
2073.26598861809	4133
2075.55988703595	4105
2077.85311145796	4158
2080.14566218145	4126.75
2082.43753950371	4163
2084.72874372188	4153.25
2087.01927513307	4106.5
2089.30913403428	4113.75
2091.59832072241	4138
2093.88683549429	4087.5
2096.17467864666	4157.25
2098.46185047619	4142.75
2100.74835127944	4135.5
2103.03418135292	4166.75
2105.31934099303	4140.25
2107.6038304961	4162
2109.88765015838	4185.25
2112.17080027602	4191.75
2114.45328114513	4175.75
2116.7350930617	4192.25
2119.01623632165	4152.25
2121.29671122085	4136.75
2123.57651805505	4188
2125.85565711996	4160.75
2128.13412871117	4239.5
2130.41193312424	4224.25
2132.68907065462	4224.5
2134.96554159771	4208.25
2137.24134624881	4241.25
2139.51648490317	4198
2141.79095785593	4228.25
2144.0647654022	4232.25
2146.33790783698	4235
2148.61038545524	4209.5
2150.88219855182	4233.5
2153.15334742154	4268.5
2155.42383235911	4266.25
2157.6936536592	4259.5
2159.9628116164	4257.75
2162.23130652522	4203.75
2164.49913868011	4226.25
2166.76630837544	4233.25
2169.03281590552	4210
2171.2986615646	4256.25
2173.56384564685	4248.25
2175.82836844637	4218.25
2178.0922302572	4223.75
2180.35543137332	4229
2182.61797208862	4224.25
2184.87985269695	4200.75
2187.14107349208	4221
2189.40163476773	4244.25
2191.66153681753	4216.25
2193.92077993507	4194.75
2196.17936441386	4180
2198.43729054735	4193.25
2200.69455862894	4198
2202.95116895194	4200.75
2205.20712180962	4201
2207.46241749519	4180.25
2209.71705630179	4178
2211.97103852248	4183
2214.2243644503	4151.25
2216.47703437819	4210.5
2218.72904859905	4165
2220.98040740571	4177.5
2223.23111109095	4175.25
2225.4811599475	4149.5
2227.73055426799	4138
2229.97929434504	4093.5
2232.22738047118	4122.5
2234.47481293889	4137.25
2236.72159204058	4176.75
2238.96771806864	4153
2241.21319131536	4130.5
2243.458012073	4083.5
2245.70218063374	4107
2247.94569728973	4161.25
2250.18856233304	4092.25
2252.4307760557	4049.25
2254.67233874967	4104
2256.91325070687	4061
2259.15351221915	4056.5
2261.39312357831	4080.75
2263.63208507611	4081
2265.87039700422	4056.75
2268.1080596543	4086.75
2270.34507331792	4047.5
2272.5814382866	4051.5
2274.81715485183	4031.75
2277.05222330502	4045.25
2279.28664393755	4032.25
2281.52041704072	4026
2283.75354290581	4024.5
2285.98602182401	4029.5
2288.21785408648	3988
2290.44903998434	3990.75
2292.67957980862	4030.5
2294.90947385033	3987.5
2297.1387224004	3986.5
2299.36732574975	4040.5
2301.59528418921	3972.25
2303.82259800958	4019
2306.04926750158	3992.5
2308.27529295593	3931.5
2310.50067466325	3952.25
2312.72541291412	3915.5
2314.9495079991	3901.5
2317.17296020866	3956.75
2319.39576983323	3982.25
2321.61793716322	3928.5
2323.83946248894	3946.5
2326.06034610069	3909.25
2328.28058828871	3883
2330.50018934317	3924.25
2332.7191495542	3901.5
2334.93746921192	3892.5
2337.15514860633	3880.75
2339.37218802743	3907
2341.58858776516	3852.75
2343.80434810941	3902
2346.01946935001	3824.5
2348.23395177675	3843.75
2350.44779567939	3856.25
2352.66100134759	3841.75
2354.87356907101	3828.75
2357.08549913925	3823.25
2359.29679184185	3823.25
2361.50744746829	3820
2363.71746630804	3804.25
2365.92684865048	3764
2368.13559478499	3772
2370.34370500083	3784.5
2372.55117958727	3760
2374.75801883352	3766.25
2376.96422302874	3728.25
2379.16979246202	3773.5
2381.37472742243	3722.5
2383.57902819898	3771.75
2385.78269508063	3710.75
2387.98572835629	3718.75
2390.18812831482	3682.75
2392.38989524505	3718.5
2394.59102943573	3704.75
2396.79153117559	3675.75
2398.9914007533	3688.5
2401.19063845748	3646.5
2403.38924457672	3633.75
2405.58721939951	3650.25
2407.78456321435	3647.25
2409.98127630966	3666.75
2412.17735897382	3617.25
2414.37281149517	3621.25
2416.56763416198	3638.25
2418.76182726249	3624
2420.95539108487	3577
2423.14832591726	3625.5
2425.34063204776	3586.25
2427.53230976439	3565.75
2429.72335935513	3536
2431.91378110795	3580
2434.10357531071	3593
2436.29274225125	3565
2438.48128221739	3530.5
2440.66919549683	3522.75
2442.8564823773	3523
2445.04314314641	3500.25
2447.22917809176	3492
2449.4145875009	3527.5
2451.59937166131	3504.5
2453.78353086044	3471.25
2455.96706538568	3446.5
2458.14997552436	3450
2460.33226156379	3469.5
2462.51392379119	3449.75
2464.69496249376	3445.5
2466.87537795862	3382.75
2469.05517047288	3394.5
2471.23434032357	3394.75
2473.41288779767	3397
2475.59081318211	3363
2477.76811676378	3377.75
2479.9447988295	3376.75
2482.12085966605	3344
2484.29629956016	3322.75
2486.4711187985	3356.25
2488.64531766769	3328.5
2490.8188964543	3300.5
2492.99185544484	3295.5
2495.16419492579	3290.75
2497.33591518353	3270
2499.50701650444	3284.75
2501.67749917482	3312.25
2503.84736348091	3268.25
2506.01660970891	3244.5
2508.18523814496	3267
2510.35324907514	3273.75
2512.52064278551	3257.25
2514.68741956201	3256.5
2516.85357969058	3298
2519.01912345709	3252
2521.18405114735	3251.75
2523.34836304711	3264.25
2525.51205944208	3242
2527.6751406179	3232.5
2529.83760686016	3238.25
2531.99945845439	3269.5
2534.16069568606	3257.25
2536.3213188406	3219.25
2538.48132820336	3196.25
2540.64072405965	3216.25
2542.79950669471	3249.75
2544.95767639373	3204
2547.11523344184	3198
2549.27217812411	3189.5
2551.42851072555	3186.5
2553.58423153111	3195
2555.73934082569	3159.5
2557.89383889412	3190.75
2560.04772602118	3172.75
2562.20100249158	3125.5
2564.35366858996	3144.5
2566.50572460093	3127
2568.65717080901	3123
2570.80800749867	3138.5
2572.95823495433	3099.5
2575.10785346031	3095.75
2577.25686330093	3091.25
2579.40526476038	3082.5
2581.55305812282	3087.5
2583.70024367237	3055
2585.84682169303	3078.75
2587.99279246879	3072.75
2590.13815628354	3051.25
2592.28291342112	3053
2594.42706416531	3046.5
2596.5706087998	3036
2598.71354760826	3054
2600.85588087425	3052.5
2602.99760888127	3031.75
2605.13873191278	3036.25
2607.27925025214	3014
2609.41916418269	3010.75
2611.55847398764	3024.25
2613.69717995017	2999.75
2615.83528235339	3044.75
2617.97278148034	3053.5
2620.10967761398	3032.25
2622.2459710372	3015.75
2624.38166203284	3011
2626.51675088365	3012.5
2628.65123787231	3061.75
2630.78512328145	3000.5
2632.9184073936	3031.25
2635.05109049124	3017.75
2637.18317285676	3014.75
2639.31465477248	3012.25
2641.44553652067	3044.5
2643.5758183835	3028.25
2645.70550064309	3007.5
2647.83458358144	3033.75
2649.96306748053	3010.5
2652.09095262223	3031.25
2654.21823928836	3015.5
2656.34492776063	3006.75
2658.47101832071	2995.75
2660.59651125015	3036.25
2662.72140683047	3020.75
2664.84570534309	2977
2666.96940706934	3012
2669.0925122905	3004.75
2671.21502128773	2977.75
2673.33693434215	2958
2675.45825173479	3012.25
2677.57897374658	3013.5
2679.69910065839	2989.25
2681.818632751	2975
2683.93757030511	2982.5
2686.05591360133	3000.25
2688.17366292021	2990
2690.29081854218	2962.5
2692.40738074762	2955
2694.52334981681	2925.75
2696.63872602995	2960.75
2698.75350966713	2955.25
2700.86770100841	2981.5
2702.98130033371	2974.75
2705.09430792289	2976.75
2707.20672405571	2996.5
2709.31854901185	3018.75
2711.42978307091	2987.75
2713.54042651238	2998
2715.65047961567	3023.5
2717.7599426601	3099.5
2719.86881592491	3079.5
2721.97709968924	3079.75
2724.08479423213	3085.75
2726.19189983255	3072.75
2728.29841676934	3046.75
2730.4043453213	3025.5
2732.5096857671	3060.75
2734.61443838532	3008.5
2736.71860345444	3009.25
2738.82218125286	3000
2740.92517205889	3006.25
2743.02757615072	2987.25
2745.12939380646	2980.75
2747.23062530411	3019
2749.33127092159	2992.5
2751.4313309367	2977.25
2753.53080562716	2980.25
2755.62969527058	3062
2757.72800014448	2997.75
2759.82572052625	3003
2761.92285669323	2986.25
2764.0194089226	2988.25
2766.11537749147	3014.25
2768.21076267686	3017
2770.30556475566	2988.5
2772.39978400465	2989.25
2774.49342070054	2993.75
2776.58647511991	3023
2778.67894753923	3029.75
2780.77083823487	3034.5
2782.8621474831	3022
2784.95287556007	3018.25
2787.04302274184	3026.75
2789.13258930433	3004.25
2791.22157552338	3032.5
2793.30998167471	3022.75
2795.39780803392	3045
2797.4850548765	3026.25
2799.57172247786	3049.25
2801.65781111324	3044.25
2803.74332105781	3073.25
2805.82825258661	3055.25
2807.91260597457	3054.75
2809.9963814965	3076.75
2812.07957942711	3057.5
2814.16220004096	3065.25
2816.24424361252	3085.75
2818.32571041614	3091.5
2820.40660072604	3097.25
2822.48691481631	3142.75
2824.56665296098	3134.5
2826.64581543388	3151.5
2828.72440250876	3224.25
2830.80241445925	3326
2832.87985155885	3472
2834.95671408093	3587.25
2837.03300229875	3764.5
2839.10871648544	3847.5
2841.18385691399	3826.75
2843.25842385729	3740.5
2845.33241758808	3676
2847.40583837898	3590.25
2849.4786865025	3548
2851.550962231	3504
2853.6226658367	3466.75
2855.69379759173	3493
2857.76435776806	3533.5
2859.83434663753	3621
2861.90376447184	3830
2863.97261154259	4046.75
2866.0408881212	4139
2868.10859447901	4245.75
2870.17573088717	4272
2872.24229761673	4248.25
2874.30829493859	4278.5
2876.37372312352	4364.5
2878.43858244215	4541.5
2880.50287316496	4582
2882.56659556231	4674.5
2884.62974990439	4657
2886.69233646129	4567.25
2888.75435550293	4411.25
2890.81580729909	4368.75
2892.87669211941	4259.25
2894.93701023339	4227.5
2896.99676191039	4154.25
2899.05594741961	4176.5
2901.1145670301	4208
2903.1726210108	4268.25
2905.23010963045	4346.5
2907.28703315768	4345.25
2909.34339186096	4310.5
2911.39918600861	4218.5
2913.45441586879	4147.5
2915.50908170952	4107.5
2917.56318379867	4119.5
2919.61672240395	4134.75
2921.66969779291	4118.5
2923.72211023295	4160.5
2925.77395999134	4079.5
2927.82524733515	4015.25
2929.87597253132	3974.75
2931.92613584663	3855.5
2933.97573754769	3762.25
2936.02477790097	3710.75
2938.07325717276	3634.75
2940.1211756292	3666.25
2942.16853353626	3633.75
2944.21533115976	3739.5
2946.26156876536	3803
2948.30724661853	3957
2950.3523649846	4061
2952.39692412872	4158.5
2954.44092431587	4325
2956.48436581089	4532.5
2958.52724887843	4738.5
2960.56957378296	4898.75
2962.6113407888	4897.75
2964.65255016011	4692.25
2966.69320216083	4566.75
2968.73329705479	4300
2970.77283510559	4076.75
2972.81181657671	3893
2974.8502417314	3768
2976.88811083279	3609.25
2978.92542414378	3566.25
2980.96218192713	3503
2982.99838444541	3480
2985.034031961	3462.5
2987.06912473612	3396.75
2989.1036630328	3385.75
2991.13764711288	3378.25
2993.17107723804	3402.75
2995.20395366974	3378
2997.23627666931	3386
2999.26804649782	3344
3001.29926341624	3410.5
3003.32992768528	3385.75
3005.3600395655	3396.75
3007.38959931726	3369.5
3009.41860720076	3387.75
3011.44706347595	3421.25
3013.47496840263	3411.25
3015.50232224041	3378.75
3017.5291252487	3406.5
3019.5553776867	3412
3021.58107981344	3418.25
3023.60623188773	3400.25
3025.63083416822	3450.75
3027.65488691331	3497
3029.67839038125	3416.75
3031.70134483007	3435.75
3033.72375051759	3467.5
3035.74560770144	3445.25
3037.76691663907	3459
3039.78767758768	3489
3041.80789080431	3455
3043.82755654577	3484.25
3045.84667506867	3470
3047.8652466294	3483.25
3049.88327148418	3482.5
3051.90074988899	3491.25
3053.91768209961	3484.75
3055.9340683716	3472.5
3057.94990896033	3482.5
3059.96520412095	3513.25
3061.97995410838	3482.25
3063.99415917734	3508.25
3066.00781958234	3494.25
3068.02093557766	3499.75
3070.03350741738	3476.5
3072.04553535535	3497
3074.05701964521	3464.5
3076.06796054036	3506.5
3078.078358294	3478
3080.08821315912	3490.25
3082.09752538846	3537.75
3084.10629523454	3498.5
3086.11452294967	3542
3088.12220878592	3523.75
3090.12935299515	3530
3092.13595582898	3522.5
3094.1420175388	3496.75
3096.14753837579	3520.5
3098.15251859088	3504.75
3100.15695843477	3518.5
3102.16085815793	3533
3104.16421801061	3542
3106.16703824282	3533.25
3108.16931910432	3550.75
3110.17106084464	3510.75
3112.17226371308	3535.25
3114.17292795872	3538.25
3116.17305383034	3544.25
3118.17264157657	3492.75
3120.17169144571	3532.25
3122.17020368587	3544
3124.16817854492	3514.25
3126.16561627044	3521.75
3128.16251710982	3617
3130.15888131017	3538
3132.15470911837	3583.5
3134.15000078104	3553.25
3136.14475654455	3576
3138.13897665502	3577.25
3140.13266135835	3555.75
3142.12581090014	3564
3144.11842552577	3584.75
3146.11050548036	3603.5
3148.10205100875	3584.5
3150.09306235557	3637.75
3152.08353976515	3569.25
3154.07348348158	3575.5
3156.06289374869	3575.5
3158.05177081006	3556.75
3160.04011490899	3573.5
3162.02792628852	3590.25
3164.01520519145	3575
3166.00195186029	3558.5
3167.98816653728	3600.75
3169.97384946442	3552
3171.95900088344	3613.25
3173.94362103577	3603.5
3175.92771016259	3601.75
3177.91126850484	3581.5
3179.89429630312	3629.75
3181.87679379782	3578.5
3183.85876122903	3605.75
3185.84019883657	3632.5
3187.82110685997	3644.5
3189.80148553851	3611
3191.78133511116	3633.5
3193.76065581664	3654.25
3195.73944789337	3625.75
3197.7177115795	3624.25
3199.6954471129	3672.25
3201.67265473114	3610.5
3203.64933467153	3658
3205.62548717107	3679.75
3207.60111246648	3662.25
3209.57621079421	3670
3211.55078239041	3661.5
3213.52482749093	3664
3215.49834633133	3662.75
3217.4713391469	3697.25
3219.44380617262	3662.5
3221.41574764317	3660
3223.38716379296	3629.75
3225.35805485607	3653.5
3227.32842106631	3689.5
3229.29826265718	3708.5
3231.26757986187	3679.25
3233.2363729133	3694.25
3235.20464204405	3699
3237.17238748643	3707.25
3239.13960947243	3727
3241.10630823374	3737.5
3243.07248400174	3683.75
3245.03813700748	3742
3247.00326748177	3732.25
3248.96787565503	3735
3250.93196175742	3783.5
3252.89552601877	3687.75
3254.8585686686	3726.5
3256.82108993612	3777.5
3258.78309005022	3755.25
3260.74456923948	3727
3262.70552773215	3743.25
3264.66596575617	3766.5
3266.62588353916	3753.75
3268.58528130843	3770
3270.54415929094	3733.75
3272.50251771336	3775.25
3274.46035680201	3750.25
3276.4176767829	3790.25
3278.37447788171	3783
3280.33076032379	3746.25
3282.28652433416	3777.5
3284.24177013751	3765.5
3286.1964979582	3765.75
3288.15070802027	3784
3290.10440054741	3759.25
3292.05757576298	3751.5
3294.01023389001	3795.25
3295.96237515119	3802.75
3297.91399976887	3765.25
3299.86510796506	3765
3301.81569996142	3829
3303.76577597932	3763
3305.7153362397	3776.75
3307.66438096324	3776
3309.61291037024	3811.75
3311.56092468064	3796.5
3313.50842411404	3792.25
3315.45540888971	3788.5
3317.40187922656	3774.75
3319.34783534315	3787
3321.29327745768	3771.25
3323.23820578801	3752.25
3325.18262055164	3773.5
3327.1265219657	3732.75
3329.06991024699	3785.75
3331.01278561194	3778
3332.95514827662	3780.5
3334.89699845674	3779
3336.83833636766	3797.75
3338.77916222434	3747.25
3340.71947624143	3796.25
3342.65927863317	3813.25
3344.59856961346	3765.75
3346.53734939584	3804.75
3348.47561819344	3760.75
3350.41337621906	3769.5
3352.35062368513	3735.75
3354.28736080368	3781.5
3356.22358778637	3783.75
3358.15930484452	3797.75
3360.09451218904	3808.5
3362.02921003047	3805
3363.96339857898	3785.5
3365.89707804436	3814
3367.83024863602	3778.75
3369.76291056299	3793.25
3371.69506403389	3782.5
3373.62670925699	3808.75
3375.55784644016	3789.25
3377.4884757909	3759
3379.41859751629	3773
3381.34821182305	3811
3383.27731891749	3829.5
3385.20591900555	3819
3387.13401229276	3818.5
3389.06159898426	3807.75
3390.9886792848	3830.75
3392.91525339872	3845
3394.84132152998	3858.75
3396.76688388213	3812.5
3398.69194065833	3825
3400.61649206133	3817
3402.54053829348	3814.25
3404.46407955672	3803.5
3406.3871160526	3802.75
3408.30964798225	3834.25
3410.23167554639	3837
3412.15319894535	3828
3414.07421837904	3794
3415.99473404695	3805.5
3417.91474614817	3814.25
3419.83425488136	3837.75
3421.75326044479	3841.5
3423.67176303631	3810.75
3425.58976285332	3804.5
3427.50726009282	3801
3429.42425495143	3777.75
3431.34074762528	3781.75
3433.25673831012	3761.75
3435.17222720127	3765.75
3437.08721449362	3801.5
3439.00170038164	3771.5
3440.91568505936	3753.5
3442.82916872039	3757.25
3444.74215155791	3778.75
3446.65463376468	3788
3448.566615533	3780.75
3450.47809705476	3775.5
3452.3890785214	3767.25
3454.29956012393	3764.25
3456.20954205293	3758.25
3458.11902449853	3738
3460.02800765041	3709.25
3461.93649169784	3761.5
3463.84447682962	3720
3465.75196323412	3715.75
3467.65895109925	3711.5
3469.56544061249	3728
3471.47143196086	3705.5
3473.37692533093	3732
3475.28192090884	3725
3477.18641888026	3747.75
3479.09041943039	3732.5
3480.99392274402	3700
3482.89692900545	3737
3484.79943839853	3723.75
3486.70145110666	3701.25
3488.60296731277	3711.5
3490.50398719933	3703.75
3492.40451094836	3668.75
3494.30453874141	3708.25
3496.20407075956	3711.75
3498.10310718342	3671.5
3500.00164819315	3667.25