201.866871357051	1075
204.754250281454	1084.25
207.640596790938	1062.25
210.525911876299	1080.5
213.410196525689	1072.5
216.293451724508	1068.5
219.175678455485	1085.25
222.056877698662	1097
224.937050431388	1072.5
227.816197628363	1087.5
230.694320261602	1094.5
233.571419300504	1094
236.447495711764	1088
239.322550459507	1088
242.196584505182	1099.75
245.069598807626	1102
247.941594323078	1092.75
250.812572005154	1102.5
253.682532804884	1109
256.551477670699	1116.5
259.419407548456	1098.75
262.286323381439	1110
265.152226110364	1113.5
268.017116673389	1110
270.880996006115	1110.5
273.743865041622	1107.5
276.605724710436	1116.25
279.466575940562	1104.25
282.326419657496	1111
285.1852567842	1104
288.043088241157	1109.5
290.899914946349	1126.75
293.75573781526	1122.5
296.610557760898	1108
299.464375693817	1115.75
302.317192522078	1130
305.169009151297	1123.5
308.019826484655	1133
310.86964542287	1126.5
313.718466864233	1142.75
316.566291704614	1137.5
319.413120837457	1153.75
322.258955153804	1159.75
325.103795542291	1144.75
327.947642889128	1144.75
330.79049807819	1139.25
333.632361990927	1137
336.473235506444	1116
339.31311950145	1130.25
342.152014850322	1131
344.989922425062	1129.25
347.826843095354	1139.25
350.662777728528	1141.75
353.497727189577	1134.25
356.331692341195	1148.75
359.164674043732	1148.5
361.996673155267	1129.75
364.827690531536	1147.5
367.65772702602	1142.5
370.486783489887	1165.75
373.314860772047	1166
376.14195971912	1140.75
378.968081175466	1170.25
381.793225983212	1156.25
384.617394982201	1180.5
387.44058901005	1190.75
390.262808902131	1215.5
393.08405549161	1244.75
395.904329609395	1286.25
398.723632084213	1297.5
401.541963742569	1282.75
404.359325408779	1237
407.175717904938	1217.75
409.991142050982	1216.5
412.805598664665	1197.75
415.619088561551	1196.25
418.43161255505	1180.5
421.243171456415	1171.75
424.053766074758	1191.5
426.863397217017	1179
429.672065688024	1170.75
432.479772290455	1180
435.286517824879	1188.5
438.092303089736	1194.5
440.897128881359	1199
443.70099599399	1191.5
446.503905219761	1198.5
449.305857348711	1204.25
452.106853168796	1198.25
454.906893465919	1209
457.705979023885	1206.5
460.504110624439	1205
463.3012890473	1205.5
466.097515070087	1183.5
468.892789468424	1181.5
471.687113015869	1169
474.48048648395	1171.5
477.272910642198	1170.25
480.064386258109	1185.75
482.854914097159	1171.75
485.644494922839	1180
488.433129496636	1177
491.220818578047	1187
494.007562924584	1186.75
496.793363291785	1173
499.578220433217	1193.75
502.362135100473	1186.75
505.145108043209	1193
507.927140009098	1191.25
510.708231743909	1197.25
513.488383991433	1188
516.267597493556	1209.5
519.04587299022	1202.75
521.82321121946	1224
524.599612917398	1226
527.375078818233	1232.75
530.149609654287	1230.5
532.923206155967	1211.75
535.695869051804	1203.75
538.467599068448	1201.25
541.238396930665	1191.5
544.008263361364	1194
546.777199081578	1189.25
549.545204810493	1194.5
552.312281265436	1183.75
555.078429161898	1203.75
557.843649213533	1196.75
560.607942132156	1192.25
563.371308627753	1195
566.133749408495	1181.75
568.895265180756	1202.5
571.655856649064	1200.25
574.415524516189	1197.75
577.174269483075	1208.5
579.932092248884	1213
582.688993510994	1215.5
585.444973965023	1213.25
588.200034304795	1192
590.95417522237	1211
593.70739740807	1208.5
596.459701550433	1210.75
599.21108833628	1190.25
601.961558450668	1210.75
604.711112576933	1213.75
607.459751396673	1210.5
610.207475589748	1202
612.954285834338	1198.75
615.700182806879	1198.25
618.445167182101	1196.25
621.189239633055	1207.5
623.932400831087	1203.25
626.674651445839	1206.25
629.415992145303	1189.5
632.156423595745	1197.25
634.895946461813	1178.75
637.634561406449	1196.5
640.37226909096	1204.75
643.109070174978	1192
645.844965316508	1206
648.579955171888	1215.5
651.314040395846	1210
654.047221641456	1197
656.779499560176	1195
659.510874801828	1201.5
662.241348014642	1210.75
664.97091984524	1218.75
667.699590938606	1207.5
670.427361938164	1199.5
673.15423348573	1184
675.880206221526	1207
678.605280784206	1204.25
681.329457810829	1209.25
684.05273793692	1203.5
686.775121796389	1211.5
689.49661002163	1206.25
692.217203243454	1212.5
694.936902091144	1199.75
697.655707192425	1201
700.373619173493	1212.75
703.09063865901	1208.25
705.806766272093	1205
708.522002634378	1213.25
711.236348365946	1219.5
713.94980408538	1195.75
716.662370409762	1199.75
719.374047954676	1200.75
722.08483733419	1199
724.794739160909	1198.5
727.503754045949	1216.5
730.21188259892	1207.5
732.919125427998	1202.5
735.625483139855	1206.25
738.330956339723	1212
741.035545631374	1206.5
743.739251617106	1221.75
746.44207489779	1228.25
749.144016072852	1217.25
751.845075740272	1220.5
754.545254496603	1223.75
757.244552936976	1213
759.94297165508	1209.25
762.640511243222	1220
765.337172292249	1222.5
768.032955391649	1226.25
770.727861129482	1206.25
773.421890092413	1237.75
776.11504286572	1214.5
778.807320033298	1218.5
781.49872217765	1210.5
784.18924987991	1224.5
786.87890371984	1229.5
789.567684275826	1227.25
792.255592124908	1228.5
794.94262784276	1237.5
797.628792003703	1235
800.314085180715	1238
802.998507945427	1294
805.682060868145	1319.25
808.364744517821	1356.25
811.046559462105	1348.75
813.727506267311	1300.5
816.407585498422	1240.5
819.08679771913	1253.75
821.765143491822	1258
824.442623377563	1239.75
827.119237936127	1269.75
829.794987726003	1272.5
832.469873304377	1295
835.143895227167	1347.75
837.817054048985	1406.75
840.489350323205	1462.25
843.160784601892	1447.75
845.831357435894	1353.5
848.501069374739	1293.5
851.169920966753	1284.75
853.837912758987	1256.75
856.505045297232	1254.5
859.171319126071	1255.25
861.836734788823	1249.5
864.501292827579	1246.75
867.164993783208	1248
869.827838195361	1244
872.489826602454	1244
875.150959541701	1238.5
877.811237549104	1222
880.470661159456	1236.75
883.129230906357	1224.25
885.786947322205	1253
888.443810938206	1251.5
891.099822284385	1250
893.754981889586	1246
896.409290281452	1264
899.062747986485	1257.25
901.715355529999	1248.25
904.367113436154	1255.25
907.01802222793	1225.5
909.668082427172	1240.25
912.317294554574	1228.75
914.965659129659	1251.5
917.613176670835	1234
920.259847695364	1238.25
922.90567271936	1239.5
925.550652257825	1222.25
928.194786824621	1244
930.838076932512	1245.25
933.480523093109	1244.25
936.122125816953	1257.5
938.762885613447	1284.25
941.402802990899	1275
944.041878456523	1280.75
946.680112516428	1254.75
949.31750567563	1258.5
951.954058438081	1261.75
954.589771306633	1253.25
957.224644783048	1254.5
959.858679368044	1247.5
962.491875561238	1242.25
965.12423386121	1262.25
967.75575476545	1283
970.386438770423	1286.75
973.016286371501	1292.25
975.645298063046	1295.5
978.273474338355	1260.75
980.900815689674	1261.5
983.527322608243	1252.75
986.152995584245	1263
988.777835106834	1276.25
991.401841664148	1281.75
994.025015743307	1312.75
996.647357830407	1331.5
999.268868410534	1325.75
1001.88954796777	1326.5
1004.50939698518	1296
1007.12841594484	1285
1009.74660532783	1279.5
1012.36396561423	1268
1014.98049728314	1273.25
1017.59620081267	1262.5
1020.21107667995	1276.5
1022.82512536112	1276.75
1025.43834733138	1279.25
1028.05074306493	1293.75
1030.66231303501	1295.75
1033.27305771392	1302.75
1035.88297757299	1321
1038.49207308257	1323.25
1041.10034471211	1317
1043.70779293008	1300.5
1046.31441820402	1311.25
1048.92022100052	1296.25
1051.52520178525	1279
1054.12936102295	1301.25
1056.73269917742	1287.5
1059.33521671154	1288.5
1061.93691408729	1283.75
1064.53779176571	1284.25
1067.13785020694	1285.75
1069.73708987022	1279.25
1072.33551121386	1268
1074.93311469528	1264.5
1077.52990077103	1278.5
1080.12586989674	1276.25
1082.72102252714	1273
1085.31535911611	1274.25
1087.90888011663	1266.5
1090.50158598078	1262.75
1093.09347715979	1298
1095.68455410403	1278.25
1098.27481726296	1301.5
1100.86426708523	1310
1103.45290401857	1282.25
1106.04072850991	1299.75
1108.6277410053	1286
1111.21394194993	1260.25
1113.79933178816	1279
1116.3839109635	1284
1118.96767991862	1288.5
1121.55063909539	1284
1124.13278893477	1293.75
1126.71412987696	1280
1129.29466236132	1283.75
1131.87438682637	1287
1134.45330370982	1298.75
1137.03141344858	1300.25
1139.60871647872	1302.25
1142.18521323554	1328.25
1144.7609041535	1358
1147.33578966629	1403.75
1149.90987020676	1439
1152.48314620702	1445
1155.05561809835	1393.25
1157.62728631125	1376.5
1160.19815127545	1356.75
1162.76821341988	1355.75
1165.33747317271	1345.75
1167.90593096133	1351.75
1170.47358721235	1342
1173.04044235163	1313.75
1175.60649680425	1307.25
1178.17175099454	1306.5
1180.73620534607	1306
1183.29986028165	1300
1185.86271622336	1298.25
1188.42477359249	1308.5
1190.98603280964	1298.75
1193.54649429462	1284.5
1196.10615846653	1301
1198.66502574372	1317.25
1201.22309654385	1309.5
1203.78037128378	1312.75
1206.33685037971	1308.25
1208.89253424709	1311.75
1211.44742330063	1326.25
1214.00151795438	1340.75
1216.55481862163	1365.25
1219.10732571497	1362
1221.65903964631	1345.75
1224.20996082683	1346.5
1226.760089667	1342.5
1229.30942657664	1330.25
1231.85797196483	1310.25
1234.40572623998	1321.25
1236.95268980981	1332.25
1239.49886308136	1334.25
1242.04424646098	1304.75
1244.58884035435	1346
1247.13264516647	1330.25
1249.67566130166	1341
1252.21788916358	1321
1254.75932915524	1328.5
1257.29998167896	1328.5
1259.83984713639	1334
1262.37892592857	1347.75
1264.91721845586	1337
1267.45472511795	1348
1269.9914463139	1352.5
1272.52738244213	1371.5
1275.0625339004	1363.25
1277.59690108587	1363
1280.130484395	1365.5
1282.66328422367	1359
1285.19530096712	1353
1287.72653501993	1365.75
1290.25698677608	1372.25
1292.78665662894	1393.75
1295.31554497125	1377.25
1297.8436521951	1371.5
1300.37097869203	1385.25
1302.89752485292	1398.75
1305.42329106805	1379.25
1307.94827772713	1394.25
1310.47248521921	1390
1312.99591393279	1408.25
1315.51856425575	1406
1318.04043657536	1412
1320.56153127836	1422.5
1323.08184875083	1487.5
1325.6013893783	1521
1328.12015354572	1570.75
1330.63814163744	1564
1333.15535403727	1527.25
1335.67179112839	1474
1338.18745329347	1438.5
1340.70234091454	1452
1343.21645437314	1452.25
1345.72979405019	1436.25
1348.24236032607	1439
1350.75415358059	1466.5
1353.26517419303	1472.5
1355.7754225421	1491.5
1358.28489900594	1510.5
1360.79360396218	1489.25
1363.30153778787	1490.5
1365.80870085955	1484.5
1368.31509355319	1475.75
1370.82071624424	1468
1373.32556930762	1455.5
1375.8296531177	1449.25
1378.33296804832	1418.5
1380.83551447282	1449.25
1383.33729276399	1423.25
1385.83830329408	1429.25
1388.33854643489	1401.75
1390.83802255762	1398.75
1393.33673203301	1408.5
1395.83467523128	1419
1398.33185252211	1402.25
1400.82826427471	1391.75
1403.32391085777	1403.75
1405.81879263947	1389.25
1408.31290998752	1402
1410.80626326908	1388.75
1413.29885285087	1400
1415.79067909909	1407.25
1418.28174237944	1398.75
1420.77204305717	1407.25
1423.26158149702	1412.5
1425.75035806323	1409.75
1428.2383731196	1419.25
1430.72562702942	1451
1433.21212015554	1481
1435.69785286028	1498.75
1438.18282550555	1493.25
1440.66703845275	1491
1443.15049206284	1475
1445.6331866963	1494
1448.11512271316	1536
1450.59630047298	1560.25
1453.07672033486	1570
1455.55638265748	1620
1458.03528779902	1645
1460.51343611725	1621.25
1462.99082796946	1596.75
1465.46746371252	1564
1467.94334370285	1514.25
1470.41846829642	1495
1472.89283784878	1479.5
1475.36645271503	1468.5
1477.83931324983	1429
1480.31141980743	1447
1482.78277274164	1460.25
1485.25337240583	1470.25
1487.72321915297	1437.5
1490.19231333557	1424.5
1492.66065530578	1425.5
1495.12824541525	1430.5
1497.5950840153	1407.25
1500.06117145678	1429.25
1502.52650809014	1440.25
1504.99109426543	1418.5
1507.45493033227	1441.75
1509.91801663992	1416
1512.38035353717	1425.5
1514.84194137248	1441.5
1517.30278049386	1437
1519.76287124894	1439.5
1522.22221398497	1449.5
1524.68080904876	1430.75
1527.13865678681	1428.75
1529.59575754514	1446.25
1532.05211166945	1460
1534.50771950503	1451.25
1536.96258139678	1447.25
1539.41669768924	1457
1541.87006872656	1436.75
1544.32269485252	1455.75
1546.77457641051	1447.25
1549.22571374357	1489.25
1551.67610719434	1459
1554.12575710513	1485.25
1556.57466381785	1482.5
1559.02282767408	1470.25
1561.47024901499	1472.75
1563.91692818144	1502.75
1566.3628655139	1504.75
1568.80806135249	1488.5
1571.252516037	1508.25
1573.6962299068	1514
1576.13920330099	1499.5
1578.58143655828	1503.25
1581.02293001704	1524.25
1583.46368401528	1514.75
1585.90369889071	1531.25
1588.34297498065	1531
1590.7815126221	1513.5
1593.21931215173	1518.75
1595.65637390588	1535.75
1598.09269822053	1531.75
1600.52828543135	1530
1602.96313587367	1543.75
1605.3972498825	1536.75
1607.83062779252	1489
1610.26326993808	1515
1612.69517665322	1504
1615.12634827165	1512
1617.55678512676	1531
1619.98648755163	1492.5
1622.41545587902	1509.25
1624.84369044138	1498
1627.27119157085	1513
1629.69795959924	1505.75
1632.12399485808	1509
1634.54929767859	1510.5
1636.97386839165	1498.75
1639.39770732789	1495.5
1641.8208148176	1492.25
1644.24319119078	1482.25
1646.66483677715	1488
1649.0857519061	1526.25
1651.50593690677	1523.5
1653.92539210795	1504
1656.3441178382	1498
1658.76211442575	1503
1661.17938219855	1501.75
1663.59592148428	1520.25
1666.01173261032	1524
1668.42681590377	1514
1670.84117169145	1508.75
1673.25480029991	1519.5
1675.66770205541	1541
1678.07987728393	1529.25
1680.49132631119	1523.5
1682.90204946263	1507
1685.31204706342	1538.25
1687.72131943846	1537
1690.1298669124	1554.25
1692.53768980957	1565.25
1694.94478845411	1557
1697.35116316982	1531.25
1699.75681428031	1551
1702.16174210887	1529.5
1704.56594697858	1543.75
1706.96942921222	1531.5
1709.37218913235	1562
1711.77422706125	1556
1714.17554332098	1554.75
1716.5761382333	1559.25
1718.97601211977	1537
1721.37516530169	1531.25
1723.77359810006	1539.75
1726.17131083572	1550.25
1728.56830382922	1543.5
1730.96457740087	1542.5
1733.36013187075	1536.75
1735.75496755868	1548.25
1738.14908478428	1531.75
1740.54248386689	1537.75
1742.93516512565	1532.75
1745.32712887946	1557.75
1747.71837544697	1546
1750.10890514662	1547.5
1752.49871829661	1545
1754.88781521492	1544
1757.27619621929	1544.25
1759.66386162726	1544.5
1762.05081175612	1547.5
1764.43704692297	1550.75
1766.82256744465	1527
1769.20737363782	1550
1771.59146581887	1541.25
1773.97484430405	1551.5
1776.35750940932	1550.25
1778.73946145048	1556
1781.12070074309	1540.25
1783.50122760249	1591.25
1785.88104234385	1554.5
1788.26014528209	1565.25
1790.63853673196	1560.75
1793.01621700796	1567
1795.39318642443	1574.5
1797.76944529549	1570
1800.14499393503	1531.5
1802.51983265681	1566.25
1804.8939617743	1600.25
1807.26738160085	1588.75
1809.64009244957	1594
1812.01209463339	1575.75
1814.38338846504	1579.5
1816.75397425706	1582.5
1819.12385232181	1572.25
1821.49302297142	1590.25
1823.86148651789	1566.25
1826.22924327299	1568
1828.59629354831	1588
1830.96263765526	1588.25
1833.32827590507	1566.75
1835.69320860877	1571.25
1838.05743607724	1586.5
1840.42095862113	1584.5
1842.78377655097	1582
1845.14589017707	1557.5
1847.50729980956	1561.25
1849.86800575843	1574.25
1852.22800833346	1576.75
1854.58730784427	1576
1856.94590460032	1582.75
1859.30379891087	1595
1861.66099108503	1581.75
1864.01748143175	1584.5
1866.37327025978	1587.5
1868.72835787773	1579.75
1871.08274459403	1590
1873.43643071697	1604.75
1875.78941655464	1598.75
1878.14170241498	1596
1880.4932886058	1605.25
1882.84417543469	1610.25
1885.19436320915	1613.5
1887.54385223646	1600.75
1889.89264282378	1621.5
1892.24073527809	1614
1894.58812990625	1628
1896.93482701493	1634.75
1899.28082691067	1622
1901.62612989984	1632.25
1903.97073628868	1642.5
1906.31464638326	1635.25
1908.6578604895	1632.75
1911.00037891321	1635.25
1913.34220196	1637.75
1915.68332993537	1664.25
1918.02376314468	1660
1920.36350189311	1654.5
1922.70254648573	1645.25
1925.04089722744	1642.75
1927.37855442303	1667
1929.71551837715	1659.25
1932.05178939426	1657.5
1934.38736777876	1641.75
1936.72225383484	1662.25
1939.0564478666	1675
1941.38995017799	1661.75
1943.72276107283	1681.25
1946.05488085479	1649.25
1948.38630982744	1648.25
1950.71704829419	1654.5
1953.04709655832	1673
1955.376454923	1645.5
1957.70512369126	1665.5
1960.03310316599	1640.5
1962.36039364999	1669.25
1964.68699544589	1639.5
1967.01290885622	1657.75
1969.33813418338	1650
1971.66267172965	1642.5
1973.98652179718	1655.75
1976.309684688	1690
1978.63216070402	1676.5
1980.95395014705	1670.75
1983.27505331873	1670.75
1985.59547052063	1667.5
1987.9152020542	1689
1990.23424822074	1677
1992.55260932146	1679
1994.87028565746	1688
1997.18727752968	1680.25
1999.503585239	1682.75
2001.81920908618	1661.25
2004.13414937184	1699.75
2006.44840639651	1703.75
2008.7619804606	1703.25
2011.07487186442	1718
2013.38708090815	1726.75
2015.6986078919	1712
2018.00945311564	1722
2020.31961687923	1726.25
2022.62909948246	1724
2024.93790122498	1729.5
2027.24602240636	1750.25
2029.55346332604	1759.25
2031.86022428337	1748
2034.16630557761	1743.25
2036.47170750791	1750.25
2038.77643037331	1756.75
2041.08047447275	1755.75
2043.38384010509	1730
2045.68652756907	1747.5
2047.98853716335	1758.5
2050.28986918648	1743
2052.59052393692	1760
2054.89050171302	1763.25
2057.18980281306	1766.25
2059.4884275352	1784.25
2061.78637617753	1753
2064.08364903802	1755.75
2066.38024641457	1756.25
2068.67616860497	1788.75
2070.97141590694	1764.5
2073.26598861809	1751.75
2075.55988703595	1776.75
2077.85311145796	1755.5
2080.14566218145	1772.75
2082.43753950371	1753.25
2084.72874372188	1777.25
2087.01927513307	1755.25
2089.30913403428	1763
2091.59832072241	1781.5
2093.88683549429	1767.25
2096.17467864666	1770.5
2098.46185047619	1783.25
2100.74835127944	1743.75
2103.03418135292	1771.75
2105.31934099303	1761.5
2107.6038304961	1795.25
2109.88765015838	1782.75
2112.17080027602	1770.25
2114.45328114513	1793.5
2116.7350930617	1794
2119.01623632165	1810
2121.29671122085	1810.75
2123.57651805505	1818.5
2125.85565711996	1810.25
2128.13412871117	1818
2130.41193312424	1819
2132.68907065462	1803.25
2134.96554159771	1829
2137.24134624881	1824.75
2139.51648490317	1843.75
2141.79095785593	1840.75
2144.0647654022	1828
2146.33790783698	1847
2148.61038545524	1840.25
2150.88219855182	1856
2153.15334742154	1843.75
2155.42383235911	1863
2157.6936536592	1853.25
2159.9628116164	1850.25
2162.23130652522	1865.5
2164.49913868011	1849.75
2166.76630837544	1859
2169.03281590552	1862.75
2171.2986615646	1858.25
2173.56384564685	1879.25
2175.82836844637	1871.25
2178.0922302572	1877.25
2180.35543137332	1857.75
2182.61797208862	1878.25
2184.87985269695	1856.5
2187.14107349208	1892.25
2189.40163476773	1901
2191.66153681753	1886.75
2193.92077993507	1875.25
2196.17936441386	1871.5
2198.43729054735	1888.75
2200.69455862894	1861
2202.95116895194	1884.75
2205.20712180962	1874.5
2207.46241749519	1872
2209.71705630179	1902
2211.97103852248	1890.25
2214.2243644503	1904.25
2216.47703437819	1872.25
2218.72904859905	1879
2220.98040740571	1893.5
2223.23111109095	1899.5
2225.4811599475	1873.75
2227.73055426799	1902.5
2229.97929434504	1881.5
2232.22738047118	1880.5
2234.47481293889	1899
2236.72159204058	1914.5
2238.96771806864	1904.75
2241.21319131536	1886.75
2243.458012073	1895.75
2245.70218063374	1897.75
2247.94569728973	1911.25
2250.18856233304	1906.25
2252.4307760557	1885.5
2254.67233874967	1913.25
2256.91325070687	1918
2259.15351221915	1909.5
2261.39312357831	1940.5
2263.63208507611	1890.75
2265.87039700422	1929
2268.1080596543	1934.75
2270.34507331792	1900
2272.5814382866	1903.5
2274.81715485183	1929.75
2277.05222330502	1914
2279.28664393755	1933.5
2281.52041704072	1926
2283.75354290581	1950.5
2285.98602182401	1936
2288.21785408648	1909.5
2290.44903998434	1941.25
2292.67957980862	1929
2294.90947385033	1928
2297.1387224004	1925.25
2299.36732574975	1941
2301.59528418921	1921.75
2303.82259800958	1960
2306.04926750158	1924.75
2308.27529295593	1949.5
2310.50067466325	1948.75
2312.72541291412	1965.25
2314.9495079991	1960
2317.17296020866	1928.75
2319.39576983323	1961.5
2321.61793716322	1951.75
2323.83946248894	1943.75
2326.06034610069	1943.5
2328.28058828871	1955
2330.50018934317	1928.75
2332.7191495542	1936
2334.93746921192	1929.25
2337.15514860633	1966.25
2339.37218802743	1958.75
2341.58858776516	1945.5
2343.80434810941	1937.25
2346.01946935001	1977
2348.23395177675	1961.75
2350.44779567939	1970.75
2352.66100134759	1940.75
2354.87356907101	1976.25
2357.08549913925	1958.5
2359.29679184185	1943.75
2361.50744746829	1970.75
2363.71746630804	1991.75
2365.92684865048	1956.25
2368.13559478499	1957
2370.34370500083	1967.5
2372.55117958727	1968.75
2374.75801883352	1972.5
2376.96422302874	1947.25
2379.16979246202	1967
2381.37472742243	1962.25
2383.57902819898	1933.5
2385.78269508063	1978
2387.98572835629	1949.75
2390.18812831482	1948.25
2392.38989524505	1963.5
2394.59102943573	1977.25
2396.79153117559	1962.75
2398.9914007533	1960.25
2401.19063845748	1983
2403.38924457672	1932.5
2405.58721939951	1954.5
2407.78456321435	1938
2409.98127630966	1923.5
2412.17735897382	1974.5
2414.37281149517	1945
2416.56763416198	1944.75
2418.76182726249	1968
2420.95539108487	1951
2423.14832591726	1949.5
2425.34063204776	1954.75
2427.53230976439	1942.25
2429.72335935513	1951.75
2431.91378110795	1939.5
2434.10357531071	1926.75
2436.29274225125	1944.75
2438.48128221739	1941.75
2440.66919549683	1934.75
2442.8564823773	1925.75
2445.04314314641	1921.75
2447.22917809176	1936.5
2449.4145875009	1942.5
2451.59937166131	1951.5
2453.78353086044	1928.75
2455.96706538568	1944.5
2458.14997552436	1955.5
2460.33226156379	1950.75
2462.51392379119	1927.25
2464.69496249376	1916.75
2466.87537795862	1920.75
2469.05517047288	1938.5
2471.23434032357	1918.25
2473.41288779767	1931.25
2475.59081318211	1934.75
2477.76811676378	1953
2479.9447988295	1917
2482.12085966605	1915.5
2484.29629956016	1954.75
2486.4711187985	1945.5
2488.64531766769	1929.5
2490.8188964543	1945.25
2492.99185544484	1926.5
2495.16419492579	1949.75
2497.33591518353	1938.75
2499.50701650444	1948
2501.67749917482	1922.25
2503.84736348091	1915.75
2506.01660970891	1945.75
2508.18523814496	1910.75
2510.35324907514	1949
2512.52064278551	1955
2514.68741956201	1957.75
2516.85357969058	1958.25
2519.01912345709	1963.75
2521.18405114735	1965.25
2523.34836304711	1948.5
2525.51205944208	1944.5
2527.6751406179	1935.25
2529.83760686016	1930
2531.99945845439	1955.5
2534.16069568606	1962.75
2536.3213188406	1967
2538.48132820336	1970.25
2540.64072405965	1972.75
2542.79950669471	1944.75
2544.95767639373	1996.5
2547.11523344184	1963.75
2549.27217812411	1972
2551.42851072555	1946
2553.58423153111	1964.5
2555.73934082569	1951
2557.89383889412	1956.25
2560.04772602118	1965.75
2562.20100249158	1913.5
2564.35366858996	1977.75
2566.50572460093	1908.5
2568.65717080901	1937.5
2570.80800749867	1938.75
2572.95823495433	1952.25
2575.10785346031	1941.5
2577.25686330093	1912.5
2579.40526476038	1936.5
2581.55305812282	1929.25
2583.70024367237	1927.75
2585.84682169303	1915.25
2587.99279246879	1924
2590.13815628354	1927
2592.28291342112	1925.75
2594.42706416531	1942.25
2596.5706087998	1921.5
2598.71354760826	1968.75
2600.85588087425	1946.25
2602.99760888127	1954.25
2605.13873191278	1935
2607.27925025214	1948.5
2609.41916418269	1956.75
2611.55847398764	1945.75
2613.69717995017	1949.5
2615.83528235339	1947.5
2617.97278148034	1961.25
2620.10967761398	1956.5
2622.2459710372	1961.25
2624.38166203284	1938.25
2626.51675088365	1948
2628.65123787231	1933.5
2630.78512328145	1971
2632.9184073936	1963
2635.05109049124	1965
2637.18317285676	1939.25
2639.31465477248	1985.25
2641.44553652067	1968.25
2643.5758183835	1979.5
2645.70550064309	1969
2647.83458358144	1978.5
2649.96306748053	1998.5
2652.09095262223	1986
2654.21823928836	1992
2656.34492776063	1966.75
2658.47101832071	1946.25
2660.59651125015	1984.5
2662.72140683047	1969.75
2664.84570534309	1980.75
2666.96940706934	1937.5
2669.0925122905	1948.75
2671.21502128773	1973.25
2673.33693434215	1977.75
2675.45825173479	1967.25
2677.57897374658	1975.5
2679.69910065839	1955
2681.818632751	1970.5
2683.93757030511	1979.5
2686.05591360133	1954.75
2688.17366292021	1976.25
2690.29081854218	1987.5
2692.40738074762	1969.5
2694.52334981681	1967.75
2696.63872602995	1980
2698.75350966713	1963.25
2700.86770100841	1987.75
2702.98130033371	2005
2705.09430792289	2008
2707.20672405571	2023.25
2709.31854901185	2022.75
2711.42978307091	2028
2713.54042651238	2022.75
2715.65047961567	2024.25
2717.7599426601	2041.75
2719.86881592491	2035.75
2721.97709968924	2069.25
2724.08479423213	2074.25
2726.19189983255	2053.25
2728.29841676934	2041.5
2730.4043453213	2043.25
2732.5096857671	2033
2734.61443838532	2035.5
2736.71860345444	2025.25
2738.82218125286	2004.25
2740.92517205889	2019.25
2743.02757615072	1997.5
2745.12939380646	1990.75
2747.23062530411	2013
2749.33127092159	1996
2751.4313309367	1995
2753.53080562716	1976.25
2755.62969527058	1975.25
2757.72800014448	1979.5
2759.82572052625	1977.25
2761.92285669323	1958.25
2764.0194089226	1994.5
2766.11537749147	1975.5
2768.21076267686	1965
2770.30556475566	1960.5
2772.39978400465	1966.75
2774.49342070054	1960.75
2776.58647511991	1980
2778.67894753923	1977
2780.77083823487	1945.25
2782.8621474831	1955
2784.95287556007	1957.75
2787.04302274184	1967.75
2789.13258930433	1979.5
2791.22157552338	1944.5
2793.30998167471	1968.25
2795.39780803392	1972
2797.4850548765	1969.25
2799.57172247786	1968
2801.65781111324	1961.25
2803.74332105781	1991.25
2805.82825258661	1961.25
2807.91260597457	1971.5
2809.9963814965	1967
2812.07957942711	1985.25
2814.16220004096	1967.75
2816.24424361252	2014.5
2818.32571041614	2033.75
2820.40660072604	2023.75
2822.48691481631	2057.25
2824.56665296098	2057.5
2826.64581543388	2083.75
2828.72440250876	2179.5
2830.80241445925	2239.5
2832.87985155885	2375
2834.95671408093	2543
2837.03300229875	2708.5
2839.10871648544	2777.25
2841.18385691399	2728.25
2843.25842385729	2633.25
2845.33241758808	2487
2847.40583837898	2442.75
2849.4786865025	2384.25
2851.550962231	2328.5
2853.6226658367	2332.75
2855.69379759173	2332.25
2857.76435776806	2387.75
2859.83434663753	2516
2861.90376447184	2735
2863.97261154259	2941.25
2866.0408881212	3105.25
2868.10859447901	3128.5
2870.17573088717	3119.25
2872.24229761673	3137.25
2874.30829493859	3164.25
2876.37372312352	3266.25
2878.43858244215	3453.25
2880.50287316496	3586.5
2882.56659556231	3653.25
2884.62974990439	3583
2886.69233646129	3551.5
2888.75435550293	3406
2890.81580729909	3297
2892.87669211941	3233.25
2894.93701023339	3179.5
2896.99676191039	3190
2899.05594741961	3251.75
2901.1145670301	3309
2903.1726210108	3408
2905.23010963045	3431.75
2907.28703315768	3305.75
2909.34339186096	3160
2911.39918600861	3014.5
2913.45441586879	2895.5
2915.50908170952	2876.75
2917.56318379867	2860.5
2919.61672240395	2903
2921.66969779291	2908.25
2923.72211023295	2966
2925.77395999134	2946.75
2927.82524733515	2899.75
2929.87597253132	2812.75
2931.92613584663	2666.25
2933.97573754769	2572.75
2936.02477790097	2472.25
2938.07325717276	2413.25
2940.1211756292	2388.5
2942.16853353626	2396.75
2944.21533115976	2476
2946.26156876536	2566.25
2948.30724661853	2719.25
2950.3523649846	2813.5
2952.39692412872	2822.25
2954.44092431587	2721.75
2956.48436581089	2644
2958.52724887843	2553.25
2960.56957378296	2500.5
2962.6113407888	2478.25
2964.65255016011	2438
2966.69320216083	2355.25
2968.73329705479	2284.75
2970.77283510559	2240
2972.81181657671	2209.75
2974.8502417314	2158
2976.88811083279	2128.5
2978.92542414378	2127.75
2980.96218192713	2101.5
2982.99838444541	2112.25
2985.034031961	2102
2987.06912473612	2075
2989.1036630328	2046.75
2991.13764711288	2075.75
2993.17107723804	2031
2995.20395366974	2086
2997.23627666931	2055.25
2999.26804649782	2080.25
3001.29926341624	2055.5
3003.32992768528	2051
3005.3600395655	2065.75
3007.38959931726	2064.5
3009.41860720076	2073
3011.44706347595	2084.25
3013.47496840263	2082.75
3015.50232224041	2081.75
3017.5291252487	2097.25
3019.5553776867	2036
3021.58107981344	2043.25
3023.60623188773	2069.25
3025.63083416822	2066.25
3027.65488691331	2063
3029.67839038125	2076
3031.70134483007	2065
3033.72375051759	2097.75
3035.74560770144	2052
3037.76691663907	2087.25
3039.78767758768	2084.5
3041.80789080431	2079.5
3043.82755654577	2068
3045.84667506867	2064.75
3047.8652466294	2067.25
3049.88327148418	2050.25
3051.90074988899	2054.25
3053.91768209961	2044.25
3055.9340683716	2070.5
3057.94990896033	2036.75
3059.96520412095	2052.75
3061.97995410838	2058.5
3063.99415917734	2043
3066.00781958234	2051.25
3068.02093557766	2052.75
3070.03350741738	2031.5
3072.04553535535	2046.75
3074.05701964521	2047.75
3076.06796054036	2053.5
3078.078358294	2035.75
3080.08821315912	2032.75
3082.09752538846	2043.5
3084.10629523454	2049
3086.11452294967	2051.25
3088.12220878592	2045.75
3090.12935299515	2054.5
3092.13595582898	2056.5
3094.1420175388	2046.75
3096.14753837579	2059.5
3098.15251859088	2043.75
3100.15695843477	2035.5
3102.16085815793	2072
3104.16421801061	2068.5
3106.16703824282	2041.75
3108.16931910432	2044.75
3110.17106084464	2055
3112.17226371308	2073.5
3114.17292795872	2068.5
3116.17305383034	2039.5
3118.17264157657	2050.25
3120.17169144571	2064.5
3122.17020368587	2068.5
3124.16817854492	2058.5
3126.16561627044	2064
3128.16251710982	2066.75
3130.15888131017	2072.75
3132.15470911837	2084
3134.15000078104	2082.25
3136.14475654455	2105
3138.13897665502	2091.25
3140.13266135835	2069.75
3142.12581090014	2083.5
3144.11842552577	2079.75
3146.11050548036	2085
3148.10205100875	2065.75
3150.09306235557	2088
3152.08353976515	2067.5
3154.07348348158	2060.25
3156.06289374869	2087
3158.05177081006	2090
3160.04011490899	2101
3162.02792628852	2104
3164.01520519145	2072.75
3166.00195186029	2091
3167.98816653728	2071.5
3169.97384946442	2088.75
3171.95900088344	2087
3173.94362103577	2061.75
3175.92771016259	2085.5
3177.91126850484	2076.75
3179.89429630312	2087.75
3181.87679379782	2078.25
3183.85876122903	2104
3185.84019883657	2077.75
3187.82110685997	2099.5
3189.80148553851	2065.25
3191.78133511116	2108
3193.76065581664	2087.25
3195.73944789337	2100.25
3197.7177115795	2083.75
3199.6954471129	2101
3201.67265473114	2093.75
3203.64933467153	2112
3205.62548717107	2100.75
3207.60111246648	2102.75
3209.57621079421	2115
3211.55078239041	2091
3213.52482749093	2106.75
3215.49834633133	2137.25
3217.4713391469	2135.5
3219.44380617262	2114
3221.41574764317	2122.75
3223.38716379296	2133.25
3225.35805485607	2123.5
3227.32842106631	2107.75
3229.29826265718	2133.25
3231.26757986187	2157.5
3233.2363729133	2149
3235.20464204405	2137.75
3237.17238748643	2145.5
3239.13960947243	2136.75
3241.10630823374	2158.75
3243.07248400174	2154.75
3245.03813700748	2161.25
3247.00326748177	2161.75
3248.96787565503	2170.75
3250.93196175742	2148.75
3252.89552601877	2170.5
3254.8585686686	2139.25
3256.82108993612	2161.5
3258.78309005022	2148
3260.74456923948	2157.75
3262.70552773215	2155.5
3264.66596575617	2149.25
3266.62588353916	2179.25
3268.58528130843	2176.5
3270.54415929094	2163.75
3272.50251771336	2147.5
3274.46035680201	2183.25
3276.4176767829	2174.75
3278.37447788171	2160.5
3280.33076032379	2181.25
3282.28652433416	2158.75
3284.24177013751	2163.5
3286.1964979582	2181
3288.15070802027	2173.75
3290.10440054741	2182
3292.05757576298	2169
3294.01023389001	2166.5
3295.96237515119	2200.5
3297.91399976887	2180.25
3299.86510796506	2165
3301.81569996142	2180.5
3303.76577597932	2176.75
3305.7153362397	2183.25
3307.66438096324	2181
3309.61291037024	2175.25
3311.56092468064	2184
3313.50842411404	2171.25
3315.45540888971	2167.25
3317.40187922656	2161.25
3319.34783534315	2148.75
3321.29327745768	2162.75
3323.23820578801	2156.5
3325.18262055164	2153.25
3327.1265219657	2161.5
3329.06991024699	2174.5
3331.01278561194	2185.5
3332.95514827662	2163.25
3334.89699845674	2195
3336.83833636766	2165.5
3338.77916222434	2157.25
3340.71947624143	2176.5
3342.65927863317	2160.25
3344.59856961346	2147.5
3346.53734939584	2159.25
3348.47561819344	2172.25
3350.41337621906	2164.25
3352.35062368513	2166.25
3354.28736080368	2188.75
3356.22358778637	2167.5
3358.15930484452	2140.25
3360.09451218904	2165.25
3362.02921003047	2176.75
3363.96339857898	2176.75
3365.89707804436	2172
3367.83024863602	2153.25
3369.76291056299	2153.5
3371.69506403389	2155.75
3373.62670925699	2169
3375.55784644016	2172.75
3377.4884757909	2168
3379.41859751629	2147.75
3381.34821182305	2150
3383.27731891749	2172
3385.20591900555	2196.25
3387.13401229276	2184.5
3389.06159898426	2177.75
3390.9886792848	2198.5
3392.91525339872	2184.5
3394.84132152998	2197.75
3396.76688388213	2194.75
3398.69194065833	2182.75
3400.61649206133	2199
3402.54053829348	2195.75
3404.46407955672	2175.5
3406.3871160526	2191.75
3408.30964798225	2210
3410.23167554639	2179.75
3412.15319894535	2210.75
3414.07421837904	2184
3415.99473404695	2205.5
3417.91474614817	2188.25
3419.83425488136	2194
3421.75326044479	2180
3423.67176303631	2189.75
3425.58976285332	2225
3427.50726009282	2178.25
3429.42425495143	2199.25
3431.34074762528	2186.5
3433.25673831012	2183
3435.17222720127	2184.25
3437.08721449362	2184.5
3439.00170038164	2180.5
3440.91568505936	2193.25
3442.82916872039	2184.25
3444.74215155791	2169.75
3446.65463376468	2172.5
3448.566615533	2152.25
3450.47809705476	2193
3452.3890785214	2182.5
3454.29956012393	2166.75
3456.20954205293	2203.75
3458.11902449853	2163.25
3460.02800765041	2140.5
3461.93649169784	2163.25
3463.84447682962	2146.25
3465.75196323412	2150.75
3467.65895109925	2175
3469.56544061249	2147.75
3471.47143196086	2129.25
3473.37692533093	2159.75
3475.28192090884	2133.5
3477.18641888026	2159
3479.09041943039	2154
3480.99392274402	2156.75
3482.89692900545	2172.5
3484.79943839853	2180
3486.70145110666	2139.25
3488.60296731277	2161.75
3490.50398719933	2156.75
3492.40451094836	2144.75
3494.30453874141	2153.5
3496.20407075956	2165.5
3498.10310718342	2147.75
3500.00164819315	2156.5