201.866871357051	3870.25
204.754250281454	3926.25
207.640596790938	3927.75
210.525911876299	3954
213.410196525689	3940.5
216.293451724508	3942
219.175678455485	3995.5
222.056877698662	4001
224.937050431388	3970
227.816197628363	4032.75
230.694320261602	4030
233.571419300504	4071.75
236.447495711764	4093.75
239.322550459507	4107
242.196584505182	4154.75
245.069598807626	4162.75
247.941594323078	4154.25
250.812572005154	4160.5
253.682532804884	4164
256.551477670699	4197
259.419407548456	4194.75
262.286323381439	4212.75
265.152226110364	4244.75
268.017116673389	4216.75
270.880996006115	4284.5
273.743865041622	4276.5
276.605724710436	4289.25
279.466575940562	4277.75
282.326419657496	4293.5
285.1852567842	4282.5
288.043088241157	4295.5
290.899914946349	4297.25
293.75573781526	4297.25
296.610557760898	4328.5
299.464375693817	4317
302.317192522078	4327
305.169009151297	4242.5
308.019826484655	4286.25
310.86964542287	4334.75
313.718466864233	4294.25
316.566291704614	4312
319.413120837457	4308.25
322.258955153804	4326
325.103795542291	4279.5
327.947642889128	4311.5
330.79049807819	4298.5
333.632361990927	4350.25
336.473235506444	4288.25
339.31311950145	4337.5
342.152014850322	4317.75
344.989922425062	4368.5
347.826843095354	4352
350.662777728528	4332.5
353.497727189577	4415.75
356.331692341195	4433.25
359.164674043732	4445.5
361.996673155267	4458.5
364.827690531536	4504.25
367.65772702602	4473
370.486783489887	4501.25
373.314860772047	4545
376.14195971912	4461.25
378.968081175466	4497.5
381.793225983212	4500.5
384.617394982201	4550.5
387.44058901005	4575.75
390.262808902131	4524.25
393.08405549161	4544
395.904329609395	4540
398.723632084213	4562.75
401.541963742569	4582.75
404.359325408779	4647.75
407.175717904938	4625.75
409.991142050982	4630.75
412.805598664665	4669.25
415.619088561551	4710.75
418.43161255505	4748.5
421.243171456415	4744.5
424.053766074758	4797.25
426.863397217017	4816
429.672065688024	4833.25
432.479772290455	4911
435.286517824879	4895.75
438.092303089736	4951
440.897128881359	4976.5
443.70099599399	5010
446.503905219761	4992
449.305857348711	4993.25
452.106853168796	4977
454.906893465919	4916
457.705979023885	4924.25
460.504110624439	4926.75
463.3012890473	4867.5
466.097515070087	4944.25
468.892789468424	4838.25
471.687113015869	4864.25
474.48048648395	4830.75
477.272910642198	4841.5
480.064386258109	4889.5
482.854914097159	4850
485.644494922839	4861.25
488.433129496636	4918.5
491.220818578047	4881
494.007562924584	4922.5
496.793363291785	4959.75
499.578220433217	4935.75
502.362135100473	4980.25
505.145108043209	4984.5
507.927140009098	5006.75
510.708231743909	4978.75
513.488383991433	4978.5
516.267597493556	4998.5
519.04587299022	5007
521.82321121946	4994.75
524.599612917398	4996.5
527.375078818233	5025.5
530.149609654287	5009.25
532.923206155967	5011.25
535.695869051804	4999
538.467599068448	4972.5
541.238396930665	4971
544.008263361364	4956.25
546.777199081578	4944.75
549.545204810493	4898.25
552.312281265436	4928.75
555.078429161898	4971
557.843649213533	4971.25
560.607942132156	4946.75
563.371308627753	4958.25
566.133749408495	5016.5
568.895265180756	5049.5
571.655856649064	5042.25
574.415524516189	5063.5
577.174269483075	5100
579.932092248884	5145.25
582.688993510994	5144.5
585.444973965023	5100.5
588.200034304795	5168.75
590.95417522237	5170
593.70739740807	5190.25
596.459701550433	5178.5
599.21108833628	5189.5
601.961558450668	5226
604.711112576933	5254.25
607.459751396673	5200.25
610.207475589748	5223
612.954285834338	5217
615.700182806879	5221.25
618.445167182101	5155.5
621.189239633055	5154.25
623.932400831087	5211.5
626.674651445839	5258.5
629.415992145303	5349.5
632.156423595745	5375.25
634.895946461813	5312.75
637.634561406449	5178.25
640.37226909096	5183
643.109070174978	5098
645.844965316508	5149.5
648.579955171888	5124.25
651.314040395846	5123
654.047221641456	5116.75
656.779499560176	5142.25
659.510874801828	5158.75
662.241348014642	5152
664.97091984524	5189.75
667.699590938606	5186.5
670.427361938164	5208.5
673.15423348573	5167.5
675.880206221526	5232.75
678.605280784206	5252.75
681.329457810829	5201.5
684.05273793692	5231
686.775121796389	5259.75
689.49661002163	5201
692.217203243454	5260.5
694.936902091144	5247.5
697.655707192425	5233.25
700.373619173493	5273.25
703.09063865901	5298.25
705.806766272093	5253.25
708.522002634378	5338.5
711.236348365946	5257
713.94980408538	5259
716.662370409762	5232.25
719.374047954676	5216
722.08483733419	5192
724.794739160909	5171
727.503754045949	5240
730.21188259892	5237.75
732.919125427998	5289.5
735.625483139855	5292
738.330956339723	5272.75
741.035545631374	5271.5
743.739251617106	5299.5
746.44207489779	5272.75
749.144016072852	5276
751.845075740272	5288.5
754.545254496603	5325.75
757.244552936976	5303.75
759.94297165508	5289.75
762.640511243222	5252.25
765.337172292249	5296
768.032955391649	5269.5
770.727861129482	5305.25
773.421890092413	5272.75
776.11504286572	5326
778.807320033298	5253
781.49872217765	5266.75
784.18924987991	5251.75
786.87890371984	5228.75
789.567684275826	5227.75
792.255592124908	5281.5
794.94262784276	5318
797.628792003703	5252.75
800.314085180715	5233.75
802.998507945427	5240.75
805.682060868145	5231.5
808.364744517821	5326.75
811.046559462105	5262
813.727506267311	5235.25
816.407585498422	5293.5
819.08679771913	5250
821.765143491822	5250.25
824.442623377563	5303
827.119237936127	5289.5
829.794987726003	5288.25
832.469873304377	5330.25
835.143895227167	5325.75
837.817054048985	5336.25
840.489350323205	5347.75
843.160784601892	5394.5
845.831357435894	5447.75
848.501069374739	5452.25
851.169920966753	5610
853.837912758987	5680
856.505045297232	5824.25
859.171319126071	5886.75
861.836734788823	5760.75
864.501292827579	5582.5
867.164993783208	5467.25
869.827838195361	5391.75
872.489826602454	5364.25
875.150959541701	5422.5
877.811237549104	5333
880.470661159456	5365.25
883.129230906357	5381.5
885.786947322205	5343.25
888.443810938206	5401.25
891.099822284385	5329.5
893.754981889586	5338.5
896.409290281452	5365.75
899.062747986485	5389.25
901.715355529999	5423.25
904.367113436154	5382
907.01802222793	5363.75
909.668082427172	5368
912.317294554574	5382.5
914.965659129659	5449.75
917.613176670835	5448.5
920.259847695364	5434.5
922.90567271936	5464.5
925.550652257825	5431.75
928.194786824621	5497.5
930.838076932512	5446.75
933.480523093109	5503.5
936.122125816953	5489.75
938.762885613447	5508.25
941.402802990899	5466.25
944.041878456523	5545.25
946.680112516428	5503.5
949.31750567563	5508.25
951.954058438081	5582.75
954.589771306633	5632.75
957.224644783048	5605
959.858679368044	5514.5
962.491875561238	5501.75
965.12423386121	5515
967.75575476545	5588.25
970.386438770423	5568
973.016286371501	5570.75
975.645298063046	5561.5
978.273474338355	5600
980.900815689674	5597.75
983.527322608243	5557.5
986.152995584245	5605
988.777835106834	5591
991.401841664148	5593
994.025015743307	5637.5
996.647357830407	5599.25
999.268868410534	5622.25
1001.88954796777	5600.25
1004.50939698518	5597.5
1007.12841594484	5610.5
1009.74660532783	5620.25
1012.36396561423	5600.5
1014.98049728314	5605.25
1017.59620081267	5558
1020.21107667995	5585.25
1022.82512536112	5604
1025.43834733138	5615.5
1028.05074306493	5602.75
1030.66231303501	5574.5
1033.27305771392	5616.5
1035.88297757299	5609.75
1038.49207308257	5607
1041.10034471211	5615
1043.70779293008	5614.25
1046.31441820402	5578.75
1048.92022100052	5599.5
1051.52520178525	5647.75
1054.12936102295	5667
1056.73269917742	5665
1059.33521671154	5690.25
1061.93691408729	5678.25
1064.53779176571	5658
1067.13785020694	5603.5
1069.73708987022	5638.75
1072.33551121386	5661.25
1074.93311469528	5649
1077.52990077103	5647.25
1080.12586989674	5603
1082.72102252714	5698.75
1085.31535911611	5728.5
1087.90888011663	5759.25
1090.50158598078	5836.5
1093.09347715979	5899.25
1095.68455410403	5849.75
1098.27481726296	5825.5
1100.86426708523	5811.5
1103.45290401857	5767.5
1106.04072850991	5742.75
1108.6277410053	5753
1111.21394194993	5752.5
1113.79933178816	5843.5
1116.3839109635	5835.5
1118.96767991862	5871
1121.55063909539	5851.5
1124.13278893477	5850.5
1126.71412987696	5811
1129.29466236132	5797
1131.87438682637	5801
1134.45330370982	5849
1137.03141344858	5847.75
1139.60871647872	5811
1142.18521323554	5809.75
1144.7609041535	5847.5
1147.33578966629	5832
1149.90987020676	5854.25
1152.48314620702	5870.75
1155.05561809835	5838.75
1157.62728631125	5848.5
1160.19815127545	5838.75
1162.76821341988	5896.5
1165.33747317271	5916.5
1167.90593096133	5864.75
1170.47358721235	5949
1173.04044235163	5933
1175.60649680425	5920
1178.17175099454	5924.75
1180.73620534607	5944
1183.29986028165	5946
1185.86271622336	5940
1188.42477359249	5945.75
1190.98603280964	5946.25
1193.54649429462	5911
1196.10615846653	5857.5
1198.66502574372	5840.25
1201.22309654385	5861
1203.78037128378	5894.25
1206.33685037971	5793.75
1208.89253424709	5858
1211.44742330063	5812.25
1214.00151795438	5825.25
1216.55481862163	5831.25
1219.10732571497	5791.75
1221.65903964631	5835.75
1224.20996082683	5808
1226.760089667	5862.5
1229.30942657664	5853.5
1231.85797196483	5881.25
1234.40572623998	5872.75
1236.95268980981	5912.5
1239.49886308136	5878.25
1242.04424646098	5891
1244.58884035435	5971
1247.13264516647	5951
1249.67566130166	5944.75
1252.21788916358	5937
1254.75932915524	6017.75
1257.29998167896	6025.75
1259.83984713639	6006.75
1262.37892592857	6052.5
1264.91721845586	6076.75
1267.45472511795	6112.25
1269.9914463139	6141.25
1272.52738244213	6154
1275.0625339004	6261.75
1277.59690108587	6346.25
1280.130484395	6401.5
1282.66328422367	6477
1285.19530096712	6443
1287.72653501993	6554.5
1290.25698677608	6500.5
1292.78665662894	6503.5
1295.31554497125	6414.5
1297.8436521951	6333.5
1300.37097869203	6267.25
1302.89752485292	6190
1305.42329106805	6119.5
1307.94827772713	6189
1310.47248521921	6103.25
1312.99591393279	6180
1315.51856425575	6137.75
1318.04043657536	6133.75
1320.56153127836	6146.25
1323.08184875083	6145
1325.6013893783	6156.5
1328.12015354572	6219
1330.63814163744	6172.5
1333.15535403727	6208.5
1335.67179112839	6292
1338.18745329347	6233.75
1340.70234091454	6264.75
1343.21645437314	6232.25
1345.72979405019	6254.75
1348.24236032607	6267
1350.75415358059	6360.25
1353.26517419303	6278.25
1355.7754225421	6340.25
1358.28489900594	6389
1360.79360396218	6419.5
1363.30153778787	6378.5
1365.80870085955	6390.5
1368.31509355319	6359.5
1370.82071624424	6396.5
1373.32556930762	6445
1375.8296531177	6364
1378.33296804832	6380
1380.83551447282	6421.5
1383.33729276399	6381.25
1385.83830329408	6342.5
1388.33854643489	6399.75
1390.83802255762	6357.5
1393.33673203301	6372.75
1395.83467523128	6328
1398.33185252211	6337.25
1400.82826427471	6337
1403.32391085777	6329.75
1405.81879263947	6423.25
1408.31290998752	6426.25
1410.80626326908	6383.75
1413.29885285087	6461.5
1415.79067909909	6424.5
1418.28174237944	6452.75
1420.77204305717	6438.75
1423.26158149702	6416.5
1425.75035806323	6447.25
1428.2383731196	6383.5
1430.72562702942	6476.25
1433.21212015554	6502.75
1435.69785286028	6511
1438.18282550555	6580.5
1440.66703845275	6565.5
1443.15049206284	6572.75
1445.6331866963	6602.25
1448.11512271316	6676.25
1450.59630047298	6676.25
1453.07672033486	6739.25
1455.55638265748	6742.25
1458.03528779902	6769.5
1460.51343611725	6739.5
1462.99082796946	6789
1465.46746371252	6715.75
1467.94334370285	6764.75
1470.41846829642	6696.75
1472.89283784878	6749
1475.36645271503	6790
1477.83931324983	6698
1480.31141980743	6723
1482.78277274164	6720.25
1485.25337240583	6642.75
1487.72321915297	6654.5
1490.19231333557	6654
1492.66065530578	6712
1495.12824541525	6659.75
1497.5950840153	6636.75
1500.06117145678	6640.25
1502.52650809014	6608
1504.99109426543	6629.75
1507.45493033227	6621
1509.91801663992	6574.75
1512.38035353717	6651.25
1514.84194137248	6628
1517.30278049386	6648.75
1519.76287124894	6683.25
1522.22221398497	6627
1524.68080904876	6643.25
1527.13865678681	6620.5
1529.59575754514	6696.25
1532.05211166945	6703.75
1534.50771950503	6659
1536.96258139678	6710
1539.41669768924	6721.75
1541.87006872656	6725.5
1544.32269485252	6760.5
1546.77457641051	6781.75
1549.22571374357	6840
1551.67610719434	6863.75
1554.12575710513	6847
1556.57466381785	6886
1559.02282767408	6869.75
1561.47024901499	6869.75
1563.91692818144	6908
1566.3628655139	6934.25
1568.80806135249	6950
1571.252516037	6990.5
1573.6962299068	7091.75
1576.13920330099	7036
1578.58143655828	7054.75
1581.02293001704	7141
1583.46368401528	7132.75
1585.90369889071	7043.5
1588.34297498065	7160.5
1590.7815126221	7142.25
1593.21931215173	7177.75
1595.65637390588	7184
1598.09269822053	7205.5
1600.52828543135	7393
1602.96313587367	7525
1605.3972498825	7776.25
1607.83062779252	8043.5
1610.26326993808	8548
1612.69517665322	8931.25
1615.12634827165	8979.25
1617.55678512676	8492.75
1619.98648755163	7834.75
1622.41545587902	7512.25
1624.84369044138	7310
1627.27119157085	7256.25
1629.69795959924	7189.75
1632.12399485808	7222
1634.54929767859	7129
1636.97386839165	7171
1639.39770732789	7130.25
1641.8208148176	7180.25
1644.24319119078	7197.75
1646.66483677715	7154.25
1649.0857519061	7221
1651.50593690677	7215.5
1653.92539210795	7262.5
1656.3441178382	7228.25
1658.76211442575	7267
1661.17938219855	7278.5
1663.59592148428	7375.75
1666.01173261032	7321.25
1668.42681590377	7430.25
1670.84117169145	7406.5
1673.25480029991	7376.75
1675.66770205541	7452
1678.07987728393	7481
1680.49132631119	7528
1682.90204946263	7565.75
1685.31204706342	7549.5
1687.72131943846	7611.5
1690.1298669124	7639.25
1692.53768980957	7705
1694.94478845411	7637.25
1697.35116316982	7635.25
1699.75681428031	7689
1702.16174210887	7692.75
1704.56594697858	7752
1706.96942921222	7810.25
1709.37218913235	7766.25
1711.77422706125	7856.25
1714.17554332098	7954.5
1716.5761382333	8161
1718.97601211977	8263.25
1721.37516530169	8498
1723.77359810006	8782
1726.17131083572	8923
1728.56830382922	8799.75
1730.96457740087	8590.25
1733.36013187075	8284.75
1735.75496755868	8140.25
1738.14908478428	8057.25
1740.54248386689	8001.75
1742.93516512565	7852.25
1745.32712887946	7771.25
1747.71837544697	7741.75
1750.10890514662	7712.25
1752.49871829661	7710
1754.88781521492	7693.75
1757.27619621929	7729
1759.66386162726	7653.5
1762.05081175612	7727.25
1764.43704692297	7731.75
1766.82256744465	7620.75
1769.20737363782	7675
1771.59146581887	7690.75
1773.97484430405	7726.25
1776.35750940932	7694
1778.73946145048	7734.75
1781.12070074309	7772
1783.50122760249	7812.5
1785.88104234385	7766
1788.26014528209	7813.75
1790.63853673196	7767.25
1793.01621700796	7780.5
1795.39318642443	7840.25
1797.76944529549	7796.25
1800.14499393503	7850.5
1802.51983265681	7792.5
1804.8939617743	7848.75
1807.26738160085	7882.25
1809.64009244957	7841.5
1812.01209463339	7827.5
1814.38338846504	7954.75
1816.75397425706	7893
1819.12385232181	7918
1821.49302297142	7972.25
1823.86148651789	7886.75
1826.22924327299	7848.75
1828.59629354831	7954.5
1830.96263765526	7875.75
1833.32827590507	7885.25
1835.69320860877	7939
1838.05743607724	7909.25
1840.42095862113	7865.75
1842.78377655097	7896.5
1845.14589017707	7929.5
1847.50729980956	7923.25
1849.86800575843	7905.75
1852.22800833346	7882.25
1854.58730784427	7925.25
1856.94590460032	8043.5
1859.30379891087	8007
1861.66099108503	8023.5
1864.01748143175	8110.25
1866.37327025978	8109.5
1868.72835787773	8096.25
1871.08274459403	8109.5
1873.43643071697	8087.5
1875.78941655464	8139
1878.14170241498	8180
1880.4932886058	8209.5
1882.84417543469	8226
1885.19436320915	8241.5
1887.54385223646	8283.75
1889.89264282378	8369.75
1892.24073527809	8362.5
1894.58812990625	8456.75
1896.93482701493	8430.75
1899.28082691067	8446.5
1901.62612989984	8472.25
1903.97073628868	8532.25
1906.31464638326	8600.25
1908.6578604895	8620.5
1911.00037891321	8618.75
1913.34220196	8674.25
1915.68332993537	8665
1918.02376314468	8653.5
1920.36350189311	8662.5
1922.70254648573	8745.75
1925.04089722744	8644.5
1927.37855442303	8696.25
1929.71551837715	8726.5
1932.05178939426	8748
1934.38736777876	8812.75
1936.72225383484	8718
1939.0564478666	8824
1941.38995017799	8864
1943.72276107283	8826.5
1946.05488085479	8738.5
1948.38630982744	8773.25
1950.71704829419	8752.75
1953.04709655832	8735.75
1955.376454923	8752.5
1957.70512369126	8766.75
1960.03310316599	8791.75
1962.36039364999	8757
1964.68699544589	8775.75
1967.01290885622	8814.75
1969.33813418338	8802.25
1971.66267172965	8802.75
1973.98652179718	8808.25
1976.309684688	8864.25
1978.63216070402	8847.5
1980.95395014705	8943.25
1983.27505331873	8834.25
1985.59547052063	8887.5
1987.9152020542	8905
1990.23424822074	8932.25
1992.55260932146	8905.25
1994.87028565746	8940.25
1997.18727752968	8968.5
1999.503585239	9026.25
2001.81920908618	8949.5
2004.13414937184	9023.75
2006.44840639651	9156.25
2008.7619804606	9133.75
2011.07487186442	9120
2013.38708090815	9244
2015.6986078919	9231.25
2018.00945311564	9184.75
2020.31961687923	9177.5
2022.62909948246	9277
2024.93790122498	9269
2027.24602240636	9323.25
2029.55346332604	9312.25
2031.86022428337	9352.75
2034.16630557761	9355.25
2036.47170750791	9345.25
2038.77643037331	9423
2041.08047447275	9377
2043.38384010509	9311
2045.68652756907	9441.75
2047.98853716335	9412.25
2050.28986918648	9424.5
2052.59052393692	9398.5
2054.89050171302	9375.75
2057.18980281306	9477
2059.4884275352	9451
2061.78637617753	9429.75
2064.08364903802	9459.75
2066.38024641457	9485.25
2068.67616860497	9488
2070.97141590694	9483.5
2073.26598861809	9510.75
2075.55988703595	9423.5
2077.85311145796	9503.75
2080.14566218145	9505.75
2082.43753950371	9585.25
2084.72874372188	9558.25
2087.01927513307	9503.25
2089.30913403428	9525.25
2091.59832072241	9573
2093.88683549429	9522.5
2096.17467864666	9558.5
2098.46185047619	9637
2100.74835127944	9713.75
2103.03418135292	9716.75
2105.31934099303	9702
2107.6038304961	9735.75
2109.88765015838	9805.25
2112.17080027602	9789.5
2114.45328114513	9783.5
2116.7350930617	9761.75
2119.01623632165	9867.75
2121.29671122085	9784
2123.57651805505	9891
2125.85565711996	9994.75
2128.13412871117	9978.5
2130.41193312424	10000.75
2132.68907065462	10015.25
2134.96554159771	10100
2137.24134624881	10127.75
2139.51648490317	10159
2141.79095785593	10154.25
2144.0647654022	10226.75
2146.33790783698	10295
2148.61038545524	10161.5
2150.88219855182	10360
2153.15334742154	10325.25
2155.42383235911	10434.5
2157.6936536592	10383
2159.9628116164	10306.75
2162.23130652522	10366.75
2164.49913868011	10436
2166.76630837544	10496.25
2169.03281590552	10358
2171.2986615646	10466.75
2173.56384564685	10554.75
2175.82836844637	10438
2178.0922302572	10514
2180.35543137332	10505.25
2182.61797208862	10525.5
2184.87985269695	10454.5
2187.14107349208	10532.25
2189.40163476773	10564.5
2191.66153681753	10555
2193.92077993507	10533.5
2196.17936441386	10524.75
2198.43729054735	10574
2200.69455862894	10605.5
2202.95116895194	10579.25
2205.20712180962	10600.75
2207.46241749519	10551.25
2209.71705630179	10587
2211.97103852248	10587
2214.2243644503	10666.25
2216.47703437819	10594.75
2218.72904859905	10576.75
2220.98040740571	10721.25
2223.23111109095	10618
2225.4811599475	10642.25
2227.73055426799	10596.5
2229.97929434504	10644.5
2232.22738047118	10585.5
2234.47481293889	10698.25
2236.72159204058	10794.25
2238.96771806864	10749
2241.21319131536	10702.25
2243.458012073	10660
2245.70218063374	10733
2247.94569728973	10830.25
2250.18856233304	10810.75
2252.4307760557	10658.75
2254.67233874967	10737
2256.91325070687	10763
2259.15351221915	10772
2261.39312357831	10789.5
2263.63208507611	10753
2265.87039700422	10798.75
2268.1080596543	10820.5
2270.34507331792	10809.25
2272.5814382866	10838
2274.81715485183	10866
2277.05222330502	10890
2279.28664393755	10959
2281.52041704072	10855.5
2283.75354290581	10960.75
2285.98602182401	10868.5
2288.21785408648	10951
2290.44903998434	10874.75
2292.67957980862	10930.5
2294.90947385033	10945.25
2297.1387224004	10928
2299.36732574975	11058.5
2301.59528418921	11006
2303.82259800958	11087.25
2306.04926750158	11081
2308.27529295593	11027
2310.50067466325	11065.5
2312.72541291412	11108.25
2314.9495079991	11055
2317.17296020866	11093.25
2319.39576983323	11159.5
2321.61793716322	11136.5
2323.83946248894	11134.5
2326.06034610069	11199.5
2328.28058828871	11219.5
2330.50018934317	11235.75
2332.7191495542	11174.5
2334.93746921192	11257.75
2337.15514860633	11192.25
2339.37218802743	11220
2341.58858776516	11232.75
2343.80434810941	11175.75
2346.01946935001	11276.5
2348.23395177675	11239
2350.44779567939	11265.75
2352.66100134759	11271
2354.87356907101	11326.75
2357.08549913925	11227
2359.29679184185	11295.5
2361.50744746829	11427.25
2363.71746630804	11377.75
2365.92684865048	11271.5
2368.13559478499	11272.75
2370.34370500083	11383.75
2372.55117958727	11329
2374.75801883352	11282.75
2376.96422302874	11303.75
2379.16979246202	11288.25
2381.37472742243	11309.5
2383.57902819898	11265.25
2385.78269508063	11324.25
2387.98572835629	11266.5
2390.18812831482	11252.75
2392.38989524505	11382.5
2394.59102943573	11296.25
2396.79153117559	11336.25
2398.9914007533	11294.75
2401.19063845748	11293.75
2403.38924457672	11311.75
2405.58721939951	11346.5
2407.78456321435	11294.25
2409.98127630966	11286
2412.17735897382	11276.75
2414.37281149517	11332.25
2416.56763416198	11436
2418.76182726249	11419.75
2420.95539108487	11319.25
2423.14832591726	11338.5
2425.34063204776	11335.5
2427.53230976439	11258.75
2429.72335935513	11386
2431.91378110795	11306.5
2434.10357531071	11342.5
2436.29274225125	11312.5
2438.48128221739	11313.25
2440.66919549683	11345.5
2442.8564823773	11301.75
2445.04314314641	11388
2447.22917809176	11304
2449.4145875009	11396.5
2451.59937166131	11324.75
2453.78353086044	11284.5
2455.96706538568	11383.75
2458.14997552436	11282.75
2460.33226156379	11325
2462.51392379119	11332
2464.69496249376	11285.5
2466.87537795862	11207
2469.05517047288	11242.5
2471.23434032357	11334.75
2473.41288779767	11219.25
2475.59081318211	11217
2477.76811676378	11171
2479.9447988295	11159
2482.12085966605	11168.75
2484.29629956016	11161
2486.4711187985	11195.25
2488.64531766769	11194.5
2490.8188964543	11257.5
2492.99185544484	11157.5
2495.16419492579	11215.5
2497.33591518353	11153
2499.50701650444	11156.75
2501.67749917482	11194.25
2503.84736348091	11186.25
2506.01660970891	11165.75
2508.18523814496	11199
2510.35324907514	11139
2512.52064278551	11229.75
2514.68741956201	11178
2516.85357969058	11329
2519.01912345709	11359.75
2521.18405114735	11246
2523.34836304711	11208.25
2525.51205944208	11323
2527.6751406179	11279.75
2529.83760686016	11286.75
2531.99945845439	11300.25
2534.16069568606	11321.75
2536.3213188406	11338
2538.48132820336	11220
2540.64072405965	11254
2542.79950669471	11254
2544.95767639373	11370.5
2547.11523344184	11356.5
2549.27217812411	11307
2551.42851072555	11307.5
2553.58423153111	11294
2555.73934082569	11231.75
2557.89383889412	11285
2560.04772602118	11250.5
2562.20100249158	11215.25
2564.35366858996	11204.5
2566.50572460093	11269
2568.65717080901	11222.5
2570.80800749867	11236.5
2572.95823495433	11198.75
2575.10785346031	11174.75
2577.25686330093	11181.25
2579.40526476038	11075.75
2581.55305812282	11160.25
2583.70024367237	11056.25
2585.84682169303	11087
2587.99279246879	11141.75
2590.13815628354	11136.75
2592.28291342112	11155.25
2594.42706416531	11156.25
2596.5706087998	11019.5
2598.71354760826	11180.25
2600.85588087425	11087
2602.99760888127	11092.75
2605.13873191278	11094.75
2607.27925025214	11144
2609.41916418269	11136
2611.55847398764	11114.25
2613.69717995017	11129.5
2615.83528235339	11251.75
2617.97278148034	11211.25
2620.10967761398	11186.75
2622.2459710372	11241
2624.38166203284	11185.25
2626.51675088365	11250
2628.65123787231	11140.75
2630.78512328145	11243
2632.9184073936	11181.5
2635.05109049124	11255.75
2637.18317285676	11221.75
2639.31465477248	11278.5
2641.44553652067	11249.25
2643.5758183835	11259.5
2645.70550064309	11301.5
2647.83458358144	11343
2649.96306748053	11325.75
2652.09095262223	11398.75
2654.21823928836	11412.5
2656.34492776063	11299
2658.47101832071	11314.75
2660.59651125015	11330.75
2662.72140683047	11431
2664.84570534309	11321.5
2666.96940706934	11359.5
2669.0925122905	11327.5
2671.21502128773	11421.75
2673.33693434215	11362.5
2675.45825173479	11392.5
2677.57897374658	11362.25
2679.69910065839	11414.75
2681.818632751	11369.5
2683.93757030511	11403.25
2686.05591360133	11406.25
2688.17366292021	11350
2690.29081854218	11364.25
2692.40738074762	11303.5
2694.52334981681	11420
2696.63872602995	11338.5
2698.75350966713	11437.75
2700.86770100841	11443.75
2702.98130033371	11289.75
2705.09430792289	11327.25
2707.20672405571	11302.25
2709.31854901185	11482.75
2711.42978307091	11399
2713.54042651238	11418.5
2715.65047961567	11442.75
2717.7599426601	11404.5
2719.86881592491	11389.75
2721.97709968924	11432.25
2724.08479423213	11365.75
2726.19189983255	11411.75
2728.29841676934	11329
2730.4043453213	11493.5
2732.5096857671	11466.75
2734.61443838532	11412.75
2736.71860345444	11371.25
2738.82218125286	11388
2740.92517205889	11355.5
2743.02757615072	11374.75
2745.12939380646	11400.5
2747.23062530411	11450.25
2749.33127092159	11537.5
2751.4313309367	11433.5
2753.53080562716	11502
2755.62969527058	11513
2757.72800014448	11436
2759.82572052625	11521
2761.92285669323	11449.5
2764.0194089226	11497.5
2766.11537749147	11518.75
2768.21076267686	11508.75
2770.30556475566	11463.5
2772.39978400465	11508.25
2774.49342070054	11511.5
2776.58647511991	11510.75
2778.67894753923	11496.75
2780.77083823487	11542.5
2782.8621474831	11477.5
2784.95287556007	11434.5
2787.04302274184	11451
2789.13258930433	11507
2791.22157552338	11400.75
2793.30998167471	11513.5
2795.39780803392	11537.25
2797.4850548765	11529
2799.57172247786	11475.25
2801.65781111324	11430.75
2803.74332105781	11490.5
2805.82825258661	11471.5
2807.91260597457	11570.25
2809.9963814965	11525.25
2812.07957942711	11514.75
2814.16220004096	11403
2816.24424361252	11543
2818.32571041614	11504.75
2820.40660072604	11449.75
2822.48691481631	11573.25
2824.56665296098	11543
2826.64581543388	11508
2828.72440250876	11601
2830.80241445925	11532.25
2832.87985155885	11625
2834.95671408093	11550
2837.03300229875	11581
2839.10871648544	11542
2841.18385691399	11619.75
2843.25842385729	11644
2845.33241758808	11579.75
2847.40583837898	11690.25
2849.4786865025	11713.75
2851.550962231	11794
2853.6226658367	11774.75
2855.69379759173	11722.25
2857.76435776806	11703
2859.83434663753	11799.25
2861.90376447184	11849.25
2863.97261154259	11749.5
2866.0408881212	11875.5
2868.10859447901	11861.5
2870.17573088717	11911.5
2872.24229761673	11886.75
2874.30829493859	11895.5
2876.37372312352	11902
2878.43858244215	11941.25
2880.50287316496	11938.25
2882.56659556231	11928.5
2884.62974990439	11964.5
2886.69233646129	12027
2888.75435550293	11998
2890.81580729909	12056
2892.87669211941	12110
2894.93701023339	12051.25
2896.99676191039	12144.75
2899.05594741961	12225.25
2901.1145670301	12161.5
2903.1726210108	12091.5
2905.23010963045	12143
2907.28703315768	12174
2909.34339186096	12166.75
2911.39918600861	12241
2913.45441586879	12170.5
2915.50908170952	12239.5
2917.56318379867	12114.75
2919.61672240395	12160
2921.66969779291	12212.5
2923.72211023295	12244.25
2925.77395999134	12179.25
2927.82524733515	12243.25
2929.87597253132	12189
2931.92613584663	12287.5
2933.97573754769	12217
2936.02477790097	12180
2938.07325717276	12145.75
2940.1211756292	12220.25
2942.16853353626	12231.75
2944.21533115976	12220.5
2946.26156876536	12196.5
2948.30724661853	12203.5
2950.3523649846	12338.25
2952.39692412872	12281.75
2954.44092431587	12309
2956.48436581089	12298.25
2958.52724887843	12284.75
2960.56957378296	12318.75
2962.6113407888	12452.75
2964.65255016011	12433.75
2966.69320216083	12493.5
2968.73329705479	12351.75
2970.77283510559	12343
2972.81181657671	12406
2974.8502417314	12360.25
2976.88811083279	12374.75
2978.92542414378	12387
2980.96218192713	12331.25
2982.99838444541	12366.25
2985.034031961	12352.5
2987.06912473612	12355.75
2989.1036630328	12365.25
2991.13764711288	12290.25
2993.17107723804	12304
2995.20395366974	12482.75
2997.23627666931	12450.5
2999.26804649782	12532
3001.29926341624	12624.5
3003.32992768528	12538.25
3005.3600395655	12574.25
3007.38959931726	12527.25
3009.41860720076	12580
3011.44706347595	12651.75
3013.47496840263	12579.75
3015.50232224041	12565.75
3017.5291252487	12715.75
3019.5553776867	12624.75
3021.58107981344	12672.25
3023.60623188773	12700.5
3025.63083416822	12637.25
3027.65488691331	12742.25
3029.67839038125	12781.25
3031.70134483007	12628.5
3033.72375051759	12771
3035.74560770144	12723.25
3037.76691663907	12781.25
3039.78767758768	12808
3041.80789080431	12754.75
3043.82755654577	12764
3045.84667506867	12787
3047.8652466294	12785
3049.88327148418	12784.5
3051.90074988899	12761.75
3053.91768209961	12782
3055.9340683716	12773.75
3057.94990896033	12767.25
3059.96520412095	12898.5
3061.97995410838	12992.5
3063.99415917734	12968.5
3066.00781958234	12954
3068.02093557766	13058.75
3070.03350741738	13051
3072.04553535535	13171.75
3074.05701964521	13259
3076.06796054036	13366.25
3078.078358294	13471.5
3080.08821315912	13757.25
3082.09752538846	13950.25
3084.10629523454	13553.5
3086.11452294967	13426.75
3088.12220878592	13194.5
3090.12935299515	13108.75
3092.13595582898	12916.5
3094.1420175388	12983
3096.14753837579	12905.25
3098.15251859088	12886.75
3100.15695843477	12881.75
3102.16085815793	12920.25
3104.16421801061	12790.25
3106.16703824282	12804.25
3108.16931910432	12938.5
3110.17106084464	12815
3112.17226371308	12896.75
3114.17292795872	12863
3116.17305383034	12873.5
3118.17264157657	12862.5
3120.17169144571	12928.5
3122.17020368587	12966.75
3124.16817854492	12882
3126.16561627044	12939
3128.16251710982	13084
3130.15888131017	13070.25
3132.15470911837	13073.5
3134.15000078104	13123
3136.14475654455	13128.5
3138.13897665502	13212.5
3140.13266135835	13134
3142.12581090014	13138
3144.11842552577	13230.75
3146.11050548036	13309.5
3148.10205100875	13183.5
3150.09306235557	13308.25
3152.08353976515	13254.75
3154.07348348158	13077.5
3156.06289374869	13327.75
3158.05177081006	13199.5
3160.04011490899	13277.5
3162.02792628852	13373.5
3164.01520519145	13237.75
3166.00195186029	13183.25
3167.98816653728	13308.5
3169.97384946442	13366
3171.95900088344	13213.5
3173.94362103577	13290.5
3175.92771016259	13360
3177.91126850484	13329.75
3179.89429630312	13442.75
3181.87679379782	13303.75
3183.85876122903	13385
3185.84019883657	13454.25
3187.82110685997	13496.25
3189.80148553851	13349.5
3191.78133511116	13506
3193.76065581664	13451.5
3195.73944789337	13451.75
3197.7177115795	13440
3199.6954471129	13569
3201.67265473114	13552
3203.64933467153	13460
3205.62548717107	13514.5
3207.60111246648	13643.25
3209.57621079421	13528
3211.55078239041	13603.5
3213.52482749093	13539.75
3215.49834633133	13633.25
3217.4713391469	13713.25
3219.44380617262	13642.75
3221.41574764317	13684.25
3223.38716379296	13597
3225.35805485607	13782
3227.32842106631	13660.75
3229.29826265718	13828.5
3231.26757986187	13794.5
3233.2363729133	13854
3235.20464204405	13824.75
3237.17238748643	13829.5
3239.13960947243	13874.75
3241.10630823374	13883
3243.07248400174	13877.75
3245.03813700748	13985.25
3247.00326748177	13853
3248.96787565503	13873.5
3250.93196175742	13963
3252.89552601877	13953.25
3254.8585686686	13912.75
3256.82108993612	13953.75
3258.78309005022	13903.75
3260.74456923948	13929.75
3262.70552773215	13978.5
3264.66596575617	14031.25
3266.62588353916	13814
3268.58528130843	13899.75
3270.54415929094	13861.25
3272.50251771336	13858.5
3274.46035680201	13985.5
3276.4176767829	13989.5
3278.37447788171	13934.5
3280.33076032379	13969.75
3282.28652433416	13926.25
3284.24177013751	13939.5
3286.1964979582	13987.25
3288.15070802027	14020.5
3290.10440054741	13913
3292.05757576298	13941.5
3294.01023389001	13945
3295.96237515119	13926
3297.91399976887	13999.25
3299.86510796506	13976.25
3301.81569996142	13922.75
3303.76577597932	13988
3305.7153362397	14025.75
3307.66438096324	13992.75
3309.61291037024	13956.75
3311.56092468064	13938
3313.50842411404	13890.75
3315.45540888971	14037
3317.40187922656	13910.5
3319.34783534315	14009
3321.29327745768	13937.25
3323.23820578801	13850.75
3325.18262055164	13940.5
3327.1265219657	13790.5
3329.06991024699	13973
3331.01278561194	13945.25
3332.95514827662	13937
3334.89699845674	14019.5
3336.83833636766	13951.25
3338.77916222434	13828
3340.71947624143	13971
3342.65927863317	13974
3344.59856961346	13922.5
3346.53734939584	14000.5
3348.47561819344	14018.25
3350.41337621906	13995.5
3352.35062368513	13977.25
3354.28736080368	13938.5
3356.22358778637	13965.5
3358.15930484452	14011
3360.09451218904	14083
3362.02921003047	14048.5
3363.96339857898	14079
3365.89707804436	14102.5
3367.83024863602	14005
3369.76291056299	14058.25
3371.69506403389	14004.25
3373.62670925699	14127.5
3375.55784644016	14110.5
3377.4884757909	14036.25
3379.41859751629	14212.5
3381.34821182305	14193
3383.27731891749	14229.25
3385.20591900555	14314.25
3387.13401229276	14255
3389.06159898426	14268.25
3390.9886792848	14323.75
3392.91525339872	14317.5
3394.84132152998	14334.75
3396.76688388213	14399.25
3398.69194065833	14365
3400.61649206133	14387
3402.54053829348	14473.25
3404.46407955672	14403
3406.3871160526	14360.75
3408.30964798225	14420.25
3410.23167554639	14393.25
3412.15319894535	14539
3414.07421837904	14479
3415.99473404695	14480.75
3417.91474614817	14539
3419.83425488136	14561.25
3421.75326044479	14565.75
3423.67176303631	14533
3425.58976285332	14536.5
3427.50726009282	14427.75
3429.42425495143	14498.5
3431.34074762528	14575
3433.25673831012	14441.75
3435.17222720127	14506
3437.08721449362	14518
3439.00170038164	14436.75
3440.91568505936	14488.75
3442.82916872039	14378.5
3444.74215155791	14513.25
3446.65463376468	14509.5
3448.566615533	14459.75
3450.47809705476	14413.75
3452.3890785214	14458.5
3454.29956012393	14495.5
3456.20954205293	14538.75
3458.11902449853	14410.75
3460.02800765041	14410.25
3461.93649169784	14407.75
3463.84447682962	14459.75
3465.75196323412	14358.75
3467.65895109925	14393.75
3469.56544061249	14358
3471.47143196086	14390
3473.37692533093	14352.75
3475.28192090884	14302
3477.18641888026	14398.25
3479.09041943039	14375
3480.99392274402	14379.25
3482.89692900545	14297
3484.79943839853	14303.75
3486.70145110666	14338
3488.60296731277	14304.5
3490.50398719933	14321.5
3492.40451094836	14253.75
3494.30453874141	14243
3496.20407075956	14356.25
3498.10310718342	14344.25
3500.00164819315	14183.5