201.866871357051	742
204.754250281454	735.75
207.640596790938	740
210.525911876299	749.5
213.410196525689	749
216.293451724508	742.5
219.175678455485	739.25
222.056877698662	744.25
224.937050431388	749.25
227.816197628363	745.75
230.694320261602	748.25
233.571419300504	746.75
236.447495711764	747.5
239.322550459507	756
242.196584505182	746.25
245.069598807626	754.5
247.941594323078	747.5
250.812572005154	756.5
253.682532804884	744
256.551477670699	748.25
259.419407548456	750.5
262.286323381439	749.25
265.152226110364	751
268.017116673389	756.25
270.880996006115	757.75
273.743865041622	753.75
276.605724710436	749
279.466575940562	744.5
282.326419657496	763.5
285.1852567842	754.75
288.043088241157	758.5
290.899914946349	757.5
293.75573781526	756.25
296.610557760898	760
299.464375693817	751
302.317192522078	758.25
305.169009151297	763.25
308.019826484655	756.5
310.86964542287	759.5
313.718466864233	764.5
316.566291704614	755.75
319.413120837457	765.75
322.258955153804	759
325.103795542291	758.75
327.947642889128	761.75
330.79049807819	767.75
333.632361990927	767
336.473235506444	763
339.31311950145	766.5
342.152014850322	762.25
344.989922425062	768.5
347.826843095354	771.25
350.662777728528	772.75
353.497727189577	769
356.331692341195	772.75
359.164674043732	768.25
361.996673155267	765.25
364.827690531536	780.75
367.65772702602	772.75
370.486783489887	773.25
373.314860772047	778.75
376.14195971912	776.25
378.968081175466	777.5
381.793225983212	777
384.617394982201	786.75
387.44058901005	782.75
390.262808902131	775
393.08405549161	768
395.904329609395	770.75
398.723632084213	769.25
401.541963742569	780.25
404.359325408779	775.25
407.175717904938	776.75
409.991142050982	788
412.805598664665	779.25
415.619088561551	780.25
418.43161255505	775.5
421.243171456415	784
424.053766074758	787.5
426.863397217017	794.25
429.672065688024	785.75
432.479772290455	786
435.286517824879	783.25
438.092303089736	787.5
440.897128881359	793.25
443.70099599399	781
446.503905219761	787.5
449.305857348711	788.5
452.106853168796	791.5
454.906893465919	787.25
457.705979023885	801
460.504110624439	790.75
463.3012890473	783.25
466.097515070087	794
468.892789468424	790
471.687113015869	791.75
474.48048648395	795
477.272910642198	792.5
480.064386258109	799.25
482.854914097159	803.25
485.644494922839	798.5
488.433129496636	803
491.220818578047	802.5
494.007562924584	801
496.793363291785	804
499.578220433217	798.5
502.362135100473	802.75
505.145108043209	802.75
507.927140009098	805
510.708231743909	809
513.488383991433	816
516.267597493556	797.75
519.04587299022	807.75
521.82321121946	815.25
524.599612917398	804.75
527.375078818233	809.25
530.149609654287	802.25
532.923206155967	812.75
535.695869051804	810
538.467599068448	802.25
541.238396930665	805
544.008263361364	810.5
546.777199081578	809.25
549.545204810493	803.25
552.312281265436	806.75
555.078429161898	812
557.843649213533	810.75
560.607942132156	801.75
563.371308627753	809.75
566.133749408495	810
568.895265180756	809.75
571.655856649064	809.75
574.415524516189	819
577.174269483075	802.5
579.932092248884	813.75
582.688993510994	808.75
585.444973965023	813.25
588.200034304795	811.75
590.95417522237	816
593.70739740807	818.5
596.459701550433	817
599.21108833628	817.5
601.961558450668	817.75
604.711112576933	824.5
607.459751396673	807.25
610.207475589748	814
612.954285834338	814.75
615.700182806879	820
618.445167182101	826.75
621.189239633055	816.25
623.932400831087	814.75
626.674651445839	812.75
629.415992145303	814.5
632.156423595745	814.25
634.895946461813	811
637.634561406449	814.25
640.37226909096	826.5
643.109070174978	818.25
645.844965316508	824.75
648.579955171888	815.75
651.314040395846	820.25
654.047221641456	824.25
656.779499560176	828
659.510874801828	817
662.241348014642	822
664.97091984524	814.25
667.699590938606	827.25
670.427361938164	835.5
673.15423348573	820
675.880206221526	825.25
678.605280784206	831.25
681.329457810829	838.25
684.05273793692	833.75
686.775121796389	832.5
689.49661002163	831.75
692.217203243454	833
694.936902091144	827.25
697.655707192425	829.75
700.373619173493	825.25
703.09063865901	833.5
705.806766272093	825.75
708.522002634378	819
711.236348365946	827.5
713.94980408538	827.75
716.662370409762	819
719.374047954676	835.5
722.08483733419	834.25
724.794739160909	830.5
727.503754045949	839.25
730.21188259892	848
732.919125427998	832.5
735.625483139855	847.5
738.330956339723	827.75
741.035545631374	833.5
743.739251617106	840
746.44207489779	845.75
749.144016072852	840
751.845075740272	843
754.545254496603	838.5
757.244552936976	836.75
759.94297165508	835.25
762.640511243222	844.5
765.337172292249	841.25
768.032955391649	849.75
770.727861129482	839
773.421890092413	841.5
776.11504286572	846.5
778.807320033298	844
781.49872217765	842.5
784.18924987991	858.75
786.87890371984	837
789.567684275826	849.5
792.255592124908	840
794.94262784276	834.25
797.628792003703	845.5
800.314085180715	841.75
802.998507945427	842.75
805.682060868145	841
808.364744517821	853
811.046559462105	850.5
813.727506267311	853.5
816.407585498422	854.25
819.08679771913	850.75
821.765143491822	850.75
824.442623377563	851
827.119237936127	861.75
829.794987726003	857
832.469873304377	856.5
835.143895227167	855.5
837.817054048985	856.5
840.489350323205	861.25
843.160784601892	866.75
845.831357435894	857.75
848.501069374739	852
851.169920966753	856.75
853.837912758987	857.25
856.505045297232	870
859.171319126071	860
861.836734788823	857.25
864.501292827579	878
867.164993783208	851.5
869.827838195361	868.75
872.489826602454	864.5
875.150959541701	865.75
877.811237549104	860.5
880.470661159456	861
883.129230906357	861
885.786947322205	868.25
888.443810938206	859.5
891.099822284385	864.75
893.754981889586	877.5
896.409290281452	862.75
899.062747986485	876.25
901.715355529999	861
904.367113436154	869.5
907.01802222793	859.75
909.668082427172	872
912.317294554574	867.5
914.965659129659	873
917.613176670835	871.75
920.259847695364	878.5
922.90567271936	871.5
925.550652257825	866
928.194786824621	866.25
930.838076932512	860.5
933.480523093109	871.25
936.122125816953	876
938.762885613447	862.75
941.402802990899	867
944.041878456523	869.25
946.680112516428	870.75
949.31750567563	871
951.954058438081	878.25
954.589771306633	873.5
957.224644783048	879.5
959.858679368044	874.25
962.491875561238	872.25
965.12423386121	868.5
967.75575476545	881.25
970.386438770423	878.5
973.016286371501	867.5
975.645298063046	863.5
978.273474338355	884
980.900815689674	874.75
983.527322608243	873
986.152995584245	875.75
988.777835106834	876.75
991.401841664148	889.25
994.025015743307	881.5
996.647357830407	886.25
999.268868410534	884.5
1001.88954796777	882.75
1004.50939698518	892.5
1007.12841594484	886
1009.74660532783	885.25
1012.36396561423	890.5
1014.98049728314	880.5
1017.59620081267	895.25
1020.21107667995	892.75
1022.82512536112	890.25
1025.43834733138	895
1028.05074306493	904.5
1030.66231303501	910.75
1033.27305771392	898.25
1035.88297757299	896.5
1038.49207308257	896.5
1041.10034471211	890
1043.70779293008	899
1046.31441820402	901.5
1048.92022100052	908.5
1051.52520178525	914
1054.12936102295	929.25
1056.73269917742	938.25
1059.33521671154	961.75
1061.93691408729	981
1064.53779176571	966.75
1067.13785020694	946
1069.73708987022	925.5
1072.33551121386	921.25
1074.93311469528	912
1077.52990077103	921.5
1080.12586989674	928
1082.72102252714	919.25
1085.31535911611	912.25
1087.90888011663	920.75
1090.50158598078	927
1093.09347715979	926
1095.68455410403	920.25
1098.27481726296	914
1100.86426708523	913
1103.45290401857	905
1106.04072850991	915
1108.6277410053	908.5
1111.21394194993	907.75
1113.79933178816	916.25
1116.3839109635	928
1118.96767991862	930.25
1121.55063909539	934
1124.13278893477	939.5
1126.71412987696	953.75
1129.29466236132	958.5
1131.87438682637	962.75
1134.45330370982	941.75
1137.03141344858	934
1139.60871647872	920.75
1142.18521323554	918.5
1144.7609041535	925
1147.33578966629	916
1149.90987020676	933.75
1152.48314620702	925.5
1155.05561809835	925.25
1157.62728631125	929.75
1160.19815127545	925
1162.76821341988	911.25
1165.33747317271	929.5
1167.90593096133	937.25
1170.47358721235	935.75
1173.04044235163	939.5
1175.60649680425	921.25
1178.17175099454	919.5
1180.73620534607	914.25
1183.29986028165	922.75
1185.86271622336	927.25
1188.42477359249	929.5
1190.98603280964	926
1193.54649429462	914.75
1196.10615846653	916.75
1198.66502574372	926.5
1201.22309654385	922.75
1203.78037128378	916
1206.33685037971	920.75
1208.89253424709	920.25
1211.44742330063	910.25
1214.00151795438	922.75
1216.55481862163	916.5
1219.10732571497	928
1221.65903964631	921.25
1224.20996082683	929.5
1226.760089667	916.25
1229.30942657664	930.25
1231.85797196483	934.75
1234.40572623998	925
1236.95268980981	927.5
1239.49886308136	920.25
1242.04424646098	929.25
1244.58884035435	933.25
1247.13264516647	936.5
1249.67566130166	936.25
1252.21788916358	939.25
1254.75932915524	935.5
1257.29998167896	943
1259.83984713639	957
1262.37892592857	952.75
1264.91721845586	940.5
1267.45472511795	957.75
1269.9914463139	942.75
1272.52738244213	950.5
1275.0625339004	953.75
1277.59690108587	953.5
1280.130484395	954.5
1282.66328422367	973.75
1285.19530096712	981.5
1287.72653501993	976.25
1290.25698677608	1027.75
1292.78665662894	1072.25
1295.31554497125	1095.25
1297.8436521951	1050.75
1300.37097869203	1013.5
1302.89752485292	1001.25
1305.42329106805	999.25
1307.94827772713	997
1310.47248521921	988.75
1312.99591393279	982.5
1315.51856425575	978.75
1318.04043657536	979.75
1320.56153127836	976
1323.08184875083	975.5
1325.6013893783	965
1328.12015354572	976
1330.63814163744	995
1333.15535403727	978.75
1335.67179112839	979.25
1338.18745329347	977.5
1340.70234091454	988.25
1343.21645437314	985.5
1345.72979405019	980.25
1348.24236032607	983.75
1350.75415358059	994.25
1353.26517419303	981.75
1355.7754225421	987.5
1358.28489900594	999.25
1360.79360396218	992.5
1363.30153778787	1002.5
1365.80870085955	1014
1368.31509355319	1002.25
1370.82071624424	1000.75
1373.32556930762	1008.25
1375.8296531177	993.5
1378.33296804832	1019
1380.83551447282	1003.5
1383.33729276399	995.5
1385.83830329408	995.5
1388.33854643489	993.5
1390.83802255762	1001.75
1393.33673203301	999
1395.83467523128	987.5
1398.33185252211	986.75
1400.82826427471	1005
1403.32391085777	995.75
1405.81879263947	998.75
1408.31290998752	995.75
1410.80626326908	1004.25
1413.29885285087	1015
1415.79067909909	1024.5
1418.28174237944	1027.5
1420.77204305717	1038.75
1423.26158149702	1032.5
1425.75035806323	1066.5
1428.2383731196	1053.75
1430.72562702942	1072
1433.21212015554	1097.75
1435.69785286028	1147.75
1438.18282550555	1149.5
1440.66703845275	1146.5
1443.15049206284	1124
1445.6331866963	1124.25
1448.11512271316	1111.25
1450.59630047298	1111.5
1453.07672033486	1123.75
1455.55638265748	1125
1458.03528779902	1112.75
1460.51343611725	1140.25
1462.99082796946	1140.5
1465.46746371252	1126.5
1467.94334370285	1098.5
1470.41846829642	1101.25
1472.89283784878	1090
1475.36645271503	1087.75
1477.83931324983	1068.75
1480.31141980743	1075
1482.78277274164	1087.25
1485.25337240583	1079
1487.72321915297	1076.75
1490.19231333557	1058.5
1492.66065530578	1073.25
1495.12824541525	1068.75
1497.5950840153	1080.75
1500.06117145678	1070
1502.52650809014	1086
1504.99109426543	1092.5
1507.45493033227	1081.75
1509.91801663992	1086
1512.38035353717	1091.5
1514.84194137248	1093.75
1517.30278049386	1081
1519.76287124894	1098.5
1522.22221398497	1101.75
1524.68080904876	1106.25
1527.13865678681	1100.75
1529.59575754514	1115.5
1532.05211166945	1100.75
1534.50771950503	1115.5
1536.96258139678	1121.75
1539.41669768924	1117.75
1541.87006872656	1129.75
1544.32269485252	1134.25
1546.77457641051	1133
1549.22571374357	1138.5
1551.67610719434	1147.25
1554.12575710513	1131
1556.57466381785	1149.25
1559.02282767408	1140.75
1561.47024901499	1158.5
1563.91692818144	1156.5
1566.3628655139	1150
1568.80806135249	1153.25
1571.252516037	1168.25
1573.6962299068	1189.25
1576.13920330099	1178
1578.58143655828	1182.25
1581.02293001704	1193.5
1583.46368401528	1178.75
1585.90369889071	1182.25
1588.34297498065	1185.5
1590.7815126221	1191
1593.21931215173	1193
1595.65637390588	1203.5
1598.09269822053	1182.25
1600.52828543135	1203.25
1602.96313587367	1198.75
1605.3972498825	1200
1607.83062779252	1197.5
1610.26326993808	1211.75
1612.69517665322	1229.25
1615.12634827165	1225.5
1617.55678512676	1208.25
1619.98648755163	1204.5
1622.41545587902	1209
1624.84369044138	1215.75
1627.27119157085	1220.5
1629.69795959924	1219.5
1632.12399485808	1242.5
1634.54929767859	1228.25
1636.97386839165	1231
1639.39770732789	1231.25
1641.8208148176	1235.5
1644.24319119078	1241.25
1646.66483677715	1236.5
1649.0857519061	1254.25
1651.50593690677	1249
1653.92539210795	1242.75
1656.3441178382	1237.25
1658.76211442575	1265.75
1661.17938219855	1265.5
1663.59592148428	1265.5
1666.01173261032	1262.5
1668.42681590377	1282.5
1670.84117169145	1287.5
1673.25480029991	1287.25
1675.66770205541	1290.75
1678.07987728393	1285.25
1680.49132631119	1291.75
1682.90204946263	1303.5
1685.31204706342	1301.75
1687.72131943846	1296.5
1690.1298669124	1315.75
1692.53768980957	1339
1694.94478845411	1340.75
1697.35116316982	1328
1699.75681428031	1337.75
1702.16174210887	1334.25
1704.56594697858	1327.5
1706.96942921222	1339
1709.37218913235	1344.25
1711.77422706125	1334.25
1714.17554332098	1338
1716.5761382333	1365.5
1718.97601211977	1346.75
1721.37516530169	1361.5
1723.77359810006	1361
1726.17131083572	1361.5
1728.56830382922	1355.25
1730.96457740087	1346.5
1733.36013187075	1371
1735.75496755868	1380.25
1738.14908478428	1372
1740.54248386689	1371.25
1742.93516512565	1378.75
1745.32712887946	1377.75
1747.71837544697	1377.5
1750.10890514662	1398.25
1752.49871829661	1389.75
1754.88781521492	1400.5
1757.27619621929	1424.25
1759.66386162726	1404.75
1762.05081175612	1417.75
1764.43704692297	1431
1766.82256744465	1434.75
1769.20737363782	1437.5
1771.59146581887	1425.25
1773.97484430405	1455.5
1776.35750940932	1436.75
1778.73946145048	1462
1781.12070074309	1476
1783.50122760249	1459
1785.88104234385	1482
1788.26014528209	1463.25
1790.63853673196	1476.5
1793.01621700796	1491.25
1795.39318642443	1506.5
1797.76944529549	1490.25
1800.14499393503	1509
1802.51983265681	1517
1804.8939617743	1513.75
1807.26738160085	1526.25
1809.64009244957	1552.75
1812.01209463339	1531.5
1814.38338846504	1546
1816.75397425706	1558.25
1819.12385232181	1554.25
1821.49302297142	1551
1823.86148651789	1550.5
1826.22924327299	1550
1828.59629354831	1579.5
1830.96263765526	1560.25
1833.32827590507	1562.75
1835.69320860877	1575.25
1838.05743607724	1564.75
1840.42095862113	1586.5
1842.78377655097	1583.25
1845.14589017707	1579
1847.50729980956	1601
1849.86800575843	1599.25
1852.22800833346	1593.25
1854.58730784427	1607.75
1856.94590460032	1616.25
1859.30379891087	1633
1861.66099108503	1624.75
1864.01748143175	1628.75
1866.37327025978	1633.75
1868.72835787773	1632.5
1871.08274459403	1635
1873.43643071697	1662.25
1875.78941655464	1655.75
1878.14170241498	1654.75
1880.4932886058	1663.25
1882.84417543469	1654.75
1885.19436320915	1644.5
1887.54385223646	1675.75
1889.89264282378	1682.5
1892.24073527809	1684.25
1894.58812990625	1710.25
1896.93482701493	1701
1899.28082691067	1687.5
1901.62612989984	1716.5
1903.97073628868	1710
1906.31464638326	1739
1908.6578604895	1746.75
1911.00037891321	1749.5
1913.34220196	1749.25
1915.68332993537	1739.75
1918.02376314468	1746
1920.36350189311	1751
1922.70254648573	1767
1925.04089722744	1749.5
1927.37855442303	1756
1929.71551837715	1759.25
1932.05178939426	1753.25
1934.38736777876	1773.75
1936.72225383484	1765.25
1939.0564478666	1786
1941.38995017799	1766
1943.72276107283	1764
1946.05488085479	1774
1948.38630982744	1757
1950.71704829419	1783.5
1953.04709655832	1785.75
1955.376454923	1771
1957.70512369126	1777.75
1960.03310316599	1789
1962.36039364999	1774.25
1964.68699544589	1762.5
1967.01290885622	1792.5
1969.33813418338	1788.5
1971.66267172965	1789.75
1973.98652179718	1793
1976.309684688	1801.25
1978.63216070402	1794
1980.95395014705	1809.25
1983.27505331873	1839.5
1985.59547052063	1819
1987.9152020542	1838.75
1990.23424822074	1833
1992.55260932146	1820.5
1994.87028565746	1826
1997.18727752968	1823
1999.503585239	1850.5
2001.81920908618	1844
2004.13414937184	1859
2006.44840639651	1872
2008.7619804606	1864.75
2011.07487186442	1866.5
2013.38708090815	1887.5
2015.6986078919	1904.75
2018.00945311564	1897.5
2020.31961687923	1914.75
2022.62909948246	1922.75
2024.93790122498	1932
2027.24602240636	1935.75
2029.55346332604	1926.75
2031.86022428337	1931.25
2034.16630557761	1937
2036.47170750791	1950.5
2038.77643037331	1958.25
2041.08047447275	1963
2043.38384010509	1945
2045.68652756907	1955
2047.98853716335	1966.25
2050.28986918648	1984.25
2052.59052393692	1971.25
2054.89050171302	1994
2057.18980281306	1989
2059.4884275352	2006.75
2061.78637617753	2004.5
2064.08364903802	1996.75
2066.38024641457	2013.25
2068.67616860497	2016.75
2070.97141590694	2013.5
2073.26598861809	2006.75
2075.55988703595	2005.75
2077.85311145796	2015.5
2080.14566218145	2017.75
2082.43753950371	2034.5
2084.72874372188	2020.75
2087.01927513307	2038.25
2089.30913403428	2057.75
2091.59832072241	2056
2093.88683549429	2045
2096.17467864666	2060.5
2098.46185047619	2072.75
2100.74835127944	2054.25
2103.03418135292	2058.75
2105.31934099303	2052.75
2107.6038304961	2084
2109.88765015838	2098.75
2112.17080027602	2085.75
2114.45328114513	2078.75
2116.7350930617	2098
2119.01623632165	2107.75
2121.29671122085	2086
2123.57651805505	2130
2125.85565711996	2116.25
2128.13412871117	2125.25
2130.41193312424	2133.5
2132.68907065462	2139.5
2134.96554159771	2163.5
2137.24134624881	2137
2139.51648490317	2151.25
2141.79095785593	2141.25
2144.0647654022	2156.5
2146.33790783698	2161
2148.61038545524	2168.75
2150.88219855182	2189
2153.15334742154	2174
2155.42383235911	2183
2157.6936536592	2155.25
2159.9628116164	2151.5
2162.23130652522	2158.25
2164.49913868011	2179.5
2166.76630837544	2212.25
2169.03281590552	2177.25
2171.2986615646	2167
2173.56384564685	2187
2175.82836844637	2174.75
2178.0922302572	2172.5
2180.35543137332	2192.5
2182.61797208862	2203.25
2184.87985269695	2178.75
2187.14107349208	2182
2189.40163476773	2202
2191.66153681753	2180
2193.92077993507	2178.25
2196.17936441386	2168
2198.43729054735	2156.5
2200.69455862894	2183.5
2202.95116895194	2186.5
2205.20712180962	2180.5
2207.46241749519	2146
2209.71705630179	2149.75
2211.97103852248	2142.75
2214.2243644503	2158.75
2216.47703437819	2132.5
2218.72904859905	2146
2220.98040740571	2139.25
2223.23111109095	2132.5
2225.4811599475	2148.25
2227.73055426799	2159.25
2229.97929434504	2133.5
2232.22738047118	2145.5
2234.47481293889	2132.75
2236.72159204058	2140.75
2238.96771806864	2142.25
2241.21319131536	2112.5
2243.458012073	2110.25
2245.70218063374	2126.25
2247.94569728973	2104.5
2250.18856233304	2110.75
2252.4307760557	2090
2254.67233874967	2108.75
2256.91325070687	2111.5
2259.15351221915	2068.75
2261.39312357831	2104
2263.63208507611	2081
2265.87039700422	2090.5
2268.1080596543	2099.25
2270.34507331792	2067.5
2272.5814382866	2076.25
2274.81715485183	2080.25
2277.05222330502	2064.5
2279.28664393755	2061.25
2281.52041704072	2064
2283.75354290581	2070
2285.98602182401	2043.75
2288.21785408648	2042.5
2290.44903998434	2073.25
2292.67957980862	2036
2294.90947385033	2044.75
2297.1387224004	2041.25
2299.36732574975	2043.5
2301.59528418921	2031.25
2303.82259800958	2036.75
2306.04926750158	2036
2308.27529295593	2015.5
2310.50067466325	1996
2312.72541291412	2007.5
2314.9495079991	2022.75
2317.17296020866	1993.25
2319.39576983323	1996.75
2321.61793716322	2003
2323.83946248894	1981
2326.06034610069	2000.75
2328.28058828871	1985.25
2330.50018934317	1990
2332.7191495542	1969
2334.93746921192	1978.5
2337.15514860633	1957.25
2339.37218802743	1984.25
2341.58858776516	1965
2343.80434810941	1952.75
2346.01946935001	1976.25
2348.23395177675	1968.75
2350.44779567939	1960.5
2352.66100134759	1950
2354.87356907101	1944.75
2357.08549913925	1934.25
2359.29679184185	1912
2361.50744746829	1957.5
2363.71746630804	1960.5
2365.92684865048	1920.75
2368.13559478499	1940
2370.34370500083	1912
2372.55117958727	1901
2374.75801883352	1912.75
2376.96422302874	1890
2379.16979246202	1892.5
2381.37472742243	1906.75
2383.57902819898	1896
2385.78269508063	1906.25
2387.98572835629	1878.5
2390.18812831482	1869.25
2392.38989524505	1883.75
2394.59102943573	1869
2396.79153117559	1878.75
2398.9914007533	1868.25
2401.19063845748	1871.5
2403.38924457672	1861.5
2405.58721939951	1864.75
2407.78456321435	1869.25
2409.98127630966	1843.25
2412.17735897382	1852.5
2414.37281149517	1840.75
2416.56763416198	1866.25
2418.76182726249	1854.75
2420.95539108487	1839.25
2423.14832591726	1859.75
2425.34063204776	1838
2427.53230976439	1831.75
2429.72335935513	1824.5
2431.91378110795	1842.5
2434.10357531071	1814
2436.29274225125	1837
2438.48128221739	1846.25
2440.66919549683	1810
2442.8564823773	1817.75
2445.04314314641	1811.25
2447.22917809176	1825.25
2449.4145875009	1792.75
2451.59937166131	1821.25
2453.78353086044	1810.25
2455.96706538568	1811.5
2458.14997552436	1813.75
2460.33226156379	1808.75
2462.51392379119	1771.25
2464.69496249376	1795.25
2466.87537795862	1802.75
2469.05517047288	1762.5
2471.23434032357	1785
2473.41288779767	1779.5
2475.59081318211	1778
2477.76811676378	1752.25
2479.9447988295	1775.5
2482.12085966605	1787
2484.29629956016	1741.5
2486.4711187985	1775.5
2488.64531766769	1756.75
2490.8188964543	1749.5
2492.99185544484	1757.5
2495.16419492579	1757
2497.33591518353	1740.5
2499.50701650444	1733
2501.67749917482	1736
2503.84736348091	1771
2506.01660970891	1735.75
2508.18523814496	1739
2510.35324907514	1743.75
2512.52064278551	1710.5
2514.68741956201	1722
2516.85357969058	1746.75
2519.01912345709	1756.75
2521.18405114735	1723.5
2523.34836304711	1726.25
2525.51205944208	1731.5
2527.6751406179	1737.25
2529.83760686016	1733.25
2531.99945845439	1720.25
2534.16069568606	1713.25
2536.3213188406	1698.75
2538.48132820336	1714.25
2540.64072405965	1713.5
2542.79950669471	1723.5
2544.95767639373	1723.25
2547.11523344184	1728.75
2549.27217812411	1719
2551.42851072555	1696.75
2553.58423153111	1728.25
2555.73934082569	1703.75
2557.89383889412	1703.5
2560.04772602118	1716.5
2562.20100249158	1686.5
2564.35366858996	1697.5
2566.50572460093	1690.5
2568.65717080901	1684.25
2570.80800749867	1695.75
2572.95823495433	1689.25
2575.10785346031	1668.25
2577.25686330093	1666.25
2579.40526476038	1657.5
2581.55305812282	1674.25
2583.70024367237	1666.75
2585.84682169303	1666.25
2587.99279246879	1666.25
2590.13815628354	1660
2592.28291342112	1674.5
2594.42706416531	1641
2596.5706087998	1657.75
2598.71354760826	1651.25
2600.85588087425	1645.75
2602.99760888127	1644.75
2605.13873191278	1636
2607.27925025214	1626.5
2609.41916418269	1632.75
2611.55847398764	1640.5
2613.69717995017	1622
2615.83528235339	1667
2617.97278148034	1650.25
2620.10967761398	1619.25
2622.2459710372	1644.25
2624.38166203284	1651.25
2626.51675088365	1632.75
2628.65123787231	1615.5
2630.78512328145	1637
2632.9184073936	1633
2635.05109049124	1650.75
2637.18317285676	1630.25
2639.31465477248	1627.75
2641.44553652067	1649.25
2643.5758183835	1616
2645.70550064309	1608.25
2647.83458358144	1629.75
2649.96306748053	1640.75
2652.09095262223	1623
2654.21823928836	1641.5
2656.34492776063	1628.25
2658.47101832071	1627.75
2660.59651125015	1621.25
2662.72140683047	1619
2664.84570534309	1617.25
2666.96940706934	1614
2669.0925122905	1606.25
2671.21502128773	1633.25
2673.33693434215	1628.75
2675.45825173479	1623.75
2677.57897374658	1632
2679.69910065839	1622.75
2681.818632751	1619.25
2683.93757030511	1625.75
2686.05591360133	1615.25
2688.17366292021	1621.25
2690.29081854218	1621
2692.40738074762	1624.25
2694.52334981681	1632.5
2696.63872602995	1614
2698.75350966713	1639.5
2700.86770100841	1641.75
2702.98130033371	1644.75
2705.09430792289	1646
2707.20672405571	1665.75
2709.31854901185	1650.5
2711.42978307091	1665.25
2713.54042651238	1664.75
2715.65047961567	1678
2717.7599426601	1665.5
2719.86881592491	1672.5
2721.97709968924	1690.5
2724.08479423213	1660.5
2726.19189983255	1664
2728.29841676934	1644.25
2730.4043453213	1672.5
2732.5096857671	1632.5
2734.61443838532	1614.5
2736.71860345444	1596.25
2738.82218125286	1634.25
2740.92517205889	1630.75
2743.02757615072	1605.5
2745.12939380646	1600.25
2747.23062530411	1607.75
2749.33127092159	1607.25
2751.4313309367	1591
2753.53080562716	1599.25
2755.62969527058	1604.25
2757.72800014448	1586
2759.82572052625	1601
2761.92285669323	1602.75
2764.0194089226	1610.75
2766.11537749147	1597.75
2768.21076267686	1590.25
2770.30556475566	1584.75
2772.39978400465	1592.5
2774.49342070054	1602.75
2776.58647511991	1596
2778.67894753923	1573
2780.77083823487	1566.5
2782.8621474831	1577.25
2784.95287556007	1563.5
2787.04302274184	1572.75
2789.13258930433	1605.5
2791.22157552338	1587.25
2793.30998167471	1571.75
2795.39780803392	1589.25
2797.4850548765	1597.25
2799.57172247786	1570
2801.65781111324	1565.25
2803.74332105781	1597
2805.82825258661	1582.75
2807.91260597457	1593.75
2809.9963814965	1593.25
2812.07957942711	1614.75
2814.16220004096	1587
2816.24424361252	1618.25
2818.32571041614	1622.75
2820.40660072604	1624.25
2822.48691481631	1638.25
2824.56665296098	1640.75
2826.64581543388	1682.75
2828.72440250876	1709.75
2830.80241445925	1765.25
2832.87985155885	1840.5
2834.95671408093	1940
2837.03300229875	2085.75
2839.10871648544	2289.25
2841.18385691399	2538.75
2843.25842385729	2754.5
2845.33241758808	2918
2847.40583837898	2976.25
2849.4786865025	2939
2851.550962231	2825.75
2853.6226658367	2740.75
2855.69379759173	2639.25
2857.76435776806	2534.5
2859.83434663753	2447.5
2861.90376447184	2376.25
2863.97261154259	2370
2866.0408881212	2371.5
2868.10859447901	2347.25
2870.17573088717	2364
2872.24229761673	2399.75
2874.30829493859	2492.25
2876.37372312352	2606
2878.43858244215	2873.75
2880.50287316496	3052.75
2882.56659556231	2989
2884.62974990439	2749.25
2886.69233646129	2592.25
2888.75435550293	2479.75
2890.81580729909	2449.5
2892.87669211941	2398
2894.93701023339	2387.25
2896.99676191039	2342.5
2899.05594741961	2357.25
2901.1145670301	2318.5
2903.1726210108	2289.5
2905.23010963045	2258.75
2907.28703315768	2203
2909.34339186096	2153.25
2911.39918600861	2149.25
2913.45441586879	2111.25
2915.50908170952	2097.75
2917.56318379867	2073.75
2919.61672240395	2107.5
2921.66969779291	2065.25
2923.72211023295	2092.25
2925.77395999134	2078.5
2927.82524733515	2065
2929.87597253132	2058
2931.92613584663	2051
2933.97573754769	1991.75
2936.02477790097	1966.5
2938.07325717276	1909.5
2940.1211756292	1867.5
2942.16853353626	1812.5
2944.21533115976	1794.5
2946.26156876536	1765.25
2948.30724661853	1710
2950.3523649846	1685.25
2952.39692412872	1692.25
2954.44092431587	1672.75
2956.48436581089	1672.5
2958.52724887843	1653.25
2960.56957378296	1681.75
2962.6113407888	1651.25
2964.65255016011	1654.75
2966.69320216083	1646.75
2968.73329705479	1627.75
2970.77283510559	1638.75
2972.81181657671	1631.5
2974.8502417314	1615.75
2976.88811083279	1647.25
2978.92542414378	1638.25
2980.96218192713	1633
2982.99838444541	1631.25
2985.034031961	1632.5
2987.06912473612	1650
2989.1036630328	1636.5
2991.13764711288	1643
2993.17107723804	1633.25
2995.20395366974	1618.5
2997.23627666931	1645.5
2999.26804649782	1634.5
3001.29926341624	1650.5
3003.32992768528	1650.75
3005.3600395655	1659.75
3007.38959931726	1628.5
3009.41860720076	1667.25
3011.44706347595	1657
3013.47496840263	1647.75
3015.50232224041	1667
3017.5291252487	1673.75
3019.5553776867	1649.5
3021.58107981344	1668.75
3023.60623188773	1661.25
3025.63083416822	1695.25
3027.65488691331	1682.25
3029.67839038125	1686.25
3031.70134483007	1664.75
3033.72375051759	1682.75
3035.74560770144	1675.5
3037.76691663907	1677.5
3039.78767758768	1677.25
3041.80789080431	1694
3043.82755654577	1675.75
3045.84667506867	1662.5
3047.8652466294	1674
3049.88327148418	1666.5
3051.90074988899	1680.75
3053.91768209961	1692.25
3055.9340683716	1691.75
3057.94990896033	1676.5
3059.96520412095	1668
3061.97995410838	1700.25
3063.99415917734	1672.25
3066.00781958234	1685.5
3068.02093557766	1695.25
3070.03350741738	1682
3072.04553535535	1697.75
3074.05701964521	1669.5
3076.06796054036	1669.25
3078.078358294	1678.5
3080.08821315912	1681.75
3082.09752538846	1698.25
3084.10629523454	1672.25
3086.11452294967	1683.75
3088.12220878592	1690
3090.12935299515	1712.25
3092.13595582898	1703.75
3094.1420175388	1700.25
3096.14753837579	1684
3098.15251859088	1693.25
3100.15695843477	1712.5
3102.16085815793	1704.25
3104.16421801061	1705.25
3106.16703824282	1683
3108.16931910432	1683.25
3110.17106084464	1697
3112.17226371308	1714
3114.17292795872	1703.5
3116.17305383034	1708
3118.17264157657	1687.5
3120.17169144571	1714.75
3122.17020368587	1690.5
3124.16817854492	1717.75
3126.16561627044	1709.25
3128.16251710982	1728.5
3130.15888131017	1716.75
3132.15470911837	1736.5
3134.15000078104	1715.25
3136.14475654455	1731.5
3138.13897665502	1730
3140.13266135835	1724.75
3142.12581090014	1767.75
3144.11842552577	1738.75
3146.11050548036	1747.5
3148.10205100875	1742.5
3150.09306235557	1757.5
3152.08353976515	1753.5
3154.07348348158	1727.5
3156.06289374869	1770.5
3158.05177081006	1748.75
3160.04011490899	1749.25
3162.02792628852	1763.25
3164.01520519145	1760.75
3166.00195186029	1750.25
3167.98816653728	1760
3169.97384946442	1790.25
3171.95900088344	1757.5
3173.94362103577	1765.25
3175.92771016259	1781.5
3177.91126850484	1766
3179.89429630312	1784.75
3181.87679379782	1779.25
3183.85876122903	1768
3185.84019883657	1787.5
3187.82110685997	1785
3189.80148553851	1789.75
3191.78133511116	1811.75
3193.76065581664	1784.25
3195.73944789337	1781.25
3197.7177115795	1806.5
3199.6954471129	1794.25
3201.67265473114	1797.25
3203.64933467153	1800.75
3205.62548717107	1804.5
3207.60111246648	1823.75
3209.57621079421	1796.5
3211.55078239041	1812
3213.52482749093	1818
3215.49834633133	1830
3217.4713391469	1806
3219.44380617262	1826.75
3221.41574764317	1836.75
3223.38716379296	1820.5
3225.35805485607	1841.25
3227.32842106631	1849
3229.29826265718	1833
3231.26757986187	1826.75
3233.2363729133	1850.75
3235.20464204405	1840.25
3237.17238748643	1850.5
3239.13960947243	1884.5
3241.10630823374	1867.75
3243.07248400174	1858.25
3245.03813700748	1884.25
3247.00326748177	1865.75
3248.96787565503	1874.25
3250.93196175742	1880.25
3252.89552601877	1875.5
3254.8585686686	1867.5
3256.82108993612	1875.75
3258.78309005022	1874.25
3260.74456923948	1882.75
3262.70552773215	1881
3264.66596575617	1878
3266.62588353916	1867.5
3268.58528130843	1882.25
3270.54415929094	1879
3272.50251771336	1910
3274.46035680201	1880.25
3276.4176767829	1891.25
3278.37447788171	1874
3280.33076032379	1902.75
3282.28652433416	1899.5
3284.24177013751	1903.75
3286.1964979582	1910.25
3288.15070802027	1914.25
3290.10440054741	1903.5
3292.05757576298	1906.75
3294.01023389001	1897
3295.96237515119	1915.25
3297.91399976887	1895.25
3299.86510796506	1904.75
3301.81569996142	1924.75
3303.76577597932	1884.75
3305.7153362397	1913.5
3307.66438096324	1932.5
3309.61291037024	1903
3311.56092468064	1883.75
3313.50842411404	1906
3315.45540888971	1915.25
3317.40187922656	1902
3319.34783534315	1908.5
3321.29327745768	1916.25
3323.23820578801	1885.5
3325.18262055164	1913.25
3327.1265219657	1886.5
3329.06991024699	1915.75
3331.01278561194	1906.75
3332.95514827662	1903.25
3334.89699845674	1901.25
3336.83833636766	1912
3338.77916222434	1913
3340.71947624143	1898
3342.65927863317	1896.75
3344.59856961346	1893.5
3346.53734939584	1908
3348.47561819344	1886.25
3350.41337621906	1889.75
3352.35062368513	1888.25
3354.28736080368	1870.5
3356.22358778637	1898.75
3358.15930484452	1887.5
3360.09451218904	1900.75
3362.02921003047	1910.5
3363.96339857898	1913.5
3365.89707804436	1904.25
3367.83024863602	1899.25
3369.76291056299	1893
3371.69506403389	1910.5
3373.62670925699	1895.5
3375.55784644016	1931.75
3377.4884757909	1912.5
3379.41859751629	1917
3381.34821182305	1926.75
3383.27731891749	1931.5
3385.20591900555	1929
3387.13401229276	1925.25
3389.06159898426	1947.5
3390.9886792848	1933.25
3392.91525339872	1932.75
3394.84132152998	1935
3396.76688388213	1958.75
3398.69194065833	1950.5
3400.61649206133	1946.5
3402.54053829348	1948.5
3404.46407955672	1928.5
3406.3871160526	1959.5
3408.30964798225	1940.75
3410.23167554639	1934.75
3412.15319894535	1932
3414.07421837904	1916.25
3415.99473404695	1936.25
3417.91474614817	1942.5
3419.83425488136	1958.25
3421.75326044479	1948
3423.67176303631	1946.25
3425.58976285332	1937.5
3427.50726009282	1927
3429.42425495143	1966.25
3431.34074762528	1965.75
3433.25673831012	1942
3435.17222720127	1941
3437.08721449362	1941.25
3439.00170038164	1916
3440.91568505936	1955.5
3442.82916872039	1945.5
3444.74215155791	1936
3446.65463376468	1940.75
3448.566615533	1919.25
3450.47809705476	1930.5
3452.3890785214	1952
3454.29956012393	1909.5
3456.20954205293	1952.25
3458.11902449853	1968
3460.02800765041	1947.25
3461.93649169784	1954
3463.84447682962	1965.25
3465.75196323412	1938.5
3467.65895109925	1939.5
3469.56544061249	1944.75
3471.47143196086	1909
3473.37692533093	1930.75
3475.28192090884	1933
3477.18641888026	1921
3479.09041943039	1936.25
3480.99392274402	1942.5
3482.89692900545	1918.5
3484.79943839853	1923.25
3486.70145110666	1922.75
3488.60296731277	1924.5
3490.50398719933	1937.75
3492.40451094836	1922.25
3494.30453874141	1911.5
3496.20407075956	1921.75
3498.10310718342	1956.25
3500.00164819315	1938.5