201.866871357051	703
204.754250281454	717.75
207.640596790938	712.25
210.525911876299	710.5
213.410196525689	715.25
216.293451724508	717
219.175678455485	712.75
222.056877698662	705.75
224.937050431388	710
227.816197628363	707.75
230.694320261602	716.25
233.571419300504	718.75
236.447495711764	711
239.322550459507	723.75
242.196584505182	725.25
245.069598807626	730.25
247.941594323078	735.75
250.812572005154	731.5
253.682532804884	727
256.551477670699	730.5
259.419407548456	722.25
262.286323381439	721.5
265.152226110364	723.5
268.017116673389	725
270.880996006115	718.25
273.743865041622	726.5
276.605724710436	721
279.466575940562	718.75
282.326419657496	723
285.1852567842	718.75
288.043088241157	725
290.899914946349	718.25
293.75573781526	719.5
296.610557760898	716.75
299.464375693817	723.75
302.317192522078	722.75
305.169009151297	723.75
308.019826484655	718.75
310.86964542287	721.5
313.718466864233	725
316.566291704614	729
319.413120837457	734
322.258955153804	723.75
325.103795542291	721.75
327.947642889128	727.5
330.79049807819	732
333.632361990927	728
336.473235506444	724.25
339.31311950145	720.25
342.152014850322	736.5
344.989922425062	728.5
347.826843095354	733
350.662777728528	731.75
353.497727189577	726
356.331692341195	722
359.164674043732	725.25
361.996673155267	727.75
364.827690531536	729
367.65772702602	727.75
370.486783489887	740.5
373.314860772047	735.75
376.14195971912	727.25
378.968081175466	739.75
381.793225983212	727.75
384.617394982201	734.75
387.44058901005	745
390.262808902131	747.5
393.08405549161	763
395.904329609395	772.25
398.723632084213	777
401.541963742569	774.25
404.359325408779	762.75
407.175717904938	754.5
409.991142050982	742.25
412.805598664665	750.75
415.619088561551	744
418.43161255505	745
421.243171456415	738.75
424.053766074758	745
426.863397217017	741.75
429.672065688024	744.25
432.479772290455	744.5
435.286517824879	743.5
438.092303089736	749.75
440.897128881359	751.5
443.70099599399	744
446.503905219761	760.75
449.305857348711	764.75
452.106853168796	758.5
454.906893465919	763
457.705979023885	746.5
460.504110624439	751.25
463.3012890473	748.75
466.097515070087	759.5
468.892789468424	743.25
471.687113015869	745.25
474.48048648395	739.75
477.272910642198	736.25
480.064386258109	744.25
482.854914097159	749.5
485.644494922839	746.5
488.433129496636	742.5
491.220818578047	744
494.007562924584	741.5
496.793363291785	744.75
499.578220433217	748
502.362135100473	745.25
505.145108043209	752.25
507.927140009098	746.5
510.708231743909	753
513.488383991433	735.5
516.267597493556	747
519.04587299022	755
521.82321121946	764.5
524.599612917398	762.75
527.375078818233	755.25
530.149609654287	757.25
532.923206155967	754.5
535.695869051804	756.25
538.467599068448	760
541.238396930665	749
544.008263361364	758.25
546.777199081578	748.75
549.545204810493	744
552.312281265436	751
555.078429161898	756.5
557.843649213533	751.5
560.607942132156	748
563.371308627753	744.25
566.133749408495	753.5
568.895265180756	751.25
571.655856649064	738.5
574.415524516189	751.5
577.174269483075	754.5
579.932092248884	751
582.688993510994	754.5
585.444973965023	747.5
588.200034304795	748.75
590.95417522237	749
593.70739740807	747.75
596.459701550433	750
599.21108833628	750
601.961558450668	746.25
604.711112576933	745.75
607.459751396673	747.25
610.207475589748	745.5
612.954285834338	751
615.700182806879	754.75
618.445167182101	748.5
621.189239633055	753
623.932400831087	745.5
626.674651445839	746.75
629.415992145303	746.5
632.156423595745	747.25
634.895946461813	752
637.634561406449	756
640.37226909096	747.75
643.109070174978	747.75
645.844965316508	746.75
648.579955171888	746
651.314040395846	757.25
654.047221641456	747.25
656.779499560176	750.75
659.510874801828	762
662.241348014642	754.75
664.97091984524	757.25
667.699590938606	752.75
670.427361938164	755.75
673.15423348573	749.25
675.880206221526	752.75
678.605280784206	750.75
681.329457810829	753.5
684.05273793692	758.5
686.775121796389	756.25
689.49661002163	760
692.217203243454	753.5
694.936902091144	757.75
697.655707192425	751.25
700.373619173493	757
703.09063865901	756.75
705.806766272093	753
708.522002634378	760.75
711.236348365946	762.5
713.94980408538	760
716.662370409762	754.5
719.374047954676	747.25
722.08483733419	755.75
724.794739160909	741
727.503754045949	761
730.21188259892	748.25
732.919125427998	759.5
735.625483139855	753
738.330956339723	760.25
741.035545631374	759.25
743.739251617106	754.25
746.44207489779	756.75
749.144016072852	745
751.845075740272	760.75
754.545254496603	752.75
757.244552936976	760.75
759.94297165508	759
762.640511243222	751.25
765.337172292249	755.25
768.032955391649	760.75
770.727861129482	766.25
773.421890092413	759.5
776.11504286572	758.75
778.807320033298	751.5
781.49872217765	749.75
784.18924987991	759.75
786.87890371984	773.5
789.567684275826	770.5
792.255592124908	755.5
794.94262784276	761.25
797.628792003703	781.75
800.314085180715	790.25
802.998507945427	803.75
805.682060868145	844.75
808.364744517821	881.75
811.046559462105	866
813.727506267311	824
816.407585498422	795
819.08679771913	772.5
821.765143491822	776
824.442623377563	769.75
827.119237936127	778
829.794987726003	794
832.469873304377	790
835.143895227167	798.5
837.817054048985	798.75
840.489350323205	802.75
843.160784601892	806
845.831357435894	786.5
848.501069374739	774.75
851.169920966753	782.5
853.837912758987	770.75
856.505045297232	774.5
859.171319126071	769.5
861.836734788823	760.75
864.501292827579	767.5
867.164993783208	765.75
869.827838195361	767.75
872.489826602454	769.75
875.150959541701	772.25
877.811237549104	765.75
880.470661159456	768.75
883.129230906357	765.5
885.786947322205	759.25
888.443810938206	762.75
891.099822284385	766.25
893.754981889586	763.25
896.409290281452	772.75
899.062747986485	773
901.715355529999	775.5
904.367113436154	766.75
907.01802222793	766
909.668082427172	768.25
912.317294554574	775
914.965659129659	770
917.613176670835	763.75
920.259847695364	768.25
922.90567271936	771.25
925.550652257825	761.25
928.194786824621	763
930.838076932512	775
933.480523093109	782.75
936.122125816953	782.75
938.762885613447	777.25
941.402802990899	779.5
944.041878456523	774
946.680112516428	778.25
949.31750567563	763.5
951.954058438081	767.5
954.589771306633	781
957.224644783048	778.25
959.858679368044	778.75
962.491875561238	779.75
965.12423386121	789.5
967.75575476545	812
970.386438770423	820.5
973.016286371501	821.5
975.645298063046	817.5
978.273474338355	789.75
980.900815689674	781
983.527322608243	783.75
986.152995584245	772.75
988.777835106834	777
991.401841664148	778.25
994.025015743307	775.5
996.647357830407	782.25
999.268868410534	779.75
1001.88954796777	779.75
1004.50939698518	776.75
1007.12841594484	778.25
1009.74660532783	788.25
1012.36396561423	782
1014.98049728314	774
1017.59620081267	781.5
1020.21107667995	779
1022.82512536112	773.25
1025.43834733138	784.25
1028.05074306493	788
1030.66231303501	779
1033.27305771392	786.5
1035.88297757299	785
1038.49207308257	791.75
1041.10034471211	793.75
1043.70779293008	788.75
1046.31441820402	792.5
1048.92022100052	792.25
1051.52520178525	793
1054.12936102295	778
1056.73269917742	778.5
1059.33521671154	798.25
1061.93691408729	784.25
1064.53779176571	796.75
1067.13785020694	785
1069.73708987022	783.25
1072.33551121386	782
1074.93311469528	778.75
1077.52990077103	782.5
1080.12586989674	776.75
1082.72102252714	773.25
1085.31535911611	787
1087.90888011663	787
1090.50158598078	788.75
1093.09347715979	787.25
1095.68455410403	785
1098.27481726296	783.5
1100.86426708523	787.25
1103.45290401857	786.75
1106.04072850991	777.25
1108.6277410053	783.75
1111.21394194993	783.75
1113.79933178816	792.25
1116.3839109635	788.25
1118.96767991862	781.25
1121.55063909539	792.75
1124.13278893477	784.25
1126.71412987696	786.25
1129.29466236132	789.5
1131.87438682637	780.5
1134.45330370982	786
1137.03141344858	791
1139.60871647872	798.25
1142.18521323554	807.75
1144.7609041535	809.75
1147.33578966629	813.5
1149.90987020676	826.75
1152.48314620702	827
1155.05561809835	823.75
1157.62728631125	830
1160.19815127545	839.75
1162.76821341988	851.25
1165.33747317271	872.5
1167.90593096133	860.25
1170.47358721235	846
1173.04044235163	825.25
1175.60649680425	812.25
1178.17175099454	799.75
1180.73620534607	790.5
1183.29986028165	798.5
1185.86271622336	798
1188.42477359249	795
1190.98603280964	789.5
1193.54649429462	784.25
1196.10615846653	781
1198.66502574372	784.75
1201.22309654385	794.25
1203.78037128378	792.25
1206.33685037971	788.75
1208.89253424709	799
1211.44742330063	791.5
1214.00151795438	808
1216.55481862163	809.25
1219.10732571497	814.25
1221.65903964631	809.75
1224.20996082683	804.75
1226.760089667	803.5
1229.30942657664	797.25
1231.85797196483	803
1234.40572623998	792
1236.95268980981	796
1239.49886308136	793.5
1242.04424646098	800.5
1244.58884035435	804.25
1247.13264516647	802.25
1249.67566130166	812.25
1252.21788916358	813.5
1254.75932915524	822
1257.29998167896	809.75
1259.83984713639	807.5
1262.37892592857	813.5
1264.91721845586	803.75
1267.45472511795	812.5
1269.9914463139	798.5
1272.52738244213	812.5
1275.0625339004	799
1277.59690108587	805.5
1280.130484395	814.75
1282.66328422367	799.75
1285.19530096712	803.5
1287.72653501993	806.75
1290.25698677608	818.75
1292.78665662894	819.25
1295.31554497125	810.25
1297.8436521951	819.25
1300.37097869203	816
1302.89752485292	822.5
1305.42329106805	822.75
1307.94827772713	820.5
1310.47248521921	821.25
1312.99591393279	822.5
1315.51856425575	824
1318.04043657536	834
1320.56153127836	829.5
1323.08184875083	849
1325.6013893783	845.5
1328.12015354572	874.5
1330.63814163744	869.75
1333.15535403727	849.25
1335.67179112839	850.75
1338.18745329347	839.5
1340.70234091454	829.5
1343.21645437314	829.25
1345.72979405019	827.5
1348.24236032607	827.5
1350.75415358059	844.75
1353.26517419303	847.5
1355.7754225421	862.25
1358.28489900594	859.25
1360.79360396218	848.25
1363.30153778787	848.75
1365.80870085955	844.25
1368.31509355319	838.5
1370.82071624424	844.5
1373.32556930762	847.5
1375.8296531177	837.5
1378.33296804832	835.25
1380.83551447282	840.25
1383.33729276399	828
1385.83830329408	829.5
1388.33854643489	827.75
1390.83802255762	827
1393.33673203301	821.75
1395.83467523128	816.25
1398.33185252211	823.75
1400.82826427471	822.75
1403.32391085777	822.25
1405.81879263947	822.25
1408.31290998752	825.25
1410.80626326908	808.5
1413.29885285087	816.25
1415.79067909909	826.25
1418.28174237944	822
1420.77204305717	815.25
1423.26158149702	827.5
1425.75035806323	837.5
1428.2383731196	828.25
1430.72562702942	846.25
1433.21212015554	847.25
1435.69785286028	856.25
1438.18282550555	864.75
1440.66703845275	849
1443.15049206284	860.25
1445.6331866963	868.5
1448.11512271316	871.75
1450.59630047298	874.25
1453.07672033486	879
1455.55638265748	898.75
1458.03528779902	902.75
1460.51343611725	916.5
1462.99082796946	895.75
1465.46746371252	890.5
1467.94334370285	865
1470.41846829642	856.25
1472.89283784878	852.25
1475.36645271503	844.5
1477.83931324983	846.75
1480.31141980743	835.75
1482.78277274164	834.75
1485.25337240583	834
1487.72321915297	827.5
1490.19231333557	836
1492.66065530578	839.75
1495.12824541525	836.75
1497.5950840153	837
1500.06117145678	836.25
1502.52650809014	833.5
1504.99109426543	838
1507.45493033227	835.75
1509.91801663992	827.25
1512.38035353717	835.5
1514.84194137248	836.75
1517.30278049386	840.75
1519.76287124894	841.25
1522.22221398497	833.25
1524.68080904876	840.75
1527.13865678681	839.5
1529.59575754514	841
1532.05211166945	840.75
1534.50771950503	842.5
1536.96258139678	842.5
1539.41669768924	854.5
1541.87006872656	840.25
1544.32269485252	839
1546.77457641051	842
1549.22571374357	847
1551.67610719434	847.25
1554.12575710513	858.25
1556.57466381785	847.5
1559.02282767408	850.5
1561.47024901499	861
1563.91692818144	856.75
1566.3628655139	859.75
1568.80806135249	841
1571.252516037	861.75
1573.6962299068	865.75
1576.13920330099	860.5
1578.58143655828	858.5
1581.02293001704	856.5
1583.46368401528	865.25
1585.90369889071	859.75
1588.34297498065	861.25
1590.7815126221	866
1593.21931215173	856.25
1595.65637390588	866.5
1598.09269822053	853.5
1600.52828543135	859.5
1602.96313587367	860.75
1605.3972498825	852.25
1607.83062779252	864
1610.26326993808	851.25
1612.69517665322	866.5
1615.12634827165	857.25
1617.55678512676	860.5
1619.98648755163	851.5
1622.41545587902	854.25
1624.84369044138	858.75
1627.27119157085	851.75
1629.69795959924	862.75
1632.12399485808	843
1634.54929767859	841.5
1636.97386839165	861
1639.39770732789	847.75
1641.8208148176	852.75
1644.24319119078	851.25
1646.66483677715	842
1649.0857519061	861.75
1651.50593690677	846.5
1653.92539210795	855.75
1656.3441178382	847.75
1658.76211442575	851
1661.17938219855	845.5
1663.59592148428	865
1666.01173261032	844.25
1668.42681590377	864.25
1670.84117169145	849.5
1673.25480029991	852.75
1675.66770205541	862
1678.07987728393	855.25
1680.49132631119	857
1682.90204946263	862.5
1685.31204706342	876.75
1687.72131943846	853.25
1690.1298669124	862.5
1692.53768980957	863
1694.94478845411	854.75
1697.35116316982	875.5
1699.75681428031	864
1702.16174210887	867
1704.56594697858	854.75
1706.96942921222	860.25
1709.37218913235	865.5
1711.77422706125	863.5
1714.17554332098	869.75
1716.5761382333	867
1718.97601211977	870.75
1721.37516530169	855.25
1723.77359810006	862.25
1726.17131083572	857
1728.56830382922	869.5
1730.96457740087	860.5
1733.36013187075	861.75
1735.75496755868	863.75
1738.14908478428	860.75
1740.54248386689	855.75
1742.93516512565	861.5
1745.32712887946	870.25
1747.71837544697	845.25
1750.10890514662	860
1752.49871829661	856.25
1754.88781521492	862
1757.27619621929	858.25
1759.66386162726	856
1762.05081175612	857.5
1764.43704692297	866.5
1766.82256744465	867.75
1769.20737363782	881.25
1771.59146581887	867.75
1773.97484430405	870.5
1776.35750940932	864.5
1778.73946145048	873.75
1781.12070074309	873
1783.50122760249	864.25
1785.88104234385	869.25
1788.26014528209	874.25
1790.63853673196	872.5
1793.01621700796	859.5
1795.39318642443	876.5
1797.76944529549	885
1800.14499393503	879.75
1802.51983265681	874.25
1804.8939617743	866
1807.26738160085	875.25
1809.64009244957	880.75
1812.01209463339	883.75
1814.38338846504	883.5
1816.75397425706	877.75
1819.12385232181	876.25
1821.49302297142	875.5
1823.86148651789	877.5
1826.22924327299	880
1828.59629354831	880.75
1830.96263765526	872
1833.32827590507	874
1835.69320860877	884.5
1838.05743607724	871.25
1840.42095862113	883.25
1842.78377655097	880.75
1845.14589017707	895.5
1847.50729980956	884.5
1849.86800575843	879.5
1852.22800833346	883.5
1854.58730784427	887
1856.94590460032	883.5
1859.30379891087	878
1861.66099108503	880.5
1864.01748143175	886.25
1866.37327025978	887.25
1868.72835787773	876.75
1871.08274459403	884.25
1873.43643071697	886.75
1875.78941655464	902.25
1878.14170241498	884.75
1880.4932886058	885.5
1882.84417543469	891.25
1885.19436320915	901.75
1887.54385223646	889.75
1889.89264282378	904
1892.24073527809	897
1894.58812990625	898
1896.93482701493	904.5
1899.28082691067	899.75
1901.62612989984	909.25
1903.97073628868	906.25
1906.31464638326	916
1908.6578604895	907.25
1911.00037891321	910.5
1913.34220196	915.25
1915.68332993537	918.5
1918.02376314468	910.75
1920.36350189311	910
1922.70254648573	914.75
1925.04089722744	912.25
1927.37855442303	902
1929.71551837715	908
1932.05178939426	899.75
1934.38736777876	907
1936.72225383484	914.5
1939.0564478666	931.5
1941.38995017799	926.25
1943.72276107283	917.25
1946.05488085479	911.75
1948.38630982744	907.25
1950.71704829419	917.5
1953.04709655832	922.25
1955.376454923	912.75
1957.70512369126	908.25
1960.03310316599	921.25
1962.36039364999	895.5
1964.68699544589	910.75
1967.01290885622	915.75
1969.33813418338	921.75
1971.66267172965	918.5
1973.98652179718	910
1976.309684688	932.25
1978.63216070402	910.75
1980.95395014705	920.5
1983.27505331873	921.5
1985.59547052063	925.25
1987.9152020542	924
1990.23424822074	919.25
1992.55260932146	924.5
1994.87028565746	919.75
1997.18727752968	920.75
1999.503585239	926.75
2001.81920908618	915.5
2004.13414937184	929.25
2006.44840639651	941.75
2008.7619804606	933.75
2011.07487186442	929.25
2013.38708090815	932.5
2015.6986078919	929.75
2018.00945311564	949.25
2020.31961687923	944.75
2022.62909948246	943.5
2024.93790122498	939.5
2027.24602240636	943
2029.55346332604	951.75
2031.86022428337	941
2034.16630557761	941.25
2036.47170750791	951.75
2038.77643037331	946.5
2041.08047447275	946.5
2043.38384010509	946.75
2045.68652756907	950.5
2047.98853716335	952
2050.28986918648	950.5
2052.59052393692	955.75
2054.89050171302	952.5
2057.18980281306	949.5
2059.4884275352	967.25
2061.78637617753	953.75
2064.08364903802	934.25
2066.38024641457	948
2068.67616860497	956.25
2070.97141590694	948.5
2073.26598861809	955.25
2075.55988703595	942.75
2077.85311145796	943
2080.14566218145	959
2082.43753950371	961
2084.72874372188	961
2087.01927513307	950.5
2089.30913403428	944.75
2091.59832072241	945.25
2093.88683549429	961.5
2096.17467864666	959.25
2098.46185047619	956.25
2100.74835127944	957.5
2103.03418135292	947.25
2105.31934099303	936
2107.6038304961	952.75
2109.88765015838	953.25
2112.17080027602	961
2114.45328114513	968
2116.7350930617	956
2119.01623632165	966.5
2121.29671122085	952
2123.57651805505	967
2125.85565711996	962
2128.13412871117	970.75
2130.41193312424	956
2132.68907065462	970.5
2134.96554159771	970.5
2137.24134624881	975.25
2139.51648490317	974.25
2141.79095785593	986
2144.0647654022	982.75
2146.33790783698	983.5
2148.61038545524	971.5
2150.88219855182	990
2153.15334742154	975
2155.42383235911	999.75
2157.6936536592	998.5
2159.9628116164	976.75
2162.23130652522	975.25
2164.49913868011	979.75
2166.76630837544	986.75
2169.03281590552	974.25
2171.2986615646	989
2173.56384564685	981.25
2175.82836844637	997.75
2178.0922302572	996.75
2180.35543137332	975.75
2182.61797208862	1001.75
2184.87985269695	971.5
2187.14107349208	979.75
2189.40163476773	986
2191.66153681753	983.25
2193.92077993507	982.25
2196.17936441386	991
2198.43729054735	996.75
2200.69455862894	985.5
2202.95116895194	1000.5
2205.20712180962	974.75
2207.46241749519	992.75
2209.71705630179	996.75
2211.97103852248	999.25
2214.2243644503	991.25
2216.47703437819	997.25
2218.72904859905	996.5
2220.98040740571	990.75
2223.23111109095	992.25
2225.4811599475	989.25
2227.73055426799	998.25
2229.97929434504	998
2232.22738047118	988
2234.47481293889	1005.25
2236.72159204058	1002.25
2238.96771806864	1003.25
2241.21319131536	1006.75
2243.458012073	985
2245.70218063374	992
2247.94569728973	1001.25
2250.18856233304	989
2252.4307760557	1015.25
2254.67233874967	1004.5
2256.91325070687	990.5
2259.15351221915	1004.75
2261.39312357831	992.5
2263.63208507611	997.75
2265.87039700422	998.25
2268.1080596543	1007.25
2270.34507331792	989
2272.5814382866	1014
2274.81715485183	1005.5
2277.05222330502	1020.25
2279.28664393755	996.25
2281.52041704072	1002.5
2283.75354290581	1015.5
2285.98602182401	1004.25
2288.21785408648	1016.5
2290.44903998434	1001.25
2292.67957980862	1021
2294.90947385033	1007.5
2297.1387224004	1005.25
2299.36732574975	1018
2301.59528418921	997.75
2303.82259800958	1020.25
2306.04926750158	1020.25
2308.27529295593	996.5
2310.50067466325	1012
2312.72541291412	1015.5
2314.9495079991	1009.75
2317.17296020866	1022.25
2319.39576983323	1017.75
2321.61793716322	1025.75
2323.83946248894	1007
2326.06034610069	1030.5
2328.28058828871	1015.75
2330.50018934317	1022.25
2332.7191495542	1026
2334.93746921192	1020.75
2337.15514860633	1019.5
2339.37218802743	1013.25
2341.58858776516	1017.25
2343.80434810941	1019.75
2346.01946935001	1030
2348.23395177675	1023.25
2350.44779567939	1010.5
2352.66100134759	1021
2354.87356907101	1013.25
2357.08549913925	1012.75
2359.29679184185	1022.5
2361.50744746829	1021
2363.71746630804	1030.75
2365.92684865048	1017.25
2368.13559478499	1007.25
2370.34370500083	1013.75
2372.55117958727	1015.75
2374.75801883352	1024.5
2376.96422302874	1022.5
2379.16979246202	1014.25
2381.37472742243	1027.25
2383.57902819898	1007.75
2385.78269508063	1008.75
2387.98572835629	1025.25
2390.18812831482	1018.75
2392.38989524505	1009.75
2394.59102943573	1023.75
2396.79153117559	1023.75
2398.9914007533	1023.25
2401.19063845748	1004.5
2403.38924457672	1013.75
2405.58721939951	1030.75
2407.78456321435	1016.5
2409.98127630966	1017
2412.17735897382	1030.25
2414.37281149517	1024.75
2416.56763416198	1028.5
2418.76182726249	1035.5
2420.95539108487	1019.5
2423.14832591726	1015.25
2425.34063204776	1013.75
2427.53230976439	1025
2429.72335935513	1025
2431.91378110795	1031.75
2434.10357531071	1018
2436.29274225125	1010.5
2438.48128221739	1013
2440.66919549683	1013.25
2442.8564823773	1015.5
2445.04314314641	1005.25
2447.22917809176	1029.25
2449.4145875009	1027
2451.59937166131	1024
2453.78353086044	1017.5
2455.96706538568	1008.25
2458.14997552436	1012.25
2460.33226156379	1015.25
2462.51392379119	1029.75
2464.69496249376	1008.25
2466.87537795862	1016.25
2469.05517047288	1013.75
2471.23434032357	1009.25
2473.41288779767	1016.75
2475.59081318211	1012.5
2477.76811676378	1022.5
2479.9447988295	1009.5
2482.12085966605	1007.5
2484.29629956016	1003
2486.4711187985	1031.25
2488.64531766769	1012.5
2490.8188964543	1003.5
2492.99185544484	1028.25
2495.16419492579	1013.75
2497.33591518353	999.75
2499.50701650444	1009.5
2501.67749917482	1024.25
2503.84736348091	1014
2506.01660970891	1005
2508.18523814496	1011.5
2510.35324907514	1019.25
2512.52064278551	1018.25
2514.68741956201	1018
2516.85357969058	1010.25
2519.01912345709	1029.5
2521.18405114735	1026.5
2523.34836304711	1025.5
2525.51205944208	1010
2527.6751406179	1026.25
2529.83760686016	1025.25
2531.99945845439	1016.5
2534.16069568606	1024.25
2536.3213188406	1013
2538.48132820336	1022
2540.64072405965	1019.75
2542.79950669471	1021
2544.95767639373	1026
2547.11523344184	1037.25
2549.27217812411	1018.25
2551.42851072555	1023.5
2553.58423153111	1031.25
2555.73934082569	1027.25
2557.89383889412	1025.25
2560.04772602118	1027
2562.20100249158	1013
2564.35366858996	1017.25
2566.50572460093	1024.5
2568.65717080901	1015.75
2570.80800749867	1030.75
2572.95823495433	1022
2575.10785346031	1027.75
2577.25686330093	1011.25
2579.40526476038	1012.25
2581.55305812282	1016.5
2583.70024367237	1002.5
2585.84682169303	1018.25
2587.99279246879	1022
2590.13815628354	1019.75
2592.28291342112	1018.25
2594.42706416531	1014
2596.5706087998	1012.25
2598.71354760826	1025.75
2600.85588087425	1024
2602.99760888127	1012.5
2605.13873191278	1011.5
2607.27925025214	1019
2609.41916418269	1022.5
2611.55847398764	1017
2613.69717995017	1023.5
2615.83528235339	1038
2617.97278148034	1017.25
2620.10967761398	1011.5
2622.2459710372	1030
2624.38166203284	1004.5
2626.51675088365	1014.25
2628.65123787231	1018.25
2630.78512328145	1019.25
2632.9184073936	1030.75
2635.05109049124	1024.25
2637.18317285676	1018.5
2639.31465477248	1028.25
2641.44553652067	1021
2643.5758183835	1016.5
2645.70550064309	1023
2647.83458358144	1025.25
2649.96306748053	1029.25
2652.09095262223	1035.25
2654.21823928836	1022.5
2656.34492776063	1029.25
2658.47101832071	1027.5
2660.59651125015	1025.5
2662.72140683047	1031.25
2664.84570534309	1024.5
2666.96940706934	1020.75
2669.0925122905	1019.75
2671.21502128773	1029
2673.33693434215	1031.5
2675.45825173479	1031
2677.57897374658	1045.75
2679.69910065839	1025
2681.818632751	1026.75
2683.93757030511	1035.75
2686.05591360133	1019.25
2688.17366292021	1030
2690.29081854218	1035
2692.40738074762	1030.75
2694.52334981681	1032.5
2696.63872602995	1034.25
2698.75350966713	1040
2700.86770100841	1034.75
2702.98130033371	1031.25
2705.09430792289	1029.5
2707.20672405571	1045.5
2709.31854901185	1050.25
2711.42978307091	1055.5
2713.54042651238	1051.75
2715.65047961567	1070.25
2717.7599426601	1067
2719.86881592491	1070.75
2721.97709968924	1069.5
2724.08479423213	1067.75
2726.19189983255	1069.25
2728.29841676934	1066.25
2730.4043453213	1072
2732.5096857671	1052.5
2734.61443838532	1054.5
2736.71860345444	1046.5
2738.82218125286	1060.5
2740.92517205889	1044.75
2743.02757615072	1053
2745.12939380646	1020.25
2747.23062530411	1045
2749.33127092159	1054.5
2751.4313309367	1041.75
2753.53080562716	1050
2755.62969527058	1052.5
2757.72800014448	1035
2759.82572052625	1042
2761.92285669323	1049
2764.0194089226	1044.25
2766.11537749147	1059.75
2768.21076267686	1042.25
2770.30556475566	1041.25
2772.39978400465	1051.5
2774.49342070054	1042
2776.58647511991	1029.5
2778.67894753923	1057
2780.77083823487	1046.5
2782.8621474831	1044.25
2784.95287556007	1051.25
2787.04302274184	1042.25
2789.13258930433	1049.75
2791.22157552338	1038.75
2793.30998167471	1039.5
2795.39780803392	1058.25
2797.4850548765	1055.25
2799.57172247786	1034
2801.65781111324	1039
2803.74332105781	1049.25
2805.82825258661	1052.25
2807.91260597457	1046
2809.9963814965	1053
2812.07957942711	1071
2814.16220004096	1045
2816.24424361252	1058
2818.32571041614	1090.75
2820.40660072604	1063.5
2822.48691481631	1075.5
2824.56665296098	1092.75
2826.64581543388	1088.75
2828.72440250876	1119.75
2830.80241445925	1135
2832.87985155885	1185
2834.95671408093	1232.25
2837.03300229875	1275.75
2839.10871648544	1300.25
2841.18385691399	1299.75
2843.25842385729	1276.5
2845.33241758808	1208.75
2847.40583837898	1185
2849.4786865025	1184.25
2851.550962231	1165.75
2853.6226658367	1168.25
2855.69379759173	1155
2857.76435776806	1184
2859.83434663753	1233
2861.90376447184	1288
2863.97261154259	1388.5
2866.0408881212	1445.75
2868.10859447901	1455
2870.17573088717	1444.25
2872.24229761673	1467.75
2874.30829493859	1476.75
2876.37372312352	1490.25
2878.43858244215	1539
2880.50287316496	1573.75
2882.56659556231	1577.25
2884.62974990439	1578
2886.69233646129	1554.5
2888.75435550293	1511.75
2890.81580729909	1496
2892.87669211941	1463.5
2894.93701023339	1444
2896.99676191039	1431.25
2899.05594741961	1431.5
2901.1145670301	1431.5
2903.1726210108	1475.75
2905.23010963045	1497.25
2907.28703315768	1483.75
2909.34339186096	1442.25
2911.39918600861	1422.25
2913.45441586879	1395
2915.50908170952	1382.5
2917.56318379867	1387.5
2919.61672240395	1396
2921.66969779291	1404
2923.72211023295	1387.25
2925.77395999134	1384
2927.82524733515	1368.25
2929.87597253132	1334
2931.92613584663	1293.25
2933.97573754769	1265.75
2936.02477790097	1231
2938.07325717276	1218.75
2940.1211756292	1212
2942.16853353626	1227.5
2944.21533115976	1233.5
2946.26156876536	1292.75
2948.30724661853	1327.75
2950.3523649846	1384.75
2952.39692412872	1401
2954.44092431587	1419.75
2956.48436581089	1449.25
2958.52724887843	1501
2960.56957378296	1534
2962.6113407888	1538.5
2964.65255016011	1474.25
2966.69320216083	1421.5
2968.73329705479	1336.5
2970.77283510559	1287.25
2972.81181657671	1245.5
2974.8502417314	1209.25
2976.88811083279	1188.5
2978.92542414378	1152.25
2980.96218192713	1123.25
2982.99838444541	1137.5
2985.034031961	1122.75
2987.06912473612	1126
2989.1036630328	1109.25
2991.13764711288	1105.5
2993.17107723804	1096
2995.20395366974	1100.5
2997.23627666931	1105
2999.26804649782	1098.25
3001.29926341624	1102.5
3003.32992768528	1105.25
3005.3600395655	1098.25
3007.38959931726	1097.25
3009.41860720076	1097.75
3011.44706347595	1094.5
3013.47496840263	1115
3015.50232224041	1107.25
3017.5291252487	1099.5
3019.5553776867	1093.75
3021.58107981344	1108.75
3023.60623188773	1117.5
3025.63083416822	1096.5
3027.65488691331	1115.25
3029.67839038125	1116.75
3031.70134483007	1096.75
3033.72375051759	1102.5
3035.74560770144	1102
3037.76691663907	1098.75
3039.78767758768	1108.75
3041.80789080431	1114
3043.82755654577	1108.75
3045.84667506867	1115.5
3047.8652466294	1107.75
3049.88327148418	1111
3051.90074988899	1107.25
3053.91768209961	1105.75
3055.9340683716	1109
3057.94990896033	1109.25
3059.96520412095	1101.5
3061.97995410838	1121.25
3063.99415917734	1116.75
3066.00781958234	1116
3068.02093557766	1116.75
3070.03350741738	1116.25
3072.04553535535	1105
3074.05701964521	1124.25
3076.06796054036	1112.25
3078.078358294	1100.5
3080.08821315912	1118.25
3082.09752538846	1107.75
3084.10629523454	1106.25
3086.11452294967	1120
3088.12220878592	1098.5
3090.12935299515	1102.25
3092.13595582898	1112.25
3094.1420175388	1126
3096.14753837579	1105.75
3098.15251859088	1106
3100.15695843477	1107.5
3102.16085815793	1104.75
3104.16421801061	1122.25
3106.16703824282	1108
3108.16931910432	1110.5
3110.17106084464	1125.25
3112.17226371308	1125.75
3114.17292795872	1112.25
3116.17305383034	1119.25
3118.17264157657	1130.5
3120.17169144571	1120.25
3122.17020368587	1110.25
3124.16817854492	1116.25
3126.16561627044	1111.5
3128.16251710982	1132.25
3130.15888131017	1108.25
3132.15470911837	1119.75
3134.15000078104	1126.75
3136.14475654455	1122
3138.13897665502	1137.5
3140.13266135835	1131.75
3142.12581090014	1125.5
3144.11842552577	1127.5
3146.11050548036	1136
3148.10205100875	1121.5
3150.09306235557	1141
3152.08353976515	1150.5
3154.07348348158	1131.5
3156.06289374869	1129.5
3158.05177081006	1126
3160.04011490899	1129
3162.02792628852	1148.75
3164.01520519145	1144.75
3166.00195186029	1143
3167.98816653728	1152.75
3169.97384946442	1134.75
3171.95900088344	1147
3173.94362103577	1138.75
3175.92771016259	1130.5
3177.91126850484	1137.75
3179.89429630312	1146
3181.87679379782	1144.75
3183.85876122903	1154.25
3185.84019883657	1150.75
3187.82110685997	1149.5
3189.80148553851	1138.75
3191.78133511116	1152.75
3193.76065581664	1143
3195.73944789337	1130.75
3197.7177115795	1145.75
3199.6954471129	1151.5
3201.67265473114	1128.5
3203.64933467153	1137
3205.62548717107	1148.75
3207.60111246648	1163.25
3209.57621079421	1137.75
3211.55078239041	1153.25
3213.52482749093	1143.25
3215.49834633133	1157.75
3217.4713391469	1151.75
3219.44380617262	1142.5
3221.41574764317	1145
3223.38716379296	1134.25
3225.35805485607	1139
3227.32842106631	1158.25
3229.29826265718	1160.75
3231.26757986187	1141.25
3233.2363729133	1152
3235.20464204405	1147.25
3237.17238748643	1155.5
3239.13960947243	1150.25
3241.10630823374	1177.25
3243.07248400174	1168
3245.03813700748	1165.75
3247.00326748177	1159.5
3248.96787565503	1159.75
3250.93196175742	1158.5
3252.89552601877	1170
3254.8585686686	1151.75
3256.82108993612	1171
3258.78309005022	1173.25
3260.74456923948	1156
3262.70552773215	1153.75
3264.66596575617	1161
3266.62588353916	1163.25
3268.58528130843	1168.5
3270.54415929094	1158
3272.50251771336	1154.75
3274.46035680201	1184.75
3276.4176767829	1172.75
3278.37447788171	1168.25
3280.33076032379	1175.5
3282.28652433416	1163
3284.24177013751	1153.75
3286.1964979582	1172
3288.15070802027	1169.75
3290.10440054741	1168.25
3292.05757576298	1150.75
3294.01023389001	1164.5
3295.96237515119	1185.75
3297.91399976887	1177.25
3299.86510796506	1175
3301.81569996142	1182.25
3303.76577597932	1169.5
3305.7153362397	1157.5
3307.66438096324	1173.75
3309.61291037024	1182.25
3311.56092468064	1172
3313.50842411404	1182.25
3315.45540888971	1195
3317.40187922656	1173
3319.34783534315	1165.75
3321.29327745768	1161.25
3323.23820578801	1177.75
3325.18262055164	1188.5
3327.1265219657	1179.25
3329.06991024699	1161.75
3331.01278561194	1161.75
3332.95514827662	1168.75
3334.89699845674	1187
3336.83833636766	1179.5
3338.77916222434	1165
3340.71947624143	1179.5
3342.65927863317	1172
3344.59856961346	1184.25
3346.53734939584	1192
3348.47561819344	1175.75
3350.41337621906	1181.75
3352.35062368513	1207
3354.28736080368	1182.5
3356.22358778637	1170.25
3358.15930484452	1175.25
3360.09451218904	1180.25
3362.02921003047	1188.25
3363.96339857898	1175
3365.89707804436	1188.75
3367.83024863602	1177.25
3369.76291056299	1187.5
3371.69506403389	1183.5
3373.62670925699	1175.5
3375.55784644016	1180.25
3377.4884757909	1165.25
3379.41859751629	1186.5
3381.34821182305	1194.25
3383.27731891749	1192
3385.20591900555	1168.25
3387.13401229276	1189.25
3389.06159898426	1177
3390.9886792848	1192.25
3392.91525339872	1187.25
3394.84132152998	1199
3396.76688388213	1191
3398.69194065833	1178
3400.61649206133	1191
3402.54053829348	1190.75
3404.46407955672	1190.5
3406.3871160526	1190.25
3408.30964798225	1187.25
3410.23167554639	1192.25
3412.15319894535	1189.5
3414.07421837904	1178.25
3415.99473404695	1174.25
3417.91474614817	1177.25
3419.83425488136	1188.25
3421.75326044479	1202.75
3423.67176303631	1198
3425.58976285332	1187.25
3427.50726009282	1211.25
3429.42425495143	1198.75
3431.34074762528	1190.5
3433.25673831012	1204.75
3435.17222720127	1193
3437.08721449362	1184
3439.00170038164	1195.75
3440.91568505936	1177.5
3442.82916872039	1200.25
3444.74215155791	1208.5
3446.65463376468	1195.25
3448.566615533	1192
3450.47809705476	1201
3452.3890785214	1188.25
3454.29956012393	1181.75
3456.20954205293	1206.25
3458.11902449853	1201
3460.02800765041	1202.25
3461.93649169784	1188.5
3463.84447682962	1199.5
3465.75196323412	1195.75
3467.65895109925	1178.5
3469.56544061249	1185.75
3471.47143196086	1181
3473.37692533093	1191.75
3475.28192090884	1187
3477.18641888026	1194
3479.09041943039	1199
3480.99392274402	1185.75
3482.89692900545	1198
3484.79943839853	1192.75
3486.70145110666	1183.5
3488.60296731277	1184.25
3490.50398719933	1213
3492.40451094836	1199
3494.30453874141	1180.25
3496.20407075956	1192.25
3498.10310718342	1202.75
3500.00164819315	1178.5