201.866871357051	656.25
204.754250281454	655
207.640596790938	653.5
210.525911876299	652.75
213.410196525689	653.75
216.293451724508	652
219.175678455485	659
222.056877698662	663.75
224.937050431388	661.75
227.816197628363	653.25
230.694320261602	660
233.571419300504	656.25
236.447495711764	658
239.322550459507	660.5
242.196584505182	660.5
245.069598807626	664
247.941594323078	662.25
250.812572005154	662.25
253.682532804884	666
256.551477670699	677.25
259.419407548456	670
262.286323381439	677.5
265.152226110364	661.5
268.017116673389	660.25
270.880996006115	657.25
273.743865041622	664.75
276.605724710436	667.25
279.466575940562	671.5
282.326419657496	669
285.1852567842	670.5
288.043088241157	668.25
290.899914946349	673.25
293.75573781526	666.75
296.610557760898	669.75
299.464375693817	671.25
302.317192522078	675
305.169009151297	666.25
308.019826484655	672.75
310.86964542287	668.75
313.718466864233	665
316.566291704614	669
319.413120837457	673.5
322.258955153804	679.75
325.103795542291	670.75
327.947642889128	677.5
330.79049807819	672.25
333.632361990927	672.25
336.473235506444	669.25
339.31311950145	672.25
342.152014850322	674.5
344.989922425062	682
347.826843095354	670
350.662777728528	674.5
353.497727189577	676
356.331692341195	668.75
359.164674043732	676.5
361.996673155267	673
364.827690531536	678.25
367.65772702602	674.5
370.486783489887	676.25
373.314860772047	672
376.14195971912	683.5
378.968081175466	687
381.793225983212	684.5
384.617394982201	682.75
387.44058901005	686.75
390.262808902131	688.75
393.08405549161	687.75
395.904329609395	691.5
398.723632084213	697.25
401.541963742569	698
404.359325408779	690.5
407.175717904938	683.5
409.991142050982	686.5
412.805598664665	685
415.619088561551	687
418.43161255505	683.25
421.243171456415	682.5
424.053766074758	684
426.863397217017	693
429.672065688024	690.5
432.479772290455	682
435.286517824879	686.75
438.092303089736	686
440.897128881359	683.5
443.70099599399	694.75
446.503905219761	691.75
449.305857348711	690.75
452.106853168796	695.5
454.906893465919	696.25
457.705979023885	690.5
460.504110624439	697.5
463.3012890473	689.75
466.097515070087	690
468.892789468424	692.25
471.687113015869	690.75
474.48048648395	693.75
477.272910642198	684.5
480.064386258109	690.75
482.854914097159	689.5
485.644494922839	701.25
488.433129496636	692
491.220818578047	696
494.007562924584	687.75
496.793363291785	689
499.578220433217	689.25
502.362135100473	698.25
505.145108043209	694.75
507.927140009098	694.75
510.708231743909	688.75
513.488383991433	704.75
516.267597493556	691.25
519.04587299022	694.5
521.82321121946	701
524.599612917398	699.75
527.375078818233	701.25
530.149609654287	706.5
532.923206155967	702.75
535.695869051804	688.25
538.467599068448	699.75
541.238396930665	701
544.008263361364	698.75
546.777199081578	692.75
549.545204810493	698.25
552.312281265436	698.75
555.078429161898	699.75
557.843649213533	699
560.607942132156	692.75
563.371308627753	695
566.133749408495	695.25
568.895265180756	697.5
571.655856649064	700
574.415524516189	703.75
577.174269483075	711.5
579.932092248884	701
582.688993510994	705.25
585.444973965023	711.75
588.200034304795	700.25
590.95417522237	700.5
593.70739740807	701
596.459701550433	700.25
599.21108833628	704.75
601.961558450668	699.5
604.711112576933	704.25
607.459751396673	703.5
610.207475589748	706.75
612.954285834338	705.5
615.700182806879	707
618.445167182101	707.25
621.189239633055	700.5
623.932400831087	706.5
626.674651445839	699.25
629.415992145303	697.5
632.156423595745	693
634.895946461813	701.5
637.634561406449	697.5
640.37226909096	697.5
643.109070174978	692.5
645.844965316508	697
648.579955171888	701.75
651.314040395846	697.5
654.047221641456	694.75
656.779499560176	699
659.510874801828	697.25
662.241348014642	701.5
664.97091984524	695.75
667.699590938606	707.25
670.427361938164	706.25
673.15423348573	699.25
675.880206221526	703.75
678.605280784206	702.25
681.329457810829	700.5
684.05273793692	692.25
686.775121796389	707.5
689.49661002163	701.75
692.217203243454	696.5
694.936902091144	705
697.655707192425	695.25
700.373619173493	697.75
703.09063865901	704.75
705.806766272093	702
708.522002634378	702.75
711.236348365946	703.25
713.94980408538	698.25
716.662370409762	698
719.374047954676	694.25
722.08483733419	693.25
724.794739160909	700
727.503754045949	701.75
730.21188259892	698.75
732.919125427998	713.25
735.625483139855	714.5
738.330956339723	705
741.035545631374	710.25
743.739251617106	707.5
746.44207489779	708.25
749.144016072852	703.25
751.845075740272	703
754.545254496603	707
757.244552936976	713.5
759.94297165508	706.75
762.640511243222	709
765.337172292249	710.25
768.032955391649	708.25
770.727861129482	704.25
773.421890092413	706.25
776.11504286572	699.75
778.807320033298	706
781.49872217765	715.25
784.18924987991	703.25
786.87890371984	712.25
789.567684275826	701.75
792.255592124908	708.5
794.94262784276	713.25
797.628792003703	708.25
800.314085180715	720.75
802.998507945427	728.25
805.682060868145	743
808.364744517821	752.25
811.046559462105	743.75
813.727506267311	728
816.407585498422	713.5
819.08679771913	723.25
821.765143491822	712.75
824.442623377563	710.25
827.119237936127	714.5
829.794987726003	713.5
832.469873304377	716
835.143895227167	713
837.817054048985	712.75
840.489350323205	725
843.160784601892	719.25
845.831357435894	713
848.501069374739	721
851.169920966753	715.5
853.837912758987	718
856.505045297232	704.25
859.171319126071	709.5
861.836734788823	713.25
864.501292827579	712.25
867.164993783208	712.5
869.827838195361	712.25
872.489826602454	709.25
875.150959541701	706.5
877.811237549104	709.75
880.470661159456	710
883.129230906357	707.75
885.786947322205	709.75
888.443810938206	714.5
891.099822284385	713
893.754981889586	702.5
896.409290281452	713.75
899.062747986485	714
901.715355529999	709
904.367113436154	708.25
907.01802222793	709.75
909.668082427172	710.5
912.317294554574	714.25
914.965659129659	713
917.613176670835	707.25
920.259847695364	716.25
922.90567271936	720
925.550652257825	712.25
928.194786824621	717.75
930.838076932512	721
933.480523093109	707.5
936.122125816953	719.5
938.762885613447	717
941.402802990899	722
944.041878456523	721.25
946.680112516428	720
949.31750567563	715.5
951.954058438081	722.5
954.589771306633	722.25
957.224644783048	717.25
959.858679368044	727.25
962.491875561238	715
965.12423386121	725.75
967.75575476545	723.5
970.386438770423	732.25
973.016286371501	744.5
975.645298063046	734.25
978.273474338355	721.75
980.900815689674	724.75
983.527322608243	719.5
986.152995584245	714.75
988.777835106834	716.5
991.401841664148	710.5
994.025015743307	722.25
996.647357830407	717
999.268868410534	716
1001.88954796777	720.25
1004.50939698518	720.75
1007.12841594484	724.75
1009.74660532783	718.75
1012.36396561423	729.75
1014.98049728314	720.5
1017.59620081267	727.25
1020.21107667995	713.25
1022.82512536112	719.5
1025.43834733138	726.25
1028.05074306493	724
1030.66231303501	719
1033.27305771392	725.75
1035.88297757299	722
1038.49207308257	735.75
1041.10034471211	727.25
1043.70779293008	721.75
1046.31441820402	734.75
1048.92022100052	722
1051.52520178525	723.25
1054.12936102295	724.75
1056.73269917742	729.25
1059.33521671154	728.75
1061.93691408729	727
1064.53779176571	725.75
1067.13785020694	722.5
1069.73708987022	724
1072.33551121386	732.5
1074.93311469528	720
1077.52990077103	730.5
1080.12586989674	727.25
1082.72102252714	727.75
1085.31535911611	737
1087.90888011663	726
1090.50158598078	723
1093.09347715979	727.5
1095.68455410403	719.5
1098.27481726296	726.25
1100.86426708523	721
1103.45290401857	724
1106.04072850991	727.75
1108.6277410053	724
1111.21394194993	728
1113.79933178816	731.5
1116.3839109635	730.75
1118.96767991862	727
1121.55063909539	730.5
1124.13278893477	735.5
1126.71412987696	740.75
1129.29466236132	728.25
1131.87438682637	740.5
1134.45330370982	734
1137.03141344858	737.25
1139.60871647872	737.25
1142.18521323554	743.25
1144.7609041535	741.5
1147.33578966629	740.25
1149.90987020676	738.25
1152.48314620702	751.25
1155.05561809835	742.5
1157.62728631125	742.5
1160.19815127545	750
1162.76821341988	751
1165.33747317271	761.75
1167.90593096133	761.5
1170.47358721235	749.25
1173.04044235163	749
1175.60649680425	757.75
1178.17175099454	752.25
1180.73620534607	751.25
1183.29986028165	748
1185.86271622336	745.25
1188.42477359249	741.75
1190.98603280964	744.75
1193.54649429462	735.75
1196.10615846653	738.25
1198.66502574372	732
1201.22309654385	738.75
1203.78037128378	741
1206.33685037971	738.75
1208.89253424709	737.75
1211.44742330063	737.25
1214.00151795438	741.25
1216.55481862163	742
1219.10732571497	744.25
1221.65903964631	742.75
1224.20996082683	739.75
1226.760089667	746.75
1229.30942657664	739
1231.85797196483	750
1234.40572623998	746
1236.95268980981	739
1239.49886308136	745.25
1242.04424646098	734.75
1244.58884035435	759.5
1247.13264516647	747.75
1249.67566130166	754.75
1252.21788916358	744.25
1254.75932915524	754
1257.29998167896	755.75
1259.83984713639	746.75
1262.37892592857	745.75
1264.91721845586	746.25
1267.45472511795	746.75
1269.9914463139	750.75
1272.52738244213	742.5
1275.0625339004	749
1277.59690108587	744.25
1280.130484395	746.5
1282.66328422367	759.5
1285.19530096712	751.5
1287.72653501993	757
1290.25698677608	759.75
1292.78665662894	764
1295.31554497125	766.5
1297.8436521951	766.25
1300.37097869203	757.25
1302.89752485292	764.25
1305.42329106805	765.25
1307.94827772713	772.25
1310.47248521921	764.5
1312.99591393279	762
1315.51856425575	771.75
1318.04043657536	760
1320.56153127836	773.25
1323.08184875083	778.75
1325.6013893783	785.5
1328.12015354572	784.75
1330.63814163744	797.25
1333.15535403727	783
1335.67179112839	779.5
1338.18745329347	776
1340.70234091454	771.25
1343.21645437314	765.5
1345.72979405019	772.75
1348.24236032607	780
1350.75415358059	774.25
1353.26517419303	784
1355.7754225421	792.75
1358.28489900594	798.5
1360.79360396218	793.25
1363.30153778787	790.75
1365.80870085955	787.25
1368.31509355319	785.75
1370.82071624424	789.75
1373.32556930762	784.5
1375.8296531177	789.25
1378.33296804832	786.25
1380.83551447282	792.25
1383.33729276399	780.25
1385.83830329408	779
1388.33854643489	795.75
1390.83802255762	790.25
1393.33673203301	796
1395.83467523128	795
1398.33185252211	792.5
1400.82826427471	792.5
1403.32391085777	787.5
1405.81879263947	789.75
1408.31290998752	780.25
1410.80626326908	795
1413.29885285087	798.5
1415.79067909909	786.25
1418.28174237944	798.75
1420.77204305717	798.25
1423.26158149702	786.75
1425.75035806323	799
1428.2383731196	798
1430.72562702942	798.5
1433.21212015554	811
1435.69785286028	811.5
1438.18282550555	817.5
1440.66703845275	814.25
1443.15049206284	817.75
1445.6331866963	813.75
1448.11512271316	830.5
1450.59630047298	830.25
1453.07672033486	846.75
1455.55638265748	851.75
1458.03528779902	843.75
1460.51343611725	847
1462.99082796946	848.75
1465.46746371252	831.75
1467.94334370285	832.5
1470.41846829642	834.5
1472.89283784878	833
1475.36645271503	838.25
1477.83931324983	837
1480.31141980743	830.25
1482.78277274164	827.25
1485.25337240583	837.5
1487.72321915297	827.25
1490.19231333557	830.25
1492.66065530578	833.25
1495.12824541525	834.5
1497.5950840153	835.5
1500.06117145678	824.5
1502.52650809014	837.25
1504.99109426543	830.5
1507.45493033227	834.75
1509.91801663992	834.25
1512.38035353717	831
1514.84194137248	829.75
1517.30278049386	837
1519.76287124894	848.25
1522.22221398497	838.5
1524.68080904876	827
1527.13865678681	843.5
1529.59575754514	833.75
1532.05211166945	839.5
1534.50771950503	849.75
1536.96258139678	857
1539.41669768924	852.75
1541.87006872656	852
1544.32269485252	854.5
1546.77457641051	854.5
1549.22571374357	855.25
1551.67610719434	877.25
1554.12575710513	867.5
1556.57466381785	854.5
1559.02282767408	862.5
1561.47024901499	864.5
1563.91692818144	865.75
1566.3628655139	869.5
1568.80806135249	872.25
1571.252516037	871.75
1573.6962299068	879.75
1576.13920330099	887
1578.58143655828	882
1581.02293001704	876.5
1583.46368401528	876.75
1585.90369889071	896.75
1588.34297498065	877.25
1590.7815126221	889.5
1593.21931215173	896.5
1595.65637390588	901.25
1598.09269822053	912.75
1600.52828543135	920.75
1602.96313587367	928.5
1605.3972498825	922.25
1607.83062779252	907.5
1610.26326993808	925.75
1612.69517665322	913.75
1615.12634827165	915.25
1617.55678512676	904.5
1619.98648755163	893.25
1622.41545587902	891.5
1624.84369044138	899.25
1627.27119157085	890.75
1629.69795959924	893.25
1632.12399485808	892.75
1634.54929767859	902
1636.97386839165	893.75
1639.39770732789	902.25
1641.8208148176	889.5
1644.24319119078	900
1646.66483677715	911
1649.0857519061	903.25
1651.50593690677	903
1653.92539210795	915.25
1656.3441178382	903
1658.76211442575	902.25
1661.17938219855	906.5
1663.59592148428	903.25
1666.01173261032	899
1668.42681590377	911.75
1670.84117169145	909
1673.25480029991	911.75
1675.66770205541	914.5
1678.07987728393	927.25
1680.49132631119	921.25
1682.90204946263	930
1685.31204706342	918
1687.72131943846	925
1690.1298669124	925.5
1692.53768980957	934.75
1694.94478845411	936.25
1697.35116316982	918.5
1699.75681428031	938.5
1702.16174210887	944.5
1704.56594697858	928.25
1706.96942921222	934.25
1709.37218913235	937.75
1711.77422706125	944.25
1714.17554332098	927.75
1716.5761382333	932.25
1718.97601211977	931.75
1721.37516530169	951.5
1723.77359810006	942.25
1726.17131083572	940.5
1728.56830382922	946.25
1730.96457740087	944.5
1733.36013187075	934.25
1735.75496755868	941
1738.14908478428	956.75
1740.54248386689	945.5
1742.93516512565	957.75
1745.32712887946	951.75
1747.71837544697	942.25
1750.10890514662	960
1752.49871829661	948.25
1754.88781521492	948
1757.27619621929	963.25
1759.66386162726	948
1762.05081175612	967.25
1764.43704692297	951
1766.82256744465	967.25
1769.20737363782	967
1771.59146581887	964.5
1773.97484430405	958.25
1776.35750940932	969.25
1778.73946145048	967.5
1781.12070074309	969.75
1783.50122760249	976
1785.88104234385	974.5
1788.26014528209	968.5
1790.63853673196	978.5
1793.01621700796	974.5
1795.39318642443	985
1797.76944529549	988
1800.14499393503	986.75
1802.51983265681	981.25
1804.8939617743	977.5
1807.26738160085	994.25
1809.64009244957	986
1812.01209463339	994.25
1814.38338846504	985.5
1816.75397425706	1008
1819.12385232181	993.5
1821.49302297142	1004
1823.86148651789	997.5
1826.22924327299	1005
1828.59629354831	1014.25
1830.96263765526	1003.75
1833.32827590507	1008.5
1835.69320860877	1019.75
1838.05743607724	1005
1840.42095862113	1010
1842.78377655097	1009.75
1845.14589017707	1006.75
1847.50729980956	1021.5
1849.86800575843	1008.25
1852.22800833346	1019
1854.58730784427	1028.5
1856.94590460032	1025
1859.30379891087	1016.25
1861.66099108503	1012.25
1864.01748143175	1023
1866.37327025978	1036.75
1868.72835787773	1021.25
1871.08274459403	1030.75
1873.43643071697	1027.75
1875.78941655464	1042.25
1878.14170241498	1023.5
1880.4932886058	1035.75
1882.84417543469	1045.75
1885.19436320915	1036.5
1887.54385223646	1051
1889.89264282378	1047.25
1892.24073527809	1050.5
1894.58812990625	1040.25
1896.93482701493	1052.5
1899.28082691067	1042.75
1901.62612989984	1060.5
1903.97073628868	1063.5
1906.31464638326	1066
1908.6578604895	1065.75
1911.00037891321	1065.25
1913.34220196	1061
1915.68332993537	1081.5
1918.02376314468	1073.25
1920.36350189311	1075
1922.70254648573	1076
1925.04089722744	1073.5
1927.37855442303	1077.75
1929.71551837715	1086
1932.05178939426	1092.25
1934.38736777876	1088.25
1936.72225383484	1091
1939.0564478666	1106.75
1941.38995017799	1079.75
1943.72276107283	1099.25
1946.05488085479	1102.25
1948.38630982744	1086
1950.71704829419	1086
1953.04709655832	1096.25
1955.376454923	1101.25
1957.70512369126	1097.25
1960.03310316599	1100
1962.36039364999	1099
1964.68699544589	1098
1967.01290885622	1085.5
1969.33813418338	1096.75
1971.66267172965	1095.25
1973.98652179718	1106
1976.309684688	1112.25
1978.63216070402	1102.5
1980.95395014705	1133.25
1983.27505331873	1129.5
1985.59547052063	1126.5
1987.9152020542	1124.5
1990.23424822074	1108
1992.55260932146	1110.25
1994.87028565746	1134.5
1997.18727752968	1142
1999.503585239	1132.5
2001.81920908618	1123.5
2004.13414937184	1139.25
2006.44840639651	1136
2008.7619804606	1145.25
2011.07487186442	1132.25
2013.38708090815	1146.25
2015.6986078919	1147.25
2018.00945311564	1157.75
2020.31961687923	1138.75
2022.62909948246	1160.75
2024.93790122498	1166.75
2027.24602240636	1167.75
2029.55346332604	1167.25
2031.86022428337	1178
2034.16630557761	1163.75
2036.47170750791	1166.75
2038.77643037331	1172.25
2041.08047447275	1165.75
2043.38384010509	1170
2045.68652756907	1171.75
2047.98853716335	1176.25
2050.28986918648	1173.75
2052.59052393692	1177
2054.89050171302	1174.5
2057.18980281306	1167.5
2059.4884275352	1174.5
2061.78637617753	1159.25
2064.08364903802	1170.75
2066.38024641457	1175.5
2068.67616860497	1179.5
2070.97141590694	1183.5
2073.26598861809	1178.5
2075.55988703595	1159
2077.85311145796	1165.75
2080.14566218145	1162.5
2082.43753950371	1179
2084.72874372188	1178.75
2087.01927513307	1183.75
2089.30913403428	1184.25
2091.59832072241	1160.5
2093.88683549429	1173.5
2096.17467864666	1169.5
2098.46185047619	1183
2100.74835127944	1182.5
2103.03418135292	1188
2105.31934099303	1177.75
2107.6038304961	1185
2109.88765015838	1167.5
2112.17080027602	1170
2114.45328114513	1187
2116.7350930617	1162.75
2119.01623632165	1185.75
2121.29671122085	1173.25
2123.57651805505	1171
2125.85565711996	1185.5
2128.13412871117	1191.25
2130.41193312424	1191.25
2132.68907065462	1188
2134.96554159771	1203.25
2137.24134624881	1187.5
2139.51648490317	1197.75
2141.79095785593	1205.5
2144.0647654022	1197.5
2146.33790783698	1206.75
2148.61038545524	1188.25
2150.88219855182	1214.75
2153.15334742154	1203.75
2155.42383235911	1201.5
2157.6936536592	1188.5
2159.9628116164	1197.25
2162.23130652522	1202.5
2164.49913868011	1220.5
2166.76630837544	1200.75
2169.03281590552	1213.75
2171.2986615646	1195
2173.56384564685	1210
2175.82836844637	1199
2178.0922302572	1196
2180.35543137332	1200.75
2182.61797208862	1218.75
2184.87985269695	1204
2187.14107349208	1207
2189.40163476773	1198.5
2191.66153681753	1193.5
2193.92077993507	1198
2196.17936441386	1193
2198.43729054735	1205.75
2200.69455862894	1195.5
2202.95116895194	1211.75
2205.20712180962	1202.25
2207.46241749519	1206
2209.71705630179	1210.75
2211.97103852248	1206.75
2214.2243644503	1201.25
2216.47703437819	1204.75
2218.72904859905	1203
2220.98040740571	1217.25
2223.23111109095	1212.75
2225.4811599475	1196.5
2227.73055426799	1206.25
2229.97929434504	1198.5
2232.22738047118	1200
2234.47481293889	1217.25
2236.72159204058	1204.25
2238.96771806864	1209.5
2241.21319131536	1206.5
2243.458012073	1210.25
2245.70218063374	1196.25
2247.94569728973	1228.5
2250.18856233304	1193.75
2252.4307760557	1204.25
2254.67233874967	1209.75
2256.91325070687	1219.25
2259.15351221915	1203.75
2261.39312357831	1202.25
2263.63208507611	1195
2265.87039700422	1193.75
2268.1080596543	1202.75
2270.34507331792	1202.25
2272.5814382866	1197.75
2274.81715485183	1211
2277.05222330502	1203.75
2279.28664393755	1198.25
2281.52041704072	1202.25
2283.75354290581	1205.25
2285.98602182401	1208
2288.21785408648	1193.75
2290.44903998434	1214
2292.67957980862	1217.75
2294.90947385033	1192.5
2297.1387224004	1202
2299.36732574975	1207
2301.59528418921	1201.5
2303.82259800958	1199.5
2306.04926750158	1207.25
2308.27529295593	1207.75
2310.50067466325	1199.25
2312.72541291412	1188.75
2314.9495079991	1197
2317.17296020866	1204
2319.39576983323	1189.25
2321.61793716322	1197.5
2323.83946248894	1199.5
2326.06034610069	1212.5
2328.28058828871	1194.5
2330.50018934317	1203
2332.7191495542	1202.5
2334.93746921192	1191.25
2337.15514860633	1190.25
2339.37218802743	1201.5
2341.58858776516	1197.5
2343.80434810941	1193
2346.01946935001	1175.75
2348.23395177675	1191.25
2350.44779567939	1190.5
2352.66100134759	1185.75
2354.87356907101	1186
2357.08549913925	1171
2359.29679184185	1190
2361.50744746829	1177.75
2363.71746630804	1211.75
2365.92684865048	1194
2368.13559478499	1177.25
2370.34370500083	1172.5
2372.55117958727	1158.75
2374.75801883352	1171
2376.96422302874	1160.25
2379.16979246202	1162
2381.37472742243	1194
2383.57902819898	1179
2385.78269508063	1157.25
2387.98572835629	1181.5
2390.18812831482	1144.5
2392.38989524505	1158.75
2394.59102943573	1163.5
2396.79153117559	1172.25
2398.9914007533	1159.75
2401.19063845748	1160
2403.38924457672	1153.25
2405.58721939951	1169
2407.78456321435	1148.5
2409.98127630966	1149.5
2412.17735897382	1151
2414.37281149517	1138
2416.56763416198	1150.75
2418.76182726249	1165.25
2420.95539108487	1149.75
2423.14832591726	1140
2425.34063204776	1154.25
2427.53230976439	1145
2429.72335935513	1146.25
2431.91378110795	1136.25
2434.10357531071	1122.5
2436.29274225125	1138.75
2438.48128221739	1131
2440.66919549683	1141.5
2442.8564823773	1141.5
2445.04314314641	1131
2447.22917809176	1138
2449.4145875009	1138.5
2451.59937166131	1139.5
2453.78353086044	1118.75
2455.96706538568	1130.25
2458.14997552436	1131
2460.33226156379	1101.5
2462.51392379119	1127.75
2464.69496249376	1129
2466.87537795862	1121
2469.05517047288	1108
2471.23434032357	1126.25
2473.41288779767	1120.25
2475.59081318211	1113.75
2477.76811676378	1125.25
2479.9447988295	1107.5
2482.12085966605	1116.25
2484.29629956016	1120.5
2486.4711187985	1125.25
2488.64531766769	1106
2490.8188964543	1114
2492.99185544484	1106.25
2495.16419492579	1107
2497.33591518353	1113
2499.50701650444	1110.75
2501.67749917482	1120.75
2503.84736348091	1106.25
2506.01660970891	1101.5
2508.18523814496	1104.75
2510.35324907514	1117.75
2512.52064278551	1115.75
2514.68741956201	1111.5
2516.85357969058	1115
2519.01912345709	1111.75
2521.18405114735	1100.5
2523.34836304711	1106.5
2525.51205944208	1111.5
2527.6751406179	1094.5
2529.83760686016	1112.5
2531.99945845439	1092.5
2534.16069568606	1112.5
2536.3213188406	1099.25
2538.48132820336	1093.75
2540.64072405965	1086
2542.79950669471	1102.75
2544.95767639373	1108.5
2547.11523344184	1096.75
2549.27217812411	1102.25
2551.42851072555	1097.25
2553.58423153111	1105.75
2555.73934082569	1088.25
2557.89383889412	1085.75
2560.04772602118	1087.5
2562.20100249158	1094.5
2564.35366858996	1086
2566.50572460093	1079.25
2568.65717080901	1083
2570.80800749867	1072.75
2572.95823495433	1084.5
2575.10785346031	1084.5
2577.25686330093	1074.25
2579.40526476038	1073
2581.55305812282	1061.5
2583.70024367237	1081.25
2585.84682169303	1076.5
2587.99279246879	1074.75
2590.13815628354	1072.5
2592.28291342112	1070
2594.42706416531	1075.75
2596.5706087998	1067.75
2598.71354760826	1074.5
2600.85588087425	1058.25
2602.99760888127	1072.25
2605.13873191278	1075.75
2607.27925025214	1071.75
2609.41916418269	1062
2611.55847398764	1050
2613.69717995017	1070.75
2615.83528235339	1057.5
2617.97278148034	1060.75
2620.10967761398	1053
2622.2459710372	1057
2624.38166203284	1077.25
2626.51675088365	1071.25
2628.65123787231	1063.5
2630.78512328145	1069
2632.9184073936	1078.75
2635.05109049124	1061.25
2637.18317285676	1063.25
2639.31465477248	1054.25
2641.44553652067	1059.5
2643.5758183835	1070.5
2645.70550064309	1061
2647.83458358144	1061.5
2649.96306748053	1069.5
2652.09095262223	1070.25
2654.21823928836	1069.75
2656.34492776063	1059.75
2658.47101832071	1068
2660.59651125015	1063
2662.72140683047	1070.25
2664.84570534309	1056.75
2666.96940706934	1061.25
2669.0925122905	1059.5
2671.21502128773	1058.25
2673.33693434215	1050.25
2675.45825173479	1065.75
2677.57897374658	1055.5
2679.69910065839	1067.5
2681.818632751	1061.75
2683.93757030511	1049.5
2686.05591360133	1061
2688.17366292021	1051.75
2690.29081854218	1050.5
2692.40738074762	1038.5
2694.52334981681	1062.25
2696.63872602995	1062.25
2698.75350966713	1050.25
2700.86770100841	1054
2702.98130033371	1052
2705.09430792289	1064.25
2707.20672405571	1063.75
2709.31854901185	1062.75
2711.42978307091	1062.5
2713.54042651238	1053
2715.65047961567	1069
2717.7599426601	1065.75
2719.86881592491	1071.75
2721.97709968924	1073.75
2724.08479423213	1074.75
2726.19189983255	1056
2728.29841676934	1064.5
2730.4043453213	1062.25
2732.5096857671	1054.25
2734.61443838532	1063.5
2736.71860345444	1057.25
2738.82218125286	1059.25
2740.92517205889	1068.5
2743.02757615072	1061
2745.12939380646	1056
2747.23062530411	1053.25
2749.33127092159	1065
2751.4313309367	1051.75
2753.53080562716	1056
2755.62969527058	1061.75
2757.72800014448	1057.25
2759.82572052625	1053.25
2761.92285669323	1058.5
2764.0194089226	1064
2766.11537749147	1058
2768.21076267686	1055
2770.30556475566	1054.5
2772.39978400465	1054.75
2774.49342070054	1057.25
2776.58647511991	1053.5
2778.67894753923	1036.5
2780.77083823487	1035.25
2782.8621474831	1063.5
2784.95287556007	1055.5
2787.04302274184	1041.75
2789.13258930433	1058.75
2791.22157552338	1035
2793.30998167471	1057.75
2795.39780803392	1057.25
2797.4850548765	1043.75
2799.57172247786	1037.25
2801.65781111324	1048.25
2803.74332105781	1045
2805.82825258661	1055.5
2807.91260597457	1057
2809.9963814965	1050.25
2812.07957942711	1046.25
2814.16220004096	1050
2816.24424361252	1049
2818.32571041614	1042.25
2820.40660072604	1067.5
2822.48691481631	1047.75
2824.56665296098	1058.5
2826.64581543388	1071.25
2828.72440250876	1064.25
2830.80241445925	1085
2832.87985155885	1085.5
2834.95671408093	1100
2837.03300229875	1139.25
2839.10871648544	1133
2841.18385691399	1130.25
2843.25842385729	1122
2845.33241758808	1116.25
2847.40583837898	1101.5
2849.4786865025	1102
2851.550962231	1082.25
2853.6226658367	1084
2855.69379759173	1106
2857.76435776806	1110.25
2859.83434663753	1113.25
2861.90376447184	1126.5
2863.97261154259	1164.25
2866.0408881212	1186.75
2868.10859447901	1179.5
2870.17573088717	1197
2872.24229761673	1185
2874.30829493859	1172.25
2876.37372312352	1201.75
2878.43858244215	1229.75
2880.50287316496	1233.5
2882.56659556231	1242
2884.62974990439	1236.5
2886.69233646129	1219.25
2888.75435550293	1220.5
2890.81580729909	1193
2892.87669211941	1181.75
2894.93701023339	1188.25
2896.99676191039	1183.75
2899.05594741961	1186.25
2901.1145670301	1196.25
2903.1726210108	1205.5
2905.23010963045	1208.5
2907.28703315768	1201.75
2909.34339186096	1185.5
2911.39918600861	1196.25
2913.45441586879	1180.25
2915.50908170952	1160.75
2917.56318379867	1165
2919.61672240395	1171.25
2921.66969779291	1151.25
2923.72211023295	1168.5
2925.77395999134	1168.75
2927.82524733515	1160
2929.87597253132	1161.75
2931.92613584663	1141.75
2933.97573754769	1126.5
2936.02477790097	1118.5
2938.07325717276	1109
2940.1211756292	1115
2942.16853353626	1125.5
2944.21533115976	1130.5
2946.26156876536	1144
2948.30724661853	1153
2950.3523649846	1183.5
2952.39692412872	1203.75
2954.44092431587	1197.5
2956.48436581089	1212.25
2958.52724887843	1234.25
2960.56957378296	1232.5
2962.6113407888	1250.75
2964.65255016011	1223.25
2966.69320216083	1209.5
2968.73329705479	1166
2970.77283510559	1156
2972.81181657671	1144
2974.8502417314	1112.5
2976.88811083279	1122.5
2978.92542414378	1108.5
2980.96218192713	1107.25
2982.99838444541	1088
2985.034031961	1090.25
2987.06912473612	1092
2989.1036630328	1089.5
2991.13764711288	1087
2993.17107723804	1089.25
2995.20395366974	1109.5
2997.23627666931	1081.25
2999.26804649782	1094.25
3001.29926341624	1094
3003.32992768528	1103.25
3005.3600395655	1086.25
3007.38959931726	1092
3009.41860720076	1103.75
3011.44706347595	1115
3013.47496840263	1118.25
3015.50232224041	1099.25
3017.5291252487	1112.75
3019.5553776867	1104.5
3021.58107981344	1116.5
3023.60623188773	1107.25
3025.63083416822	1105.5
3027.65488691331	1117.25
3029.67839038125	1115.25
3031.70134483007	1099.75
3033.72375051759	1117.75
3035.74560770144	1111
3037.76691663907	1115.5
3039.78767758768	1109.25
3041.80789080431	1118
3043.82755654577	1122.75
3045.84667506867	1117.25
3047.8652466294	1106.75
3049.88327148418	1131
3051.90074988899	1115
3053.91768209961	1119.75
3055.9340683716	1107
3057.94990896033	1121.5
3059.96520412095	1132
3061.97995410838	1118.75
3063.99415917734	1116.25
3066.00781958234	1114.25
3068.02093557766	1106.25
3070.03350741738	1108.25
3072.04553535535	1113.75
3074.05701964521	1108.75
3076.06796054036	1107
3078.078358294	1118.25
3080.08821315912	1128.75
3082.09752538846	1118
3084.10629523454	1115
3086.11452294967	1110
3088.12220878592	1119.75
3090.12935299515	1117.25
3092.13595582898	1124.5
3094.1420175388	1122.25
3096.14753837579	1118.75
3098.15251859088	1115.5
3100.15695843477	1129.25
3102.16085815793	1114.75
3104.16421801061	1109.75
3106.16703824282	1125.25
3108.16931910432	1117.25
3110.17106084464	1110.5
3112.17226371308	1123.75
3114.17292795872	1116
3116.17305383034	1140.75
3118.17264157657	1131.75
3120.17169144571	1134
3122.17020368587	1116
3124.16817854492	1131.25
3126.16561627044	1128.25
3128.16251710982	1133.25
3130.15888131017	1134.5
3132.15470911837	1121.25
3134.15000078104	1144.5
3136.14475654455	1145.5
3138.13897665502	1144
3140.13266135835	1151
3142.12581090014	1138.75
3144.11842552577	1148.5
3146.11050548036	1166
3148.10205100875	1162.5
3150.09306235557	1155.75
3152.08353976515	1149
3154.07348348158	1123.5
3156.06289374869	1148.5
3158.05177081006	1138.75
3160.04011490899	1149.75
3162.02792628852	1146.75
3164.01520519145	1152.25
3166.00195186029	1139.25
3167.98816653728	1148.25
3169.97384946442	1151
3171.95900088344	1145.5
3173.94362103577	1162.25
3175.92771016259	1160.5
3177.91126850484	1150.75
3179.89429630312	1149.75
3181.87679379782	1155
3183.85876122903	1167.5
3185.84019883657	1139.5
3187.82110685997	1162.75
3189.80148553851	1161.25
3191.78133511116	1155
3193.76065581664	1147.75
3195.73944789337	1152
3197.7177115795	1182
3199.6954471129	1150.75
3201.67265473114	1165.25
3203.64933467153	1168.5
3205.62548717107	1163.25
3207.60111246648	1173.75
3209.57621079421	1167.25
3211.55078239041	1159.75
3213.52482749093	1154.75
3215.49834633133	1171.25
3217.4713391469	1170.75
3219.44380617262	1169.25
3221.41574764317	1165.75
3223.38716379296	1169
3225.35805485607	1182.5
3227.32842106631	1162.75
3229.29826265718	1179.75
3231.26757986187	1177.5
3233.2363729133	1170
3235.20464204405	1179.25
3237.17238748643	1184
3239.13960947243	1189
3241.10630823374	1195.75
3243.07248400174	1180.5
3245.03813700748	1201.75
3247.00326748177	1179.25
3248.96787565503	1191.25
3250.93196175742	1181.25
3252.89552601877	1170.5
3254.8585686686	1194.5
3256.82108993612	1197.25
3258.78309005022	1195.5
3260.74456923948	1202.5
3262.70552773215	1193.75
3264.66596575617	1190.75
3266.62588353916	1196.25
3268.58528130843	1192.5
3270.54415929094	1206.25
3272.50251771336	1189.25
3274.46035680201	1193.75
3276.4176767829	1211.75
3278.37447788171	1205
3280.33076032379	1214.75
3282.28652433416	1198
3284.24177013751	1207.5
3286.1964979582	1214.75
3288.15070802027	1202
3290.10440054741	1199
3292.05757576298	1196.25
3294.01023389001	1186.5
3295.96237515119	1212.25
3297.91399976887	1200
3299.86510796506	1202
3301.81569996142	1208.25
3303.76577597932	1210.5
3305.7153362397	1219.5
3307.66438096324	1203.25
3309.61291037024	1199.25
3311.56092468064	1223.75
3313.50842411404	1210.5
3315.45540888971	1211.25
3317.40187922656	1209.5
3319.34783534315	1199
3321.29327745768	1213.75
3323.23820578801	1202.5
3325.18262055164	1197.25
3327.1265219657	1206.25
3329.06991024699	1210.5
3331.01278561194	1224.5
3332.95514827662	1198.25
3334.89699845674	1207
3336.83833636766	1202.25
3338.77916222434	1202.5
3340.71947624143	1204.75
3342.65927863317	1199.75
3344.59856961346	1221.5
3346.53734939584	1213.5
3348.47561819344	1226.25
3350.41337621906	1219.25
3352.35062368513	1205.25
3354.28736080368	1210.25
3356.22358778637	1214.75
3358.15930484452	1211.5
3360.09451218904	1228.75
3362.02921003047	1222.25
3363.96339857898	1221
3365.89707804436	1205
3367.83024863602	1227.25
3369.76291056299	1205
3371.69506403389	1206.5
3373.62670925699	1213.5
3375.55784644016	1231.75
3377.4884757909	1210.5
3379.41859751629	1235.25
3381.34821182305	1213
3383.27731891749	1220
3385.20591900555	1235.25
3387.13401229276	1231.5
3389.06159898426	1241.5
3390.9886792848	1233.75
3392.91525339872	1222.25
3394.84132152998	1226.5
3396.76688388213	1232.75
3398.69194065833	1241.25
3400.61649206133	1243.5
3402.54053829348	1226.5
3404.46407955672	1238.25
3406.3871160526	1233.25
3408.30964798225	1246.5
3410.23167554639	1236.75
3412.15319894535	1235.75
3414.07421837904	1235.25
3415.99473404695	1240
3417.91474614817	1240.25
3419.83425488136	1255.25
3421.75326044479	1245
3423.67176303631	1233.25
3425.58976285332	1233.75
3427.50726009282	1225
3429.42425495143	1236.75
3431.34074762528	1240.75
3433.25673831012	1219.25
3435.17222720127	1236
3437.08721449362	1219.75
3439.00170038164	1218.5
3440.91568505936	1249
3442.82916872039	1222
3444.74215155791	1245.5
3446.65463376468	1215.75
3448.566615533	1234.5
3450.47809705476	1240.5
3452.3890785214	1213.75
3454.29956012393	1228.75
3456.20954205293	1223.25
3458.11902449853	1226
3460.02800765041	1223.75
3461.93649169784	1221
3463.84447682962	1237.75
3465.75196323412	1212.25
3467.65895109925	1232.75
3469.56544061249	1239.25
3471.47143196086	1217.25
3473.37692533093	1221.5
3475.28192090884	1233.25
3477.18641888026	1211.5
3479.09041943039	1232.75
3480.99392274402	1237.25
3482.89692900545	1229
3484.79943839853	1234
3486.70145110666	1245.5
3488.60296731277	1220
3490.50398719933	1219.25
3492.40451094836	1215.75
3494.30453874141	1216.75
3496.20407075956	1222
3498.10310718342	1230.25
3500.00164819315	1225.25