200.090469251518	3035
202.974751419362	2985
205.858021632263	3066
208.740280737522	3051
211.621529580443	3096
214.501769004371	3115
217.380999850626	3054
220.25922295859	3077
223.136439165646	3111
226.012649307235	3149
228.88785421682	3170
231.762054725918	3159
234.635251664113	3221
237.507445859021	3177
240.378638136346	3212
243.248829319855	3174
246.11802023137	3165
248.986211690826	3239
251.853404516227	3224
254.719599523654	3265
257.584797527335	3284
260.44899933954	3268
263.312205770682	3312
266.174417629303	3284
269.035635722015	3268
271.895860853609	3242
274.755093826978	3298
277.613335443144	3299
280.470586501309	3285
283.326847798766	3287
286.182120131019	3319
289.036404291684	3346
291.889701072574	3325
294.742011263643	3377
297.593335653048	3288
300.443675027094	3380
303.293030170295	3391
306.141401865367	3365
308.988790893174	3354
311.835198032837	3364
314.680624061635	3352
317.525069755113	3396
320.36853588697	3340
323.211023229178	3370
326.052532551923	3486
328.893064623604	3384
331.732620210885	3369
334.57120007867	3449
337.408804990093	3370
340.245435706565	3418
343.081092987733	3393
345.915777591523	3426
348.749490274145	3462
351.582231790049	3493
354.414002891997	3491
357.244804331021	3455
360.074636856443	3501
362.903501215886	3545
365.731398155265	3544
368.558328418814	3530
371.384292749062	3470
374.209291886869	3494
377.033326571407	3567
379.85639754017	3461
382.678505529009	3536
385.499651272065	3526
388.319835501872	3486
391.139058949258	3567
393.957322343453	3514
396.774626412011	3516
399.590971880847	3566
402.406359474258	3598
405.220789914893	3608
408.034263923801	3617
410.8467822204	3592
413.658345522483	3549
416.468954546242	3641
419.278610006277	3595
422.087312615557	3648
424.895063085503	3649
427.701862125901	3592
430.507710444981	3647
433.312608749366	3676
436.116557744146	3767
438.919558132791	3685
441.721610617238	3636
444.522715897856	3757
447.322874673457	3677
450.122087641299	3716
452.920355497092	3737
455.717678935009	3733
458.514058647681	3650
461.309495326219	3774
464.103989660191	3756
466.89754233765	3707
469.690154045114	3719
472.481825467625	3733
475.272557288674	3751
478.062350190281	3790
480.851204852952	3780
483.639121955683	3760
486.426102176007	3747
489.212146189955	3816
491.997254672093	3811
494.781428295471	3828
497.564667731716	3901
500.346973650958	3844
503.128346721878	3848
505.90878761169	3880
508.688296986151	3893
511.46687550957	3853
514.244523844831	3866
517.021242653354	3839
519.797032595132	3902
522.571894328732	3896
525.345828511279	3933
528.11883579849	3900
530.890916844655	3977
533.662072302668	3965
536.432302823985	3978
539.201609058684	4004
541.96999165542	4092
544.737451261473	4113
547.503988522723	4150
550.26960408366	4145
553.034298587394	4145
555.798072675669	4004
558.560926988819	4091
561.322862165849	4058
564.083878844369	3961
566.843977660654	3995
569.603159249604	4051
572.361424244769	4033
575.118773278369	3994
577.87520698124	4060
580.630725982905	4045
583.385330911566	4122
586.139022394076	4160
588.891801055954	4024
591.643667521406	4110
594.394622413318	4124
597.144666353273	4123
599.893799961512	4076
602.64202385701	4104
605.389338657413	4066
608.135744979089	4155
610.881243437092	3974
613.625834645191	4041
616.369519215881	4108
619.112297760374	4047
621.854170888604	4123
624.595139209225	4027
627.335203329614	4039
630.074363855914	4060
632.81262139299	4081
635.549976544436	4027
638.286429912612	4052
641.021982098635	4158
643.756633702364	4096
646.49038532241	4030
649.223237556176	4119
651.955190999808	4125
654.686246248224	4148
657.416403895135	4223
660.145664533011	4167
662.874028753133	4189
665.601497145537	4242
668.328070299071	4191
671.05374880138	4163
673.778533238885	4229
676.502424196839	4281
679.225422259297	4251
681.947528009099	4241
684.668742027927	4310
687.389064896281	4278
690.108497193465	4206
692.827039497621	4264
695.544692385724	4369
698.261456433585	4319
700.977332215847	4273
703.692320305981	4283
706.406421276337	4342
709.11963569808	4273
711.831964141256	4408
714.54340717474	4341
717.253965366304	4376
719.963639282552	4407
722.672429488961	4428
725.380336549904	4447
728.087361028596	4444
730.793503487166	4377
733.498764486594	4470
736.203144586758	4487
738.906644346447	4495
741.60926432331	4468
744.311005073912	4529
747.011867153727	4536
749.711851117121	4528
752.410957517375	4631
755.109186906677	4537
757.806539836132	4534
760.503016855779	4592
763.198618514551	4643
765.893345360346	4659
768.587197939964	4654
771.28017679914	4640
773.972282482566	4627
776.663515533859	4633
779.353876495581	4681
782.043365909241	4669
784.731984315327	4685
787.419732253235	4657
790.106610261366	4673
792.792618877058	4603
795.477758636618	4772
798.162030075313	4741
800.845433727423	4635
803.52797012615	4635
806.209639803714	4773
808.890443291304	4697
811.570381119098	4825
814.249453816265	4846
816.927661910959	4810
819.60500593036	4859
822.281486400603	4858
824.957103846864	4787
827.631858793316	4936
830.305751763135	4898
832.978783278519	4867
835.650953860677	4968
838.322264029848	4950
840.992714305292	5021
843.662305205289	5005
846.331037247157	5018
848.998910947241	4997
851.665926820933	5090
854.332085382674	5063
856.997387145915	5026
859.661832623191	5118
862.325422326066	5122
864.988156765172	5019
867.650036450181	5124
870.311061889846	5061
872.971233591961	5106
875.630552063409	5144
878.28901781013	5098
880.946631337138	5119
883.603393148533	5174
886.259303747484	5141
888.914363636246	5146
891.568573316155	5190
894.22193328767	5181
896.874444050281	5230
899.526106102625	5156
902.176919942416	5245
904.826886066483	5186
907.476004970747	5305
910.124277150255	5381
912.77170309913	5318
915.418283310642	5319
918.064018277175	5378
920.708908490222	5344
923.352954440405	5360
925.996156617486	5469
928.638515510334	5302
931.280031606966	5494
933.920705394521	5570
936.560537359303	5484
939.199527986737	5429
941.837677761392	5562
944.474987167006	5546
947.111456686438	5583
949.747086801734	5594
952.38187799407	5545
955.015830743792	5584
957.648945530418	5557
960.281222832633	5620
962.91266312826	5649
965.543266894336	5663
968.173034607058	5627
970.801966741779	5700
973.43006377307	5646
976.057326174661	5750
978.683754419471	5771
981.309348979623	5827
983.93411032642	5668
986.558038930361	5801
989.181135261144	5818
991.803399787692	5888
994.424832978086	5820
997.045435299653	5839
999.665207218906	5941
1002.2841492016	5844
1004.90226171266	5924
1007.51954521628	5985
1010.13600017584	6080
1012.75162705397	6043
1015.3664263125	6013
1017.9803984125	6088
1020.5935438143	6093
1023.20586297741	6186
1025.81735636063	6082
1028.42802442196	6130
1031.03786761869	6189
1033.64688640732	6252
1036.2550812436	6204
1038.86245258255	6323
1041.46900087844	6328
1044.07472658479	6362
1046.67963015438	6373
1049.28371203927	6378
1051.88697269075	6308
1054.48941255943	6410
1057.09103209513	6499
1059.691831747	6542
1062.29181196343	6623
1064.89097319211	6531
1067.48931587999	6598
1070.08684047333	6510
1072.68354741766	6456
1075.27943715779	6604
1077.87451013787	6558
1080.46876680127	6675
1083.06220759071	6596
1085.65483294822	6636
1088.24664331509	6564
1090.83763913194	6676
1093.42782083869	6640
1096.01718887459	6735
1098.60574367818	6527
1101.19348568732	6722
1103.78041533919	6650
1106.3665330703	6832
1108.95183931646	6577
1111.53633451284	6826
1114.12001909391	6679
1116.70289349349	6817
1119.2849581447	6804
1121.86621348005	6848
1124.44665993134	6946
1127.02629792973	6989
1129.60512790574	6967
1132.18315028919	6941
1134.76036550929	6955
1137.3367739946	7004
1139.912376173	6908
1142.48717247176	6958
1145.06116331748	6920
1147.63434913616	7149
1150.20673035312	7023
1152.77830739307	6957
1155.34908068007	7024
1157.91905063757	7144
1160.48821768838	7143
1163.05658225471	7048
1165.6241447581	6936
1168.19090561951	7054
1170.75686525927	6984
1173.32202409708	7121
1175.88638255206	7064
1178.44994104269	6982
1181.01269998684	7080
1183.57465980182	7092
1186.13582090427	7059
1188.69618371026	7107
1191.25574863529	7145
1193.8145160942	7035
1196.37248650129	7114
1198.92966027025	7136
1201.48603781416	7052
1204.04161954556	7074
1206.59640587635	7065
1209.15039721788	7075
1211.70359398092	7137
1214.25599657564	7204
1216.80760541166	7189
1219.35842089801	7148
1221.90844344314	7216
1224.45767345496	7201
1227.00611134077	7304
1229.55375750736	7180
1232.10061236092	7303
1234.64667630707	7291
1237.1919497509	7276
1239.73643309692	7404
1242.28012674912	7283
1244.82303111089	7337
1247.36514658511	7312
1249.9064735741	7473
1252.44701247964	7479
1254.98676370294	7607
1257.52572764469	7528
1260.06390470506	7472
1262.60129528365	7610
1265.13789977954	7548
1267.67371859128	7574
1270.20875211688	7618
1272.74300075384	7657
1275.2764648991	7753
1277.80914494911	7606
1280.34104129978	7712
1282.87215434652	7637
1285.40248448419	7793
1287.93203210715	7843
1290.46079760927	7783
1292.98878138385	7882
1295.51598382375	8020
1298.04240532127	8012
1300.56804626822	7991
1303.09290705593	7985
1305.6169880752	7840
1308.14028971632	7945
1310.66281236913	7901
1313.18455642292	8012
1315.70552226653	8006
1318.22571028829	8155
1320.74512087603	7970
1323.26375441711	8114
1325.7816112984	8232
1328.29869190629	8134
1330.81499662666	8222
1333.33052584497	8230
1335.84527994613	8172
1338.35925931464	8253
1340.87246433446	8315
1343.38489538916	8369
1345.89655286177	8415
1348.40743713487	8417
1350.91754859059	8493
1353.42688761059	8526
1355.93545457606	8543
1358.44324986772	8626
1360.95027386588	8651
1363.45652695032	8613
1365.96200950042	8537
1368.4667218951	8576
1370.97066451281	8657
1373.47383773156	8560
1375.97624192891	8700
1378.47787748199	8693
1380.97874476746	8722
1383.47884416157	8710
1385.97817604009	8644
1388.4767407784	8661
1390.9745387514	8557
1393.47157033358	8783
1395.96783589898	8796
1398.46333582124	8623
1400.95807047354	8713
1403.45204022864	8859
1405.94524545889	8739
1408.4376865362	8831
1410.92936383205	8849
1413.42027771752	8824
1415.91042856328	8999
1418.39981673955	8880
1420.88844261615	9039
1423.37630656249	8899
1425.86340894757	8993
1428.34975013999	9059
1430.83533050792	9285
1433.32015041912	9366
1435.80421024098	9426
1438.28751034045	9638
1440.77005108411	9666
1443.25183283812	9657
1445.73285596824	9661
1448.21312083984	9716
1450.69262781791	9785
1453.17137726702	9885
1455.64936955137	9794
1458.12660503477	9829
1460.60308408063	9908
1463.07880705197	9799
1465.55377431145	9985
1468.02798622133	9872
1470.50144314348	9968
1472.97414543941	9989
1475.44609347024	10096
1477.91728759673	9920
1480.38772817924	9962
1482.85741557777	10086
1485.32635015194	10084
1487.79453226103	10038
1490.26196226391	10112
1492.72864051911	10074
1495.1945673848	10125
1497.65974321874	10115
1500.1241683784	10116
1502.58784322083	10207
1505.05076810274	10176
1507.51294338049	10331
1509.97436941009	10304
1512.43504654717	10470
1514.89497514704	10375
1517.35415556462	10476
1519.81258815451	10778
1522.27027327095	10568
1524.72721126784	10621
1527.18340249874	10587
1529.63884731684	10811
1532.09354607502	10859
1534.5474991258	10947
1537.00070682136	10938
1539.45316951355	10976
1541.90488755388	11060
1544.35586129353	11110
1546.80609108336	11129
1549.25557727385	11066
1551.70432021519	11199
1554.15232025725	11160
1556.59957774953	11263
1559.04609304125	11434
1561.49186648127	11561
1563.93689841815	11616
1566.38118920011	11615
1568.82473917506	11705
1571.2675486906	11733
1573.70961809399	11890
1576.15094773219	11862
1578.59153795184	11926
1581.03138909928	11952
1583.47050152051	12165
1585.90887556123	12029
1588.34651156686	12046
1590.78340988246	12023
1593.21957085283	12273
1595.65499482245	12237
1598.08968213547	12333
1600.52363313578	12108
1602.95684816694	12326
1605.38932757224	12224
1607.82107169462	12341
1610.25208087677	12284
1612.68235546107	12551
1615.1118957896	12407
1617.54070220415	12527
1619.96877504621	12398
1622.39611465701	12580
1624.82272137746	12511
1627.24859554818	12435
1629.67373750953	12451
1632.09814760155	12588
1634.52182616404	12532
1636.94477353647	12753
1639.36699005806	12685
1641.78847606776	12820
1644.20923190418	12897
1646.62925790573	12933
1649.04855441048	12984
1651.46712175628	13112
1653.88496028066	13048
1656.3020703209	13307
1658.71845221401	13138
1661.13410629671	13354
1663.54903290547	13491
1665.96323237649	13574
1668.37670504571	13521
1670.78945124877	13545
1673.20147132109	13705
1675.61276559779	13861
1678.02333441377	13975
1680.43317810362	13927
1682.84229700171	14198
1685.25069144213	14066
1687.65836175872	14385
1690.06530828507	14392
1692.47153135451	14397
1694.87703130009	14341
1697.28180845467	14649
1699.6858631508	14619
1702.08919572081	14612
1704.49180649676	14740
1706.89369581049	14916
1709.29486399355	14892
1711.69531137731	14941
1714.09503829282	14906
1716.49404507095	15058
1718.89233204229	14966
1721.28989953721	14949
1723.68674788581	15073
1726.08287741798	15286
1728.47828846338	15446
1730.87298135139	15189
1733.26695641119	15322
1735.66021397173	15330
1738.05275436169	15468
1740.44457790954	15557
1742.83568494354	15514
1745.22607579168	15716
1747.61575078175	15766
1750.00471024128	15775
1752.39295449761	16014
1754.78048387783	15847
1757.16729870881	15996
1759.5533993172	16142
1761.93878602942	16219
1764.32345917168	16278
1766.70741906995	16462
1769.09066604999	16615
1771.47320043735	16673
1773.85502255735	16742
1776.2361327351	16817
1778.61653129548	16845
1780.99621856318	16954
1783.37519486264	17394
1785.75346051813	17334
1788.13101585368	17537
1790.5078611931	17418
1792.88399686002	17711
1795.25942317785	17485
1797.63414046977	17662
1800.00814905878	17806
1802.38144926766	18001
1804.75404141898	17982
1807.12592583514	17996
1809.49710283829	18301
1811.86757275039	18215
1814.23733589322	18493
1816.60639258834	18362
1818.97474315712	18398
1821.34238792073	18662
1823.70932720012	18611
1826.07556131608	18734
1828.44109058918	18753
1830.8059153398	18861
1833.17003588812	18865
1835.53345255413	18840
1837.89616565765	18899
1840.25817551827	19035
1842.61948245541	19220
1844.9800867883	19145
1847.33998883598	19303
1849.69918891729	19370
1852.05768735091	19702
1854.4154844553	19491
1856.77258054875	19552
1859.12897594938	19733
1861.4846709751	19677
1863.83966594366	19799
1866.19396117261	19937
1868.54755697932	20096
1870.90045368099	20264
1873.25265159463	20005
1875.60415103708	20459
1877.95495232501	20666
1880.30505577486	20582
1882.65446170299	20817
1885.00317042548	20998
1887.35118225832	20948
1889.69849751726	21107
1892.04511651792	21127
1894.39103957574	21380
1896.73626700596	21462
1899.08079912368	21781
1901.42463624384	21956
1903.76777868116	21996
1906.11022675025	21991
1908.4519807655	22028
1910.79304104117	22123
1913.13340789134	22503
1915.47308162992	22111
1917.81206257067	22511
1920.15035102718	22625
1922.48794731286	22762
1924.82485174096	22652
1927.16106462461	22887
1929.49658627672	23147
1931.83141701008	22827
1934.1655571373	23021
1936.49900697085	22940
1938.83176682301	23022
1941.16383700594	23164
1943.49521783161	23209
1945.82590961186	23216
1948.15591265835	23074
1950.48522728262	23306
1952.81385379602	23370
1955.14179250976	23529
1957.46904373489	23383
1959.79560778233	23437
1962.12148496284	23594
1964.44667558701	23586
1966.77117996529	23907
1969.09499840799	23741
1971.41813122527	23801
1973.74057872714	24073
1976.06234122345	24117
1978.38341902391	24175
1980.7038124381	24362
1983.02352177543	24649
1985.34254734518	24373
1987.66088945649	24735
1989.97854841833	24877
1992.29552453956	25007
1994.61181812887	24821
1996.92742949483	25060
1999.24235894586	25166
2001.55660679023	25578
2003.87017333608	25620
2006.18305889143	25698
2008.49526376413	25820
2010.80678826189	25998
2013.1176326923	26246
2015.42779736282	26204
2017.73728258075	26393
2020.04608865326	26586
2022.3542158874	26405
2024.66166459008	26966
2026.96843506807	26923
2029.274527628	27248
2031.57994257637	27530
2033.88468021957	27363
2036.18874086383	27595
2038.49212481526	27819
2040.79483237983	27969
2043.0968638634	28282
2045.39821957169	28167
2047.69889981028	28286
2049.99890488462	28206
2052.29823510006	28454
2054.59689076181	28579
2056.89487217492	28671
2059.19217964437	28730
2061.48881347497	28773
2063.7847739714	29041
2066.08006143826	29138
2068.37467618	28899
2070.66861850093	29282
2072.96188870527	29553
2075.25448709707	29420
2077.54641398031	29680
2079.83766965881	29774
2082.12825443629	29734
2084.41816861634	29773
2086.70741250242	30051
2088.99598639789	29946
2091.28389060597	30187
2093.57112542978	30255
2095.85769117232	30638
2098.14358813644	30432
2100.42881662491	30579
2102.71337694037	30616
2104.99726938532	30730
2107.28049426219	30715
2109.56305187325	31087
2111.84494252069	31321
2114.12616650655	31171
2116.40672413278	31336
2118.68661570121	31151
2120.96584151355	31628
2123.24440187138	31893
2125.52229707622	31822
2127.79952742943	31754
2130.07609323227	32423
2132.35199478588	32171
2134.62723239132	32375
2136.90180634949	32599
2139.17571696123	32537
2141.44896452723	32629
2143.72154934809	32827
2145.99347172429	32856
2148.26473195623	32926
2150.53533034415	33317
2152.80526718821	33257
2155.07454278848	33436
2157.3431574449	33241
2159.61111145728	33502
2161.87840512538	33259
2164.1450387488	33338
2166.41101262707	33593
2168.67632705959	33519
2170.94098234567	33812
2173.20497878451	33301
2175.46831667519	33738
2177.73099631672	33462
2179.99301800797	33413
2182.25438204772	33307
2184.51508873466	33436
2186.77513836735	32874
2189.03453124427	33294
2191.29326766378	33554
2193.55134792416	33516
2195.80877232355	33447
2198.06554116004	33505
2200.32165473157	33173
2202.577113336	33211
2204.83191727111	33355
2207.08606683453	33306
2209.33956232384	32931
2211.59240403648	33248
2213.84459226982	33068
2216.09612732112	33268
2218.34700948753	32892
2220.59723906612	32903
2222.84681635385	32945
2225.09574164758	32624
2227.34401524408	32477
2229.59163744002	32510
2231.83860853197	32493
2234.08492881639	32174
2236.33059858968	32236
2238.5756181481	32465
2240.81998778784	32389
2243.06370780499	32056
2245.30677849555	32042
2247.54920015539	32219
2249.79097308033	31935
2252.03209756607	31891
2254.27257390822	31580
2256.51240240228	31647
2258.75158334369	31641
2260.99011702777	31306
2263.22800374976	31678
2265.46524380477	31468
2267.70183748786	31048
2269.93778509399	31341
2272.17308691801	30986
2274.40774325467	31022
2276.64175439866	30908
2278.87512064454	31005
2281.10784228682	30480
2283.33991961987	30626
2285.571352938	30587
2287.80214253541	30337
2290.03228870623	30552
2292.26179174449	30315
2294.4906519441	30251
2296.71886959892	30394
2298.9464450027	29977
2301.1733784491	30214
2303.39967023169	29848
2305.62532064395	29928
2307.85032997926	29550
2310.07469853093	29950
2312.29842659216	29442
2314.52151445608	29871
2316.7439624157	29396
2318.96577076397	29449
2321.18693979374	29458
2323.40746979777	29152
2325.62736106873	29046
2327.8466138992	29268
2330.06522858166	28874
2332.28320540853	28958
2334.50054467212	29024
2336.71724666465	28832
2338.93331167827	28715
2341.14874000501	28702
2343.36353193685	28189
2345.57768776564	28215
2347.79120778319	28317
2350.00409228117	28302
2352.21634155121	28148
2354.42795588482	27902
2356.63893557342	27859
2358.84928090838	27729
2361.05899218094	27705
2363.26806968228	27717
2365.47651370347	27723
2367.68432453552	27542
2369.89150246933	27521
2372.09804779571	27132
2374.30396080541	27474
2376.50924178907	27208
2378.71389103725	26892
2380.91790884042	27134
2383.12129548897	26823
2385.3240512732	26865
2387.52617648332	26895
2389.72767140946	26784
2391.92853634165	26603
2394.12877156985	26323
2396.32837738392	26624
2398.52735407365	26517
2400.72570192873	26463
2402.92342123875	26085
2405.12051229325	26182
2407.31697538167	26031
2409.51281079333	26050
2411.70801881751	25900
2413.90259974339	26135
2416.09655386004	25874
2418.28988145648	25883
2420.48258282162	25784
2422.6746582443	25594
2424.86610801325	25657
2427.05693241713	25495
2429.24713174452	25407
2431.43670628389	25619
2433.62565632365	25508
2435.81398215212	25163
2438.00168405752	25377
2440.18876232799	25191
2442.37521725158	25159
2444.56104911628	24941
2446.74625820994	24920
2448.93084482038	24709
2451.1148092353	24751
2453.29815174233	24710
2455.480872629	24635
2457.66297218275	24646
2459.84445069097	24213
2462.02530844092	24389
2464.2055457198	24099
2466.38516281471	24186
2468.56416001267	24180
2470.74253760061	24158
2472.92029586537	24034
2475.09743509372	24015
2477.27395557232	23695
2479.44985758777	23880
2481.62514142655	23922
2483.79980737508	23799
2485.97385571969	23594
2488.14728674661	23616
2490.32010074198	23471
2492.49229799188	23560
2494.66387878228	23316
2496.83484339905	23748
2499.00519212802	23570
2501.17492525488	23421
2503.34404306528	23576
2505.51254584473	23171
2507.6804338787	23532
2509.84770745254	23229
2512.01436685153	23194
2514.18041236085	23049
2516.34584426561	23447
2518.51066285081	23062
2520.67486840138	23135
2522.83846120214	23074
2525.00144153784	22922
2527.16380969314	23085
2529.32556595261	22828
2531.48671060072	23015
2533.64724392186	22909
2535.80716620033	22931
2537.96647772034	22699
2540.12517876602	22579
2542.2832696214	22853
2544.44075057041	22594
2546.59762189691	22391
2548.75388388466	22295
2550.90953681735	22240
2553.06458097853	22156
2555.21901665172	22526
2557.37284412031	22247
2559.5260636676	22039
2561.67867557684	22132
2563.83068013113	22026
2565.98207761351	21900
2568.13286830695	21786
2570.28305249429	21710
2572.43263045829	21732
2574.58160248163	21574
2576.72996884689	21363
2578.87772983655	21406
2581.02488573303	21296
2583.1714368186	21471
2585.31738337549	21332
2587.46272568582	21049
2589.60746403161	21278
2591.75159869479	21265
2593.89512995722	21161
2596.03805810061	20928
2598.18038340665	21092
2600.32210615686	20802
2602.46322663274	20866
2604.60374511563	20866
2606.74366188683	20746
2608.88297722751	20629
2611.02169141875	20744
2613.15980474156	20814
2615.29731747681	20781
2617.43422990532	20558
2619.57054230779	20440
2621.70625496483	20458
2623.84136815694	20480
2625.97588216456	20680
2628.10979726799	20275
2630.24311374746	20447
2632.3758318831	20267
2634.50795195493	20319
2636.6394742429	20294
2638.77039902682	20252
2640.90072658645	20230
2643.0304572014	20353
2645.15959115123	20227
2647.28812871538	20123
2649.41607017319	20210
2651.5434158039	20353
2653.67016588665	20114
2655.79632070049	20243
2657.92188052436	20037
2660.04684563711	20256
2662.17121631749	19914
2664.29499284413	20364
2666.41817549558	19890
2668.54076455027	19950
2670.66276028656	19834
2672.78416298267	19841
2674.90497291675	19719
2677.02519036682	19861
2679.14481561082	19942
2681.26384892658	19930
2683.38229059182	19679
2685.50014088417	19766
2687.61740008114	19724
2689.73406846017	19701
2691.85014629854	19910
2693.96563387347	19570
2696.08053146206	19741
2698.1948393413	19604
2700.3085577881	19604
2702.42168707924	19534
2704.53422749139	19372
2706.64617930112	19612
2708.75754278492	19520
2710.86831821913	19457
2712.97850588002	19527
2715.08810604372	19379
2717.19711898628	19343
2719.30554498363	19118
2721.41338431158	19292
2723.52063724586	19376
2725.62730406206	19289
2727.73338503569	19299
2729.83888044213	18987
2731.94379055664	19284
2734.04811565441	19318
2736.15185601048	19305
2738.25501189979	19290
2740.35758359718	19099
2742.45957137738	19039
2744.56097551499	19044
2746.6617962845	19072
2748.7620339603	19031
2750.86168881666	18856
2752.96076112774	18958
2755.05925116758	19075
2757.15715921012	18781
2759.25448552917	18863
2761.35123039843	18953
2763.44739409148	18804
2765.5429768818	18724
2767.63797904275	18886
2769.73240084756	18699
2771.82624256934	18849
2773.91950448113	18746
2776.01218685579	18656
2778.10428996609	18855
2780.19581408469	18909
2782.28675948414	18786
2784.37712643683	18896
2786.46691521507	18616
2788.55612609104	18597
2790.64475933678	18703
2792.73281522425	18584
2794.82029402525	18470
2796.90719601149	18522
2798.99352145453	18340
2801.07927062583	18409
2803.16444379672	18370
2805.24904123841	18306
2807.33306322197	18261
2809.41651001838	18424
2811.49938189847	18255
2813.58167913296	18265
2815.66340199243	18449
2817.74455074734	18448
2819.82512566805	18430
2821.90512702475	18385
2823.98455508754	18134
2826.06341012637	18332
2828.14169241109	18090
2830.2194022114	18400
2832.29653979686	18555
2834.37310543694	18608
2836.44909940096	18733
2838.5245219581	18915
2840.59937337744	19195
2842.67365392791	19383
2844.74736387829	19550
2846.82050349727	19745
2848.8930730534	19703
2850.96507281506	19432
2853.03650305056	19471
2855.10736402802	19338
2857.17765601545	19223
2859.24737928074	19346
2861.31653409164	19132
2863.38512071574	18882
2865.45313942054	18896
2867.52059047335	18932
2869.58747414139	19119
2871.65379069173	19033
2873.7195403913	19231
2875.78472350688	19312
2877.84934030515	19895
2879.91339105262	20067
2881.97687601567	19983
2884.03979546053	19726
2886.10214965332	19584
2888.16393886	19407
2890.22516334639	19109
2892.28582337816	18969
2894.34591922087	19158
2896.40545113992	19368
2898.46441940054	19168
2900.52282426787	18977
2902.58066600687	18918
2904.63794488237	18949
2906.69466115906	18719
2908.75081510147	18811
2910.806406974	18899
2912.8614370409	18802
2914.91590556626	18947
2916.96981281404	18835
2919.02315904807	18523
2921.07594453199	18596
2923.12816952932	18810
2925.17983430343	18646
2927.23093911753	18562
2929.28148423469	18748
2931.33146991782	18424
2933.3808964297	18299
2935.42976403294	18403
2937.47807299	18287
2939.5258235632	18163
2941.57301601469	18123
2943.61965060648	17958
2945.66572760042	18086
2947.71124725823	17971
2949.75620984143	17996
2951.80061561143	17903
2953.84446482945	17789
2955.88775775656	17863
2957.9304946537	17659
2959.97267578162	17883
2962.01430140095	17720
2964.05537177211	17800
2966.09588715541	17764
2968.13584781097	17815
2970.17525399875	18000
2972.21410597859	17749
2974.25240401011	17883
2976.29014835283	17777
2978.32733926604	17986
2980.36397700892	17929
2982.40006184049	17980
2984.43559401955	17891
2986.4705738048	18044
2988.50500145473	18016
2990.53887722771	17912
2992.57220138189	17940
2994.6049741753	18145
2996.63719586576	18228
2998.66886671097	18403
3000.69998696843	18328
3002.73055689549	18207
3004.7605767493	18248
3006.79004678688	18283
3008.81896726505	18339
3010.84733844048	18193
3012.87516056966	18273
3014.9024339089	18471
3016.92915871433	18535
3018.95533524196	18720
3020.98096374756	18652
3023.00604448675	18645
3025.030577715	18558
3027.05456368757	18535
3029.07800265956	18656
3031.10089488589	18573
3033.12324062131	18666
3035.14504012038	18919
3037.16629363749	18689
3039.18700142685	18860
3041.20716374249	18704
3043.22678083826	18670
3045.24585296782	18927
3047.26438038468	18750
3049.28236334212	18743
3051.29980209329	18949
3053.31669689111	18789
3055.33304798835	18910
3057.34885563757	18895
3059.36412009117	18990
3061.37884160134	18880
3063.39302042011	19020
3065.40665679931	19006
3067.41975099058	18951
3069.43230324538	18989
3071.44431381495	18734
3073.45578295041	19182
3075.46671090261	18982
3077.47709792227	18964
3079.48694425989	19047
3081.49625016578	19217
3083.50501589008	19083
3085.5132416827	19008
3087.5209277934	18995
3089.52807447169	19050
3091.53468196695	19153
3093.54075052832	19045
3095.54628040476	19053
3097.55127184503	19152
3099.55572509769	19036
3101.55964041111	18996
3103.56301803346	19080
3105.5658582127	19232
3107.56816119661	19474
3109.56992723275	18994
3111.57115656849	19408
3113.571849451	19164
3115.57200612724	19368
3117.57162684397	19188
3119.57071184775	19450
3121.56926138493	19577
3123.56727570166	19686
3125.56475504389	19600
3127.56169965735	19625
3129.55810978757	19674
3131.55398567987	19708
3133.54932757937	19561
3135.54413573099	19901
3137.53841037939	19670
3139.53215176909	19737
3141.52536014435	19981
3143.51803574924	19859
3145.51017882762	20061
3147.50178962311	20023
3149.49286837916	20062
3151.48341533897	20192
3153.47343074553	20116
3155.46291484164	20049
3157.45186786985	20052
3159.44029007252	20350
3161.42818169179	20092
3163.41554296955	20277
3165.40237414753	20272
3167.38867546718	20380
3169.37444716975	20166
3171.35968949631	20609
3173.34440268764	20291
3175.32858698436	20364
3177.31224262682	20421
3179.29536985517	20489
3181.27796890934	20431
3183.26004002902	20572
3185.24158345368	20374
3187.22259942256	20682
3189.2030881747	20491
3191.18304994886	20663
3193.16248498363	20632
3195.14139351733	20687
3197.11977578807	20752
3199.09763203371	20931
3201.07496249191	20975
3203.05176740007	21026
3205.02804699537	20970
3207.00380151475	20854
3208.97903119493	20889
3210.95373627238	21277
3212.92791698335	21269
3214.90157356383	21126
3216.8747062496	21316
3218.84731527619	21263
3220.81940087889	21568
3222.79096329275	21391
3224.76200275259	21372
3226.73251949298	21646
3228.70251374825	21453
3230.67198575251	21404
3232.64093573959	21737
3234.6093639431	21963
3236.57727059641	21821
3238.54465593261	22081
3240.51152018461	22079
3242.47786358502	21939
3244.44368636621	21827
3246.40898876031	22038
3248.37377099923	22197
3250.33803331458	22084
3252.30177593775	22251
3254.26499909987	22208
3256.22770303184	22520
3258.18988796427	22552
3260.15155412755	22387
3262.1127017518	22299
3264.0733310669	22463
3266.03344230246	22330
3267.99303568784	22426
3269.95211145215	22505
3271.91066982422	22626
3273.86871103267	22476
3275.82623530581	22743
3277.7832428717	22636
3279.73973395818	22669
3281.69570879278	22883
3283.6511676028	22899
3285.60611061527	22938
3287.56053805694	22794
3289.51445015432	22829
3291.46784713364	22742
3293.42072922088	22938
3295.37309664173	23034
3297.32494962163	22900
3299.27628838575	22759
3301.227113159	22940
3303.17742416601	23097
3305.12722163114	23226
3307.07650577848	23227
3309.02527683185	23242
3310.9735350148	23293
3312.9212805506	23499
3314.86851366225	23080
3316.81523457249	23339
3318.76144350377	23503
3320.70714067825	23218
3322.65232631783	23311
3324.59700064415	23199
3326.54116387854	23039
3328.48481624207	23209
3330.42795795551	23355
3332.37058923938	23089
3334.31271031389	23350
3336.25432139898	23291
3338.19542271432	23411
3340.13601447927	23364
3342.07609691292	23362
3344.01567023407	23447
3345.95473466124	23119
3347.89329041266	23570
3349.83133770627	23459
3351.76887675973	23492
3353.70590779039	23576
3355.64243101534	23513
3357.57844665135	23550
3359.51395491492	23373
3361.44895602224	23552
3363.38345018922	23548
3365.31743763148	23707
3367.25091856432	23696
3369.18389320278	23530
3371.11636176156	23812
3373.0483244551	23853
3374.97978149754	23959
3376.91073310269	23853
3378.84117948409	23913
3380.77112085498	24078
3382.70055742826	23925
3384.62948941659	23896
3386.55791703227	24177
3388.48584048733	24079
3390.41325999348	24233
3392.34017576214	24306
3394.2665880044	24242
3396.19249693107	24340
3398.11790275263	24328
3400.04280567926	24500
3401.96720592084	24566
3403.89110368692	24423
3405.81449918675	24549
3407.73739262928	24659
3409.65978422311	24649
3411.58167417658	24905
3413.50306269768	24672
3415.42394999408	24732
3417.34433627316	24818
3419.26422174195	24902
3421.18360660721	24869
3423.10249107532	24678
3425.02087535239	24940
3426.93875964421	25052
3428.8561441562	24777
3430.77302909353	24835
3432.68941466097	24599
3434.60530106301	24847
3436.52068850383	24944
3438.43557718726	25090
3440.34996731681	24729
3442.26385909565	25071
3444.17725272664	24853
3446.09014841231	24885
3448.00254635486	25069
3449.91444675614	25138
3451.82584981771	24819
3453.73675574076	24893
3455.64716472616	24699
3457.55707697445	24896
3459.46649268584	25016
3461.37541206018	25024
3463.28383529703	24965
3465.19176259555	24976
3467.09919415464	24925
3469.00613017278	24906
3470.91257084817	25312
3472.81851637863	24931
3474.72396696168	25143
3476.62892279446	25054
3478.53338407379	24989
3480.43735099614	24812
3482.34082375764	24953
3484.24380255404	24981
3486.1462875808	25113
3488.048279033	25032
3489.94977710537	25064
3491.85078199231	25188
3493.75129388783	25212
3495.65131298566	25082
3497.5508394791	25027
3499.44987356115	24844