201.866871357051	631.5
204.754250281454	636.75
207.640596790938	638.5
210.525911876299	638.25
213.410196525689	631.75
216.293451724508	636
219.175678455485	640.75
222.056877698662	636
224.937050431388	635.25
227.816197628363	646
230.694320261602	651
233.571419300504	650
236.447495711764	649
239.322550459507	643.5
242.196584505182	641.5
245.069598807626	638
247.941594323078	643.25
250.812572005154	647.5
253.682532804884	642
256.551477670699	653
259.419407548456	661.25
262.286323381439	652.5
265.152226110364	643.5
268.017116673389	643
270.880996006115	638
273.743865041622	641
276.605724710436	637.25
279.466575940562	640.5
282.326419657496	636.75
285.1852567842	642.5
288.043088241157	642.5
290.899914946349	640
293.75573781526	641.25
296.610557760898	643.5
299.464375693817	638.5
302.317192522078	642.5
305.169009151297	642.5
308.019826484655	641.75
310.86964542287	644.25
313.718466864233	643
316.566291704614	635.75
319.413120837457	640.5
322.258955153804	640.75
325.103795542291	634.75
327.947642889128	637.5
330.79049807819	646.25
333.632361990927	648.25
336.473235506444	641.75
339.31311950145	644.25
342.152014850322	648
344.989922425062	643.75
347.826843095354	640
350.662777728528	647.75
353.497727189577	643
356.331692341195	644
359.164674043732	643.75
361.996673155267	646.25
364.827690531536	649.5
367.65772702602	649.25
370.486783489887	651.25
373.314860772047	654
376.14195971912	642.5
378.968081175466	653.25
381.793225983212	654.75
384.617394982201	650.5
387.44058901005	648.75
390.262808902131	656.25
393.08405549161	656.25
395.904329609395	650.5
398.723632084213	648.75
401.541963742569	647.5
404.359325408779	650.25
407.175717904938	653.5
409.991142050982	654.75
412.805598664665	654.25
415.619088561551	651.5
418.43161255505	655.5
421.243171456415	652.5
424.053766074758	656.5
426.863397217017	657.75
429.672065688024	657.75
432.479772290455	656.75
435.286517824879	657.25
438.092303089736	654.5
440.897128881359	660.75
443.70099599399	653.5
446.503905219761	658.25
449.305857348711	656.75
452.106853168796	653.75
454.906893465919	655.75
457.705979023885	654
460.504110624439	656.5
463.3012890473	660.5
466.097515070087	658.25
468.892789468424	656.5
471.687113015869	658.5
474.48048648395	655.5
477.272910642198	663.25
480.064386258109	664.5
482.854914097159	667.75
485.644494922839	661.75
488.433129496636	667
491.220818578047	661.5
494.007562924584	659.25
496.793363291785	655
499.578220433217	667.25
502.362135100473	659.25
505.145108043209	662.75
507.927140009098	662.25
510.708231743909	667
513.488383991433	660.5
516.267597493556	674
519.04587299022	664
521.82321121946	662
524.599612917398	667
527.375078818233	672.75
530.149609654287	662.25
532.923206155967	663.5
535.695869051804	661.75
538.467599068448	665
541.238396930665	668.75
544.008263361364	668
546.777199081578	663
549.545204810493	664.75
552.312281265436	667.5
555.078429161898	667.5
557.843649213533	666
560.607942132156	662.75
563.371308627753	666.5
566.133749408495	672.25
568.895265180756	676.25
571.655856649064	681
574.415524516189	673.5
577.174269483075	682.25
579.932092248884	689.25
582.688993510994	696.5
585.444973965023	702.25
588.200034304795	727.5
590.95417522237	719.25
593.70739740807	733
596.459701550433	723.75
599.21108833628	702
601.961558450668	685
604.711112576933	684.5
607.459751396673	672.75
610.207475589748	671.5
612.954285834338	679.75
615.700182806879	667.25
618.445167182101	673.5
621.189239633055	673.75
623.932400831087	670
626.674651445839	675.25
629.415992145303	670.25
632.156423595745	673.75
634.895946461813	674.75
637.634561406449	670.25
640.37226909096	673.5
643.109070174978	673
645.844965316508	672.25
648.579955171888	671.5
651.314040395846	670.25
654.047221641456	676.25
656.779499560176	671.75
659.510874801828	662.25
662.241348014642	669.25
664.97091984524	675
667.699590938606	678.5
670.427361938164	683
673.15423348573	700.5
675.880206221526	740.5
678.605280784206	783.75
681.329457810829	797.75
684.05273793692	749.75
686.775121796389	718.5
689.49661002163	702.75
692.217203243454	691
694.936902091144	696.75
697.655707192425	690.75
700.373619173493	688.5
703.09063865901	679.5
705.806766272093	686.75
708.522002634378	682
711.236348365946	681.75
713.94980408538	687
716.662370409762	683.25
719.374047954676	690
722.08483733419	679.5
724.794739160909	678
727.503754045949	687.75
730.21188259892	679.75
732.919125427998	677
735.625483139855	675
738.330956339723	682.75
741.035545631374	688.75
743.739251617106	711.25
746.44207489779	723.25
749.144016072852	724.5
751.845075740272	697.5
754.545254496603	695.5
757.244552936976	690.75
759.94297165508	684.25
762.640511243222	686
765.337172292249	685
768.032955391649	686
770.727861129482	684.25
773.421890092413	694.5
776.11504286572	685.5
778.807320033298	681.5
781.49872217765	685.75
784.18924987991	690
786.87890371984	693
789.567684275826	678.5
792.255592124908	688.25
794.94262784276	680.25
797.628792003703	683
800.314085180715	688
802.998507945427	684
805.682060868145	683.25
808.364744517821	683.5
811.046559462105	688
813.727506267311	678.5
816.407585498422	687.75
819.08679771913	687
821.765143491822	688.75
824.442623377563	687.75
827.119237936127	709.25
829.794987726003	714.75
832.469873304377	727
835.143895227167	721.75
837.817054048985	714.25
840.489350323205	717.75
843.160784601892	714.25
845.831357435894	719.5
848.501069374739	715
851.169920966753	711.25
853.837912758987	701.75
856.505045297232	698.25
859.171319126071	698.25
861.836734788823	703.25
864.501292827579	695
867.164993783208	694
869.827838195361	699.75
872.489826602454	694.25
875.150959541701	700.25
877.811237549104	687.25
880.470661159456	697.5
883.129230906357	693
885.786947322205	683
888.443810938206	691
891.099822284385	695.25
893.754981889586	688
896.409290281452	703.75
899.062747986485	685.25
901.715355529999	695.25
904.367113436154	694.75
907.01802222793	701
909.668082427172	694.75
912.317294554574	698.75
914.965659129659	697.5
917.613176670835	700
920.259847695364	697.5
922.90567271936	689
925.550652257825	710.75
928.194786824621	700.75
930.838076932512	706.25
933.480523093109	703.25
936.122125816953	695
938.762885613447	705
941.402802990899	701
944.041878456523	706.5
946.680112516428	710.75
949.31750567563	726.5
951.954058438081	739
954.589771306633	736.75
957.224644783048	723.25
959.858679368044	710
962.491875561238	710.25
965.12423386121	702.5
967.75575476545	710
970.386438770423	714
973.016286371501	710.5
975.645298063046	704.25
978.273474338355	715.25
980.900815689674	702.5
983.527322608243	710.5
986.152995584245	709
988.777835106834	714.25
991.401841664148	712.75
994.025015743307	713.25
996.647357830407	715.5
999.268868410534	719
1001.88954796777	722.25
1004.50939698518	726
1007.12841594484	726
1009.74660532783	727.5
1012.36396561423	727.5
1014.98049728314	724
1017.59620081267	717.5
1020.21107667995	719.5
1022.82512536112	717.5
1025.43834733138	726.5
1028.05074306493	728.25
1030.66231303501	730
1033.27305771392	749.75
1035.88297757299	746.25
1038.49207308257	759.5
1041.10034471211	736.75
1043.70779293008	743
1046.31441820402	732.5
1048.92022100052	734.5
1051.52520178525	738.5
1054.12936102295	747.25
1056.73269917742	757.5
1059.33521671154	776.25
1061.93691408729	779
1064.53779176571	776
1067.13785020694	764.25
1069.73708987022	741
1072.33551121386	751
1074.93311469528	741.75
1077.52990077103	742
1080.12586989674	739.75
1082.72102252714	748
1085.31535911611	754.25
1087.90888011663	746.25
1090.50158598078	745.75
1093.09347715979	749.75
1095.68455410403	741.75
1098.27481726296	748.75
1100.86426708523	757.25
1103.45290401857	766.25
1106.04072850991	762.25
1108.6277410053	770.5
1111.21394194993	760.25
1113.79933178816	769.5
1116.3839109635	772.25
1118.96767991862	769.25
1121.55063909539	779
1124.13278893477	806.5
1126.71412987696	826.5
1129.29466236132	835.5
1131.87438682637	818.75
1134.45330370982	808.5
1137.03141344858	822
1139.60871647872	839
1142.18521323554	853.5
1144.7609041535	838.5
1147.33578966629	811.5
1149.90987020676	790
1152.48314620702	775
1155.05561809835	769.75
1157.62728631125	773.25
1160.19815127545	765.5
1162.76821341988	780
1165.33747317271	777.25
1167.90593096133	768.75
1170.47358721235	785.25
1173.04044235163	785
1175.60649680425	796.5
1178.17175099454	786.75
1180.73620534607	797.25
1183.29986028165	798.5
1185.86271622336	797
1188.42477359249	795.75
1190.98603280964	799.75
1193.54649429462	802.75
1196.10615846653	805.25
1198.66502574372	803
1201.22309654385	799.75
1203.78037128378	808.25
1206.33685037971	810.5
1208.89253424709	811.5
1211.44742330063	819.75
1214.00151795438	808.5
1216.55481862163	819
1219.10732571497	816.75
1221.65903964631	804.5
1224.20996082683	805.75
1226.760089667	802
1229.30942657664	797.25
1231.85797196483	807.25
1234.40572623998	804.75
1236.95268980981	812.5
1239.49886308136	808
1242.04424646098	811.25
1244.58884035435	810
1247.13264516647	795.5
1249.67566130166	813
1252.21788916358	816.5
1254.75932915524	820.25
1257.29998167896	830.25
1259.83984713639	824.5
1262.37892592857	836
1264.91721845586	830.25
1267.45472511795	830.5
1269.9914463139	842
1272.52738244213	845
1275.0625339004	840.5
1277.59690108587	847
1280.130484395	853.5
1282.66328422367	843.5
1285.19530096712	861.75
1287.72653501993	865
1290.25698677608	889.25
1292.78665662894	917
1295.31554497125	940.75
1297.8436521951	929.75
1300.37097869203	920.25
1302.89752485292	921.5
1305.42329106805	916
1307.94827772713	922.25
1310.47248521921	927.75
1312.99591393279	913.75
1315.51856425575	899
1318.04043657536	895.5
1320.56153127836	902
1323.08184875083	914.75
1325.6013893783	918.75
1328.12015354572	945.25
1330.63814163744	976.75
1333.15535403727	1004.25
1335.67179112839	1075.5
1338.18745329347	1166.25
1340.70234091454	1206.25
1343.21645437314	1152.75
1345.72979405019	1047
1348.24236032607	994.75
1350.75415358059	955.25
1353.26517419303	953.5
1355.7754225421	956.5
1358.28489900594	951
1360.79360396218	960.25
1363.30153778787	972.25
1365.80870085955	980.75
1368.31509355319	985.75
1370.82071624424	991.75
1373.32556930762	984.25
1375.8296531177	979.25
1378.33296804832	990.75
1380.83551447282	979.75
1383.33729276399	982.25
1385.83830329408	986.5
1388.33854643489	988.75
1390.83802255762	1003.5
1393.33673203301	990.5
1395.83467523128	1003.5
1398.33185252211	1011.75
1400.82826427471	1030.25
1403.32391085777	1037.25
1405.81879263947	1027.25
1408.31290998752	1030.5
1410.80626326908	1055.75
1413.29885285087	1082.25
1415.79067909909	1083.5
1418.28174237944	1078
1420.77204305717	1083.75
1423.26158149702	1075.75
1425.75035806323	1107.75
1428.2383731196	1121.5
1430.72562702942	1117.75
1433.21212015554	1138.5
1435.69785286028	1131.75
1438.18282550555	1168.75
1440.66703845275	1182.75
1443.15049206284	1219.5
1445.6331866963	1281.75
1448.11512271316	1343
1450.59630047298	1397.5
1453.07672033486	1374.75
1455.55638265748	1289.75
1458.03528779902	1250
1460.51343611725	1248.5
1462.99082796946	1246.75
1465.46746371252	1246.5
1467.94334370285	1257
1470.41846829642	1268.25
1472.89283784878	1265.25
1475.36645271503	1268
1477.83931324983	1295.75
1480.31141980743	1295.5
1482.78277274164	1314.25
1485.25337240583	1287.5
1487.72321915297	1290.5
1490.19231333557	1305
1492.66065530578	1311.5
1495.12824541525	1303
1497.5950840153	1310.5
1500.06117145678	1322.75
1502.52650809014	1322.75
1504.99109426543	1332.75
1507.45493033227	1354.5
1509.91801663992	1351
1512.38035353717	1372.75
1514.84194137248	1412.75
1517.30278049386	1475
1519.76287124894	1551.5
1522.22221398497	1679
1524.68080904876	1864.5
1527.13865678681	2044.5
1529.59575754514	2030.25
1532.05211166945	1819.25
1534.50771950503	1682
1536.96258139678	1576.75
1539.41669768924	1540.5
1541.87006872656	1546
1544.32269485252	1533.75
1546.77457641051	1533.75
1549.22571374357	1573.5
1551.67610719434	1560.5
1554.12575710513	1595.75
1556.57466381785	1593.5
1559.02282767408	1577.25
1561.47024901499	1611
1563.91692818144	1606
1566.3628655139	1636.25
1568.80806135249	1634.5
1571.252516037	1640.25
1573.6962299068	1677.75
1576.13920330099	1691.25
1578.58143655828	1702.5
1581.02293001704	1740.5
1583.46368401528	1718.5
1585.90369889071	1738.25
1588.34297498065	1750.25
1590.7815126221	1771
1593.21931215173	1799.5
1595.65637390588	1781.5
1598.09269822053	1777.75
1600.52828543135	1802.25
1602.96313587367	1780.5
1605.3972498825	1819.25
1607.83062779252	1819.5
1610.26326993808	1820.5
1612.69517665322	1846.25
1615.12634827165	1818.25
1617.55678512676	1828.5
1619.98648755163	1811.75
1622.41545587902	1837.75
1624.84369044138	1836
1627.27119157085	1849.75
1629.69795959924	1869
1632.12399485808	1866
1634.54929767859	1850.25
1636.97386839165	1894.25
1639.39770732789	1880.5
1641.8208148176	1898.5
1644.24319119078	1907
1646.66483677715	1909.25
1649.0857519061	1900.25
1651.50593690677	1932.75
1653.92539210795	1939
1656.3441178382	1944.5
1658.76211442575	1944
1661.17938219855	1943.25
1663.59592148428	1994
1666.01173261032	1978
1668.42681590377	2005.25
1670.84117169145	1994.5
1673.25480029991	1993.5
1675.66770205541	2000.5
1678.07987728393	2029.75
1680.49132631119	2020.25
1682.90204946263	2045.75
1685.31204706342	2043.25
1687.72131943846	2071
1690.1298669124	2064.25
1692.53768980957	2062.25
1694.94478845411	2092.5
1697.35116316982	2076.25
1699.75681428031	2083.25
1702.16174210887	2071
1704.56594697858	2105.25
1706.96942921222	2134.75
1709.37218913235	2107.25
1711.77422706125	2103.5
1714.17554332098	2099
1716.5761382333	2121.75
1718.97601211977	2116.75
1721.37516530169	2122.25
1723.77359810006	2132.75
1726.17131083572	2122.25
1728.56830382922	2135.5
1730.96457740087	2145.75
1733.36013187075	2119
1735.75496755868	2140.25
1738.14908478428	2129
1740.54248386689	2147
1742.93516512565	2128.25
1745.32712887946	2152
1747.71837544697	2157.5
1750.10890514662	2172.5
1752.49871829661	2172
1754.88781521492	2175.25
1757.27619621929	2173.75
1759.66386162726	2182.5
1762.05081175612	2172.75
1764.43704692297	2216.25
1766.82256744465	2169
1769.20737363782	2193.75
1771.59146581887	2211.75
1773.97484430405	2223.25
1776.35750940932	2230.5
1778.73946145048	2242.5
1781.12070074309	2244.25
1783.50122760249	2262
1785.88104234385	2272.5
1788.26014528209	2268.25
1790.63853673196	2253
1793.01621700796	2280
1795.39318642443	2300.5
1797.76944529549	2291.75
1800.14499393503	2316.75
1802.51983265681	2331.75
1804.8939617743	2359.25
1807.26738160085	2332
1809.64009244957	2323.25
1812.01209463339	2309.75
1814.38338846504	2367
1816.75397425706	2341.25
1819.12385232181	2363.25
1821.49302297142	2365
1823.86148651789	2345.75
1826.22924327299	2352
1828.59629354831	2394.25
1830.96263765526	2356
1833.32827590507	2359
1835.69320860877	2345.5
1838.05743607724	2365.5
1840.42095862113	2389
1842.78377655097	2396
1845.14589017707	2412.25
1847.50729980956	2417.75
1849.86800575843	2408
1852.22800833346	2396.75
1854.58730784427	2376.75
1856.94590460032	2414.75
1859.30379891087	2425.75
1861.66099108503	2451.75
1864.01748143175	2431.5
1866.37327025978	2448.25
1868.72835787773	2434
1871.08274459403	2449.5
1873.43643071697	2463
1875.78941655464	2458.75
1878.14170241498	2483.25
1880.4932886058	2502.5
1882.84417543469	2501
1885.19436320915	2498.75
1887.54385223646	2482.75
1889.89264282378	2504.75
1892.24073527809	2527
1894.58812990625	2524.75
1896.93482701493	2517.25
1899.28082691067	2523.75
1901.62612989984	2580
1903.97073628868	2546.5
1906.31464638326	2556
1908.6578604895	2548.25
1911.00037891321	2544
1913.34220196	2584.5
1915.68332993537	2588.5
1918.02376314468	2531
1920.36350189311	2575.75
1922.70254648573	2584
1925.04089722744	2592.25
1927.37855442303	2580.25
1929.71551837715	2567.5
1932.05178939426	2567.25
1934.38736777876	2598.5
1936.72225383484	2563.25
1939.0564478666	2606.75
1941.38995017799	2578.75
1943.72276107283	2598
1946.05488085479	2584.5
1948.38630982744	2552.25
1950.71704829419	2569.5
1953.04709655832	2590.5
1955.376454923	2589.75
1957.70512369126	2573.25
1960.03310316599	2560.5
1962.36039364999	2547.75
1964.68699544589	2570.5
1967.01290885622	2561.25
1969.33813418338	2587.25
1971.66267172965	2559
1973.98652179718	2589
1976.309684688	2583.75
1978.63216070402	2557.5
1980.95395014705	2594.75
1983.27505331873	2582.75
1985.59547052063	2605.75
1987.9152020542	2581
1990.23424822074	2589
1992.55260932146	2585.75
1994.87028565746	2592.5
1997.18727752968	2587.5
1999.503585239	2632
2001.81920908618	2607.75
2004.13414937184	2624.5
2006.44840639651	2624.5
2008.7619804606	2653.75
2011.07487186442	2651.75
2013.38708090815	2651.5
2015.6986078919	2653.25
2018.00945311564	2652.5
2020.31961687923	2679
2022.62909948246	2689.5
2024.93790122498	2713.25
2027.24602240636	2680.25
2029.55346332604	2715.25
2031.86022428337	2700.5
2034.16630557761	2735.5
2036.47170750791	2722
2038.77643037331	2730.25
2041.08047447275	2719.75
2043.38384010509	2695
2045.68652756907	2763.75
2047.98853716335	2731.5
2050.28986918648	2710.25
2052.59052393692	2750.25
2054.89050171302	2771.25
2057.18980281306	2746.5
2059.4884275352	2766.75
2061.78637617753	2746
2064.08364903802	2759.25
2066.38024641457	2774.75
2068.67616860497	2777.75
2070.97141590694	2773.25
2073.26598861809	2760.25
2075.55988703595	2782
2077.85311145796	2788.25
2080.14566218145	2801
2082.43753950371	2802.75
2084.72874372188	2766.5
2087.01927513307	2802.5
2089.30913403428	2799.75
2091.59832072241	2820.75
2093.88683549429	2833.75
2096.17467864666	2811.75
2098.46185047619	2822.5
2100.74835127944	2837.75
2103.03418135292	2848.25
2105.31934099303	2806.5
2107.6038304961	2833.75
2109.88765015838	2845.5
2112.17080027602	2835.75
2114.45328114513	2889.75
2116.7350930617	2879
2119.01623632165	2869.5
2121.29671122085	2847.5
2123.57651805505	2857.25
2125.85565711996	2892.75
2128.13412871117	2884.25
2130.41193312424	2920.25
2132.68907065462	2899.5
2134.96554159771	2880
2137.24134624881	2907
2139.51648490317	2913.75
2141.79095785593	2930.75
2144.0647654022	2934.25
2146.33790783698	2926.25
2148.61038545524	2894
2150.88219855182	2951
2153.15334742154	2941.75
2155.42383235911	2935.75
2157.6936536592	2950.75
2159.9628116164	2938
2162.23130652522	2959
2164.49913868011	2947.25
2166.76630837544	2957
2169.03281590552	2939.5
2171.2986615646	2977
2173.56384564685	2927.5
2175.82836844637	2915.75
2178.0922302572	2954.5
2180.35543137332	2943.5
2182.61797208862	2964.75
2184.87985269695	2928.25
2187.14107349208	2928.5
2189.40163476773	2935
2191.66153681753	2883.25
2193.92077993507	2918.5
2196.17936441386	2922
2198.43729054735	2914.25
2200.69455862894	2905.25
2202.95116895194	2895.75
2205.20712180962	2876
2207.46241749519	2879.25
2209.71705630179	2892.5
2211.97103852248	2868
2214.2243644503	2879.25
2216.47703437819	2854
2218.72904859905	2860.5
2220.98040740571	2854.75
2223.23111109095	2862.5
2225.4811599475	2820.25
2227.73055426799	2873.5
2229.97929434504	2826.5
2232.22738047118	2835.5
2234.47481293889	2790.25
2236.72159204058	2831.25
2238.96771806864	2800.75
2241.21319131536	2787.25
2243.458012073	2792.25
2245.70218063374	2787.75
2247.94569728973	2784.5
2250.18856233304	2750.25
2252.4307760557	2756.25
2254.67233874967	2769
2256.91325070687	2734.75
2259.15351221915	2731.25
2261.39312357831	2711.5
2263.63208507611	2709
2265.87039700422	2721.5
2268.1080596543	2715.5
2270.34507331792	2739.75
2272.5814382866	2692.75
2274.81715485183	2702.75
2277.05222330502	2703.25
2279.28664393755	2656
2281.52041704072	2682.75
2283.75354290581	2649
2285.98602182401	2642.25
2288.21785408648	2621.75
2290.44903998434	2617
2292.67957980862	2623
2294.90947385033	2621.75
2297.1387224004	2597
2299.36732574975	2605.25
2301.59528418921	2583.5
2303.82259800958	2588.5
2306.04926750158	2577.5
2308.27529295593	2556.25
2310.50067466325	2576.75
2312.72541291412	2563.75
2314.9495079991	2533.25
2317.17296020866	2546
2319.39576983323	2534
2321.61793716322	2512.5
2323.83946248894	2506
2326.06034610069	2504.75
2328.28058828871	2505.5
2330.50018934317	2513.5
2332.7191495542	2471.75
2334.93746921192	2478
2337.15514860633	2437.5
2339.37218802743	2445.75
2341.58858776516	2422.75
2343.80434810941	2424.5
2346.01946935001	2413.5
2348.23395177675	2397.25
2350.44779567939	2413.5
2352.66100134759	2414.25
2354.87356907101	2378.75
2357.08549913925	2373
2359.29679184185	2363.25
2361.50744746829	2399.25
2363.71746630804	2366.25
2365.92684865048	2336
2368.13559478499	2351.5
2370.34370500083	2332.25
2372.55117958727	2313
2374.75801883352	2323
2376.96422302874	2287.25
2379.16979246202	2288.25
2381.37472742243	2302.75
2383.57902819898	2271.75
2385.78269508063	2276.25
2387.98572835629	2251.5
2390.18812831482	2277.25
2392.38989524505	2242.25
2394.59102943573	2270.75
2396.79153117559	2250.25
2398.9914007533	2250.5
2401.19063845748	2250
2403.38924457672	2232.75
2405.58721939951	2226
2407.78456321435	2192
2409.98127630966	2202
2412.17735897382	2218
2414.37281149517	2197.5
2416.56763416198	2189.75
2418.76182726249	2178
2420.95539108487	2146.25
2423.14832591726	2191
2425.34063204776	2169.5
2427.53230976439	2138.75
2429.72335935513	2162.25
2431.91378110795	2139.5
2434.10357531071	2104.5
2436.29274225125	2127.5
2438.48128221739	2128
2440.66919549683	2115
2442.8564823773	2114
2445.04314314641	2106.25
2447.22917809176	2091.5
2449.4145875009	2090.25
2451.59937166131	2090
2453.78353086044	2067.75
2455.96706538568	2067.25
2458.14997552436	2064
2460.33226156379	2077.25
2462.51392379119	2059.25
2464.69496249376	2033
2466.87537795862	2029.5
2469.05517047288	2047
2471.23434032357	2022.75
2473.41288779767	2014.5
2475.59081318211	1993
2477.76811676378	2008.25
2479.9447988295	1993.5
2482.12085966605	1983.75
2484.29629956016	2008
2486.4711187985	1977.75
2488.64531766769	1984.75
2490.8188964543	1989
2492.99185544484	1962.25
2495.16419492579	1966.75
2497.33591518353	1959
2499.50701650444	1941.75
2501.67749917482	1973.75
2503.84736348091	1931.75
2506.01660970891	1945
2508.18523814496	1922
2510.35324907514	1935.25
2512.52064278551	1933.75
2514.68741956201	1908
2516.85357969058	1932.5
2519.01912345709	1937
2521.18405114735	1905.75
2523.34836304711	1927.75
2525.51205944208	1925.25
2527.6751406179	1915.25
2529.83760686016	1904.25
2531.99945845439	1894.25
2534.16069568606	1911.75
2536.3213188406	1895
2538.48132820336	1906.75
2540.64072405965	1897.5
2542.79950669471	1892
2544.95767639373	1875
2547.11523344184	1846.5
2549.27217812411	1876.25
2551.42851072555	1873
2553.58423153111	1848
2555.73934082569	1850.25
2557.89383889412	1859
2560.04772602118	1865.5
2562.20100249158	1832.25
2564.35366858996	1843
2566.50572460093	1830.75
2568.65717080901	1813.25
2570.80800749867	1817.75
2572.95823495433	1818
2575.10785346031	1802.5
2577.25686330093	1804.5
2579.40526476038	1800.5
2581.55305812282	1804.25
2583.70024367237	1791
2585.84682169303	1780.75
2587.99279246879	1781.5
2590.13815628354	1749
2592.28291342112	1752.5
2594.42706416531	1774
2596.5706087998	1762
2598.71354760826	1754
2600.85588087425	1775.75
2602.99760888127	1768.75
2605.13873191278	1727
2607.27925025214	1733.5
2609.41916418269	1742.75
2611.55847398764	1710.75
2613.69717995017	1723.5
2615.83528235339	1747
2617.97278148034	1740.75
2620.10967761398	1718.25
2622.2459710372	1738
2624.38166203284	1723.5
2626.51675088365	1745.75
2628.65123787231	1707.75
2630.78512328145	1719.25
2632.9184073936	1719.5
2635.05109049124	1720.75
2637.18317285676	1725.5
2639.31465477248	1745.5
2641.44553652067	1725.5
2643.5758183835	1714.25
2645.70550064309	1714.5
2647.83458358144	1699.25
2649.96306748053	1731
2652.09095262223	1719.25
2654.21823928836	1720.75
2656.34492776063	1694.5
2658.47101832071	1719.5
2660.59651125015	1743.75
2662.72140683047	1726
2664.84570534309	1715
2666.96940706934	1703
2669.0925122905	1731.25
2671.21502128773	1723
2673.33693434215	1731.25
2675.45825173479	1719.75
2677.57897374658	1707.25
2679.69910065839	1745.75
2681.818632751	1728.25
2683.93757030511	1728.25
2686.05591360133	1714.25
2688.17366292021	1700.5
2690.29081854218	1705
2692.40738074762	1666.75
2694.52334981681	1697
2696.63872602995	1691
2698.75350966713	1690.75
2700.86770100841	1696
2702.98130033371	1702.75
2705.09430792289	1701.5
2707.20672405571	1693
2709.31854901185	1716
2711.42978307091	1703.25
2713.54042651238	1701.75
2715.65047961567	1701.5
2717.7599426601	1701.5
2719.86881592491	1698.25
2721.97709968924	1675.75
2724.08479423213	1696
2726.19189983255	1705.75
2728.29841676934	1700
2730.4043453213	1712
2732.5096857671	1707.25
2734.61443838532	1709.75
2736.71860345444	1679.75
2738.82218125286	1689.25
2740.92517205889	1726
2743.02757615072	1685.25
2745.12939380646	1677.75
2747.23062530411	1706.25
2749.33127092159	1685.75
2751.4313309367	1693.5
2753.53080562716	1720.5
2755.62969527058	1707.75
2757.72800014448	1699.5
2759.82572052625	1701.75
2761.92285669323	1698.5
2764.0194089226	1703.75
2766.11537749147	1726.75
2768.21076267686	1715.75
2770.30556475566	1683.5
2772.39978400465	1712
2774.49342070054	1695.75
2776.58647511991	1692.75
2778.67894753923	1701.75
2780.77083823487	1716.25
2782.8621474831	1713.75
2784.95287556007	1725
2787.04302274184	1710.5
2789.13258930433	1728.25
2791.22157552338	1702
2793.30998167471	1720
2795.39780803392	1721
2797.4850548765	1699.5
2799.57172247786	1698.75
2801.65781111324	1738.75
2803.74332105781	1710.5
2805.82825258661	1735.25
2807.91260597457	1730.5
2809.9963814965	1737
2812.07957942711	1738
2814.16220004096	1725.5
2816.24424361252	1715.25
2818.32571041614	1732.25
2820.40660072604	1745.75
2822.48691481631	1744.5
2824.56665296098	1790.25
2826.64581543388	1772.25
2828.72440250876	1795.75
2830.80241445925	1794.25
2832.87985155885	1824.75
2834.95671408093	1858.5
2837.03300229875	1869
2839.10871648544	1932.75
2841.18385691399	2043
2843.25842385729	2073
2845.33241758808	2105.75
2847.40583837898	2154.25
2849.4786865025	2118.5
2851.550962231	2086.5
2853.6226658367	2090.5
2855.69379759173	2066
2857.76435776806	2028.75
2859.83434663753	2037.5
2861.90376447184	1996.75
2863.97261154259	2015.75
2866.0408881212	2015.75
2868.10859447901	2014.5
2870.17573088717	2038
2872.24229761673	2051
2874.30829493859	2069
2876.37372312352	2077.5
2878.43858244215	2153
2880.50287316496	2187
2882.56659556231	2154.75
2884.62974990439	2106.5
2886.69233646129	2088.75
2888.75435550293	2061.25
2890.81580729909	2048.25
2892.87669211941	2031
2894.93701023339	2055.75
2896.99676191039	2065
2899.05594741961	2072.25
2901.1145670301	2057.75
2903.1726210108	2004
2905.23010963045	2054.25
2907.28703315768	2015.5
2909.34339186096	2015.5
2911.39918600861	2015.5
2913.45441586879	1975.25
2915.50908170952	1994.75
2917.56318379867	1991.75
2919.61672240395	2005.25
2921.66969779291	1986.25
2923.72211023295	2030.25
2925.77395999134	2015.25
2927.82524733515	2011
2929.87597253132	2014.75
2931.92613584663	2009
2933.97573754769	2001.5
2936.02477790097	1989.5
2938.07325717276	1967.75
2940.1211756292	1984.5
2942.16853353626	1963
2944.21533115976	1960.75
2946.26156876536	1933.75
2948.30724661853	1933
2950.3523649846	1938.75
2952.39692412872	1905.75
2954.44092431587	1918.25
2956.48436581089	1933.25
2958.52724887843	1928.25
2960.56957378296	1928.5
2962.6113407888	1955.5
2964.65255016011	1953.25
2966.69320216083	1930.5
2968.73329705479	1922.5
2970.77283510559	1943.75
2972.81181657671	1944.75
2974.8502417314	1943.25
2976.88811083279	1943.5
2978.92542414378	1967.75
2980.96218192713	1967.5
2982.99838444541	1971.5
2985.034031961	1953.25
2987.06912473612	1964
2989.1036630328	1989.5
2991.13764711288	1961.25
2993.17107723804	1959
2995.20395366974	1960.75
2997.23627666931	1971.25
2999.26804649782	1968.5
3001.29926341624	1986.25
3003.32992768528	2002.25
3005.3600395655	2004.25
3007.38959931726	2000.5
3009.41860720076	2019.25
3011.44706347595	2015.25
3013.47496840263	2007.5
3015.50232224041	2010
3017.5291252487	2023
3019.5553776867	1981
3021.58107981344	2015.25
3023.60623188773	2042.5
3025.63083416822	2019
3027.65488691331	2042
3029.67839038125	2047.75
3031.70134483007	2031.75
3033.72375051759	2060.25
3035.74560770144	2053.75
3037.76691663907	2075.75
3039.78767758768	2053.75
3041.80789080431	2053
3043.82755654577	2055.25
3045.84667506867	2074.5
3047.8652466294	2078.25
3049.88327148418	2108.25
3051.90074988899	2111.75
3053.91768209961	2149.75
3055.9340683716	2098.25
3057.94990896033	2115.75
3059.96520412095	2109.5
3061.97995410838	2088.75
3063.99415917734	2102.5
3066.00781958234	2068.25
3068.02093557766	2068.75
3070.03350741738	2066.5
3072.04553535535	2062.75
3074.05701964521	2074.75
3076.06796054036	2063.5
3078.078358294	2043.25
3080.08821315912	2059.75
3082.09752538846	2085.25
3084.10629523454	2075
3086.11452294967	2067.25
3088.12220878592	2048.25
3090.12935299515	2036.25
3092.13595582898	2060.25
3094.1420175388	2046.5
3096.14753837579	2055.25
3098.15251859088	2085.5
3100.15695843477	2091.25
3102.16085815793	2046.75
3104.16421801061	2062.25
3106.16703824282	2043.5
3108.16931910432	2070
3110.17106084464	2086.25
3112.17226371308	2079
3114.17292795872	2067
3116.17305383034	2082
3118.17264157657	2087.25
3120.17169144571	2063
3122.17020368587	2060.75
3124.16817854492	2064.25
3126.16561627044	2087.5
3128.16251710982	2115.75
3130.15888131017	2064.5
3132.15470911837	2093.25
3134.15000078104	2073.25
3136.14475654455	2097
3138.13897665502	2085.5
3140.13266135835	2080.25
3142.12581090014	2105.5
3144.11842552577	2097.75
3146.11050548036	2104.5
3148.10205100875	2088.25
3150.09306235557	2120.25
3152.08353976515	2104
3154.07348348158	2097.75
3156.06289374869	2133
3158.05177081006	2081
3160.04011490899	2104.5
3162.02792628852	2111.25
3164.01520519145	2105.25
3166.00195186029	2127
3167.98816653728	2104
3169.97384946442	2110
3171.95900088344	2107.75
3173.94362103577	2108
3175.92771016259	2124
3177.91126850484	2129
3179.89429630312	2120.25
3181.87679379782	2094
3183.85876122903	2120.75
3185.84019883657	2148.75
3187.82110685997	2105.25
3189.80148553851	2105.75
3191.78133511116	2099.5
3193.76065581664	2126
3195.73944789337	2136.75
3197.7177115795	2156.75
3199.6954471129	2148.25
3201.67265473114	2128
3203.64933467153	2120
3205.62548717107	2124
3207.60111246648	2170.5
3209.57621079421	2127
3211.55078239041	2147.25
3213.52482749093	2124.25
3215.49834633133	2175.25
3217.4713391469	2167
3219.44380617262	2145.5
3221.41574764317	2180.75
3223.38716379296	2161.75
3225.35805485607	2168
3227.32842106631	2168
3229.29826265718	2184.75
3231.26757986187	2165
3233.2363729133	2199
3235.20464204405	2181.5
3237.17238748643	2191.5
3239.13960947243	2185.25
3241.10630823374	2191.25
3243.07248400174	2206.75
3245.03813700748	2208.25
3247.00326748177	2170.75
3248.96787565503	2198.5
3250.93196175742	2206
3252.89552601877	2186
3254.8585686686	2193
3256.82108993612	2218.5
3258.78309005022	2208.5
3260.74456923948	2200.5
3262.70552773215	2222.5
3264.66596575617	2210.75
3266.62588353916	2194.75
3268.58528130843	2199
3270.54415929094	2174.25
3272.50251771336	2194.75
3274.46035680201	2210.75
3276.4176767829	2217.5
3278.37447788171	2224.75
3280.33076032379	2211.5
3282.28652433416	2212
3284.24177013751	2226.75
3286.1964979582	2203
3288.15070802027	2227.25
3290.10440054741	2192.75
3292.05757576298	2204.5
3294.01023389001	2229.5
3295.96237515119	2232
3297.91399976887	2223.25
3299.86510796506	2233.5
3301.81569996142	2226.75
3303.76577597932	2218.25
3305.7153362397	2240.75
3307.66438096324	2237.75
3309.61291037024	2227.75
3311.56092468064	2230.25
3313.50842411404	2206.75
3315.45540888971	2185
3317.40187922656	2209.5
3319.34783534315	2189.25
3321.29327745768	2210
3323.23820578801	2201.75
3325.18262055164	2223.5
3327.1265219657	2204.5
3329.06991024699	2205
3331.01278561194	2212.5
3332.95514827662	2196
3334.89699845674	2219
3336.83833636766	2221
3338.77916222434	2188.75
3340.71947624143	2190
3342.65927863317	2210
3344.59856961346	2194.25
3346.53734939584	2202.75
3348.47561819344	2191.75
3350.41337621906	2212.75
3352.35062368513	2212.5
3354.28736080368	2186.5
3356.22358778637	2202.75
3358.15930484452	2194.75
3360.09451218904	2213.75
3362.02921003047	2173
3363.96339857898	2199.25
3365.89707804436	2204.5
3367.83024863602	2182.75
3369.76291056299	2200
3371.69506403389	2150.75
3373.62670925699	2224
3375.55784644016	2214.25
3377.4884757909	2173.5
3379.41859751629	2200
3381.34821182305	2193.5
3383.27731891749	2194
3385.20591900555	2212.25
3387.13401229276	2175.5
3389.06159898426	2218.25
3390.9886792848	2231.5
3392.91525339872	2210
3394.84132152998	2194.75
3396.76688388213	2226
3398.69194065833	2198.5
3400.61649206133	2200.25
3402.54053829348	2205.25
3404.46407955672	2214.5
3406.3871160526	2197.75
3408.30964798225	2218.25
3410.23167554639	2217.5
3412.15319894535	2228.25
3414.07421837904	2214.5
3415.99473404695	2208.25
3417.91474614817	2220.5
3419.83425488136	2222
3421.75326044479	2214.25
3423.67176303631	2198
3425.58976285332	2209.75
3427.50726009282	2202
3429.42425495143	2204.5
3431.34074762528	2198
3433.25673831012	2202.25
3435.17222720127	2209.75
3437.08721449362	2196
3439.00170038164	2190.75
3440.91568505936	2189.75
3442.82916872039	2182.5
3444.74215155791	2160.25
3446.65463376468	2194
3448.566615533	2191.75
3450.47809705476	2205.75
3452.3890785214	2201
3454.29956012393	2208.75
3456.20954205293	2218.75
3458.11902449853	2195.5
3460.02800765041	2182
3461.93649169784	2180.5
3463.84447682962	2174.25
3465.75196323412	2173.25
3467.65895109925	2195.75
3469.56544061249	2182
3471.47143196086	2179.75
3473.37692533093	2180.25
3475.28192090884	2160.5
3477.18641888026	2164.75
3479.09041943039	2176.5
3480.99392274402	2179.25
3482.89692900545	2168.75
3484.79943839853	2190.25
3486.70145110666	2185.25
3488.60296731277	2160.25
3490.50398719933	2188.5
3492.40451094836	2170.25
3494.30453874141	2155.5
3496.20407075956	2199.5
3498.10310718342	2173.25
3500.00164819315	2174.75