201.866871357051	724.75
204.754250281454	728.5
207.640596790938	727.5
210.525911876299	739.75
213.410196525689	732.25
216.293451724508	722.25
219.175678455485	734.25
222.056877698662	734.25
224.937050431388	733.5
227.816197628363	730
230.694320261602	734
233.571419300504	740
236.447495711764	732.25
239.322550459507	747
242.196584505182	744
245.069598807626	732.25
247.941594323078	734.75
250.812572005154	747
253.682532804884	748.5
256.551477670699	748
259.419407548456	744
262.286323381439	747.25
265.152226110364	749.25
268.017116673389	745
270.880996006115	751.75
273.743865041622	749.25
276.605724710436	749
279.466575940562	748
282.326419657496	753
285.1852567842	751.5
288.043088241157	754.25
290.899914946349	753
293.75573781526	758.25
296.610557760898	754
299.464375693817	749
302.317192522078	748.25
305.169009151297	753.5
308.019826484655	759
310.86964542287	748.5
313.718466864233	747.25
316.566291704614	751.75
319.413120837457	746.25
322.258955153804	751
325.103795542291	755
327.947642889128	757.75
330.79049807819	754.75
333.632361990927	757.5
336.473235506444	751.75
339.31311950145	750
342.152014850322	738.75
344.989922425062	759
347.826843095354	752.75
350.662777728528	753.5
353.497727189577	751.25
356.331692341195	750.75
359.164674043732	759.5
361.996673155267	756.5
364.827690531536	759.25
367.65772702602	767.75
370.486783489887	765.5
373.314860772047	757.75
376.14195971912	763.5
378.968081175466	758
381.793225983212	765.5
384.617394982201	754.5
387.44058901005	756.5
390.262808902131	764
393.08405549161	769
395.904329609395	758.5
398.723632084213	763.75
401.541963742569	763.5
404.359325408779	757.75
407.175717904938	777
409.991142050982	771
412.805598664665	752.75
415.619088561551	764.25
418.43161255505	769
421.243171456415	756
424.053766074758	783
426.863397217017	771.5
429.672065688024	770.5
432.479772290455	771.75
435.286517824879	776.5
438.092303089736	764.25
440.897128881359	777.5
443.70099599399	773
446.503905219761	778.5
449.305857348711	765.25
452.106853168796	773.75
454.906893465919	770.75
457.705979023885	772.25
460.504110624439	773
463.3012890473	766.25
466.097515070087	775.75
468.892789468424	773.5
471.687113015869	772.75
474.48048648395	767.25
477.272910642198	762.5
480.064386258109	765.5
482.854914097159	767.75
485.644494922839	772.5
488.433129496636	768
491.220818578047	779.75
494.007562924584	782.5
496.793363291785	776.5
499.578220433217	771.25
502.362135100473	779.5
505.145108043209	777.25
507.927140009098	775.5
510.708231743909	782.75
513.488383991433	776
516.267597493556	783.25
519.04587299022	782.75
521.82321121946	782.75
524.599612917398	767.5
527.375078818233	786.75
530.149609654287	778
532.923206155967	765.5
535.695869051804	775
538.467599068448	782.75
541.238396930665	770.75
544.008263361364	777
546.777199081578	778
549.545204810493	783.25
552.312281265436	777
555.078429161898	781.5
557.843649213533	787.25
560.607942132156	783
563.371308627753	778.75
566.133749408495	777.75
568.895265180756	789.75
571.655856649064	781
574.415524516189	793.75
577.174269483075	790.25
579.932092248884	786
582.688993510994	790.5
585.444973965023	798.25
588.200034304795	800.5
590.95417522237	800
593.70739740807	805.25
596.459701550433	792.25
599.21108833628	787.25
601.961558450668	781.75
604.711112576933	785.75
607.459751396673	789.75
610.207475589748	774.25
612.954285834338	790.5
615.700182806879	785.5
618.445167182101	767.5
621.189239633055	783.5
623.932400831087	781.75
626.674651445839	789.25
629.415992145303	782
632.156423595745	778.5
634.895946461813	772.5
637.634561406449	765.75
640.37226909096	784.25
643.109070174978	780
645.844965316508	785.25
648.579955171888	778.75
651.314040395846	777.75
654.047221641456	774
656.779499560176	785.25
659.510874801828	778.5
662.241348014642	781
664.97091984524	783.25
667.699590938606	786.25
670.427361938164	777.75
673.15423348573	787.25
675.880206221526	798
678.605280784206	828.75
681.329457810829	825.75
684.05273793692	802.25
686.775121796389	795.75
689.49661002163	783.75
692.217203243454	792.25
694.936902091144	786.75
697.655707192425	787.25
700.373619173493	789.5
703.09063865901	782.5
705.806766272093	775
708.522002634378	777.75
711.236348365946	791.5
713.94980408538	784.75
716.662370409762	784
719.374047954676	772
722.08483733419	774.5
724.794739160909	770
727.503754045949	772.75
730.21188259892	775.75
732.919125427998	779.5
735.625483139855	779.75
738.330956339723	792.75
741.035545631374	778.75
743.739251617106	791.75
746.44207489779	794.75
749.144016072852	787.25
751.845075740272	786
754.545254496603	782.5
757.244552936976	788.25
759.94297165508	789.75
762.640511243222	788.5
765.337172292249	785
768.032955391649	791.75
770.727861129482	776.25
773.421890092413	790.5
776.11504286572	784.25
778.807320033298	791.75
781.49872217765	789
784.18924987991	785.5
786.87890371984	786.5
789.567684275826	780.5
792.255592124908	781.5
794.94262784276	772.5
797.628792003703	773.5
800.314085180715	765.25
802.998507945427	774.5
805.682060868145	771.5
808.364744517821	783.5
811.046559462105	773.75
813.727506267311	780.75
816.407585498422	776.75
819.08679771913	771
821.765143491822	779.75
824.442623377563	792.75
827.119237936127	783
829.794987726003	791.5
832.469873304377	795.25
835.143895227167	788.75
837.817054048985	783.25
840.489350323205	794
843.160784601892	794.25
845.831357435894	795
848.501069374739	793.75
851.169920966753	793.25
853.837912758987	789.25
856.505045297232	785.25
859.171319126071	783.5
861.836734788823	796.75
864.501292827579	777
867.164993783208	790.25
869.827838195361	793.5
872.489826602454	783.25
875.150959541701	789.25
877.811237549104	777
880.470661159456	787.75
883.129230906357	781.75
885.786947322205	784.5
888.443810938206	772
891.099822284385	788
893.754981889586	773.25
896.409290281452	793.5
899.062747986485	783
901.715355529999	783
904.367113436154	791
907.01802222793	779.5
909.668082427172	776.75
912.317294554574	782.25
914.965659129659	786
917.613176670835	778.25
920.259847695364	772
922.90567271936	775.25
925.550652257825	779
928.194786824621	784
930.838076932512	781
933.480523093109	784.25
936.122125816953	772.5
938.762885613447	784.25
941.402802990899	794.25
944.041878456523	791.25
946.680112516428	786.25
949.31750567563	795
951.954058438081	796.25
954.589771306633	797.5
957.224644783048	793
959.858679368044	786
962.491875561238	782
965.12423386121	779.5
967.75575476545	783.25
970.386438770423	778.75
973.016286371501	781.5
975.645298063046	784.5
978.273474338355	780.5
980.900815689674	774
983.527322608243	779.75
986.152995584245	794
988.777835106834	789.25
991.401841664148	774.25
994.025015743307	785.5
996.647357830407	777
999.268868410534	780.25
1001.88954796777	792.75
1004.50939698518	787.25
1007.12841594484	786.75
1009.74660532783	789
1012.36396561423	785
1014.98049728314	785.75
1017.59620081267	782.25
1020.21107667995	783.5
1022.82512536112	791
1025.43834733138	785
1028.05074306493	790.5
1030.66231303501	792
1033.27305771392	795.5
1035.88297757299	792.75
1038.49207308257	796
1041.10034471211	786.5
1043.70779293008	792.5
1046.31441820402	793.5
1048.92022100052	784.75
1051.52520178525	788
1054.12936102295	794.75
1056.73269917742	788.75
1059.33521671154	791.25
1061.93691408729	792.75
1064.53779176571	792.25
1067.13785020694	794.75
1069.73708987022	784.25
1072.33551121386	787.25
1074.93311469528	788.25
1077.52990077103	790.75
1080.12586989674	795.5
1082.72102252714	810
1085.31535911611	812.75
1087.90888011663	800.25
1090.50158598078	790.5
1093.09347715979	799.25
1095.68455410403	786
1098.27481726296	782.25
1100.86426708523	787.5
1103.45290401857	794.5
1106.04072850991	794.75
1108.6277410053	781
1111.21394194993	781.5
1113.79933178816	792.5
1116.3839109635	797.25
1118.96767991862	789
1121.55063909539	793.5
1124.13278893477	801.25
1126.71412987696	793
1129.29466236132	791
1131.87438682637	806.5
1134.45330370982	791.75
1137.03141344858	800.75
1139.60871647872	804
1142.18521323554	812.25
1144.7609041535	814
1147.33578966629	800.25
1149.90987020676	785
1152.48314620702	787.25
1155.05561809835	792.25
1157.62728631125	799.25
1160.19815127545	788.75
1162.76821341988	777.25
1165.33747317271	788.5
1167.90593096133	787.5
1170.47358721235	793.25
1173.04044235163	786.25
1175.60649680425	791.75
1178.17175099454	794.25
1180.73620534607	778
1183.29986028165	790.75
1185.86271622336	790
1188.42477359249	794.25
1190.98603280964	801
1193.54649429462	787.75
1196.10615846653	786.5
1198.66502574372	787.75
1201.22309654385	787.25
1203.78037128378	788.25
1206.33685037971	786.5
1208.89253424709	800
1211.44742330063	785.25
1214.00151795438	789.25
1216.55481862163	790.25
1219.10732571497	786.25
1221.65903964631	787.25
1224.20996082683	786.5
1226.760089667	782.5
1229.30942657664	790.5
1231.85797196483	785.75
1234.40572623998	786.75
1236.95268980981	788
1239.49886308136	793.75
1242.04424646098	786.25
1244.58884035435	782
1247.13264516647	789.75
1249.67566130166	786.75
1252.21788916358	795.25
1254.75932915524	797.75
1257.29998167896	795
1259.83984713639	791.5
1262.37892592857	790
1264.91721845586	804.25
1267.45472511795	787.75
1269.9914463139	794.75
1272.52738244213	795.25
1275.0625339004	802.5
1277.59690108587	792.5
1280.130484395	788
1282.66328422367	806.25
1285.19530096712	797.25
1287.72653501993	802.25
1290.25698677608	799.75
1292.78665662894	810.25
1295.31554497125	811.75
1297.8436521951	811.5
1300.37097869203	803.25
1302.89752485292	813.25
1305.42329106805	813.25
1307.94827772713	808
1310.47248521921	815.25
1312.99591393279	809.5
1315.51856425575	807.5
1318.04043657536	811
1320.56153127836	794.75
1323.08184875083	806
1325.6013893783	808
1328.12015354572	813.75
1330.63814163744	817
1333.15535403727	828.5
1335.67179112839	833.75
1338.18745329347	857
1340.70234091454	881
1343.21645437314	857
1345.72979405019	834.25
1348.24236032607	822.75
1350.75415358059	824.25
1353.26517419303	810.5
1355.7754225421	808.5
1358.28489900594	806.5
1360.79360396218	811
1363.30153778787	821.25
1365.80870085955	804.75
1368.31509355319	815
1370.82071624424	808
1373.32556930762	813.75
1375.8296531177	800.75
1378.33296804832	806.75
1380.83551447282	806.5
1383.33729276399	809
1385.83830329408	810.75
1388.33854643489	805
1390.83802255762	808.25
1393.33673203301	804.25
1395.83467523128	796.25
1398.33185252211	807.75
1400.82826427471	804.75
1403.32391085777	800
1405.81879263947	804.5
1408.31290998752	806.5
1410.80626326908	806.25
1413.29885285087	816.5
1415.79067909909	808.5
1418.28174237944	811
1420.77204305717	797.75
1423.26158149702	804.25
1425.75035806323	816
1428.2383731196	826.75
1430.72562702942	817.75
1433.21212015554	817.25
1435.69785286028	821.75
1438.18282550555	828.25
1440.66703845275	831.5
1443.15049206284	834
1445.6331866963	837.25
1448.11512271316	856
1450.59630047298	878.75
1453.07672033486	876.5
1455.55638265748	854
1458.03528779902	849.25
1460.51343611725	832
1462.99082796946	829.75
1465.46746371252	833.75
1467.94334370285	832.25
1470.41846829642	822.5
1472.89283784878	831.5
1475.36645271503	813.25
1477.83931324983	820
1480.31141980743	826.75
1482.78277274164	840.25
1485.25337240583	826.5
1487.72321915297	826
1490.19231333557	816.25
1492.66065530578	815.75
1495.12824541525	815.75
1497.5950840153	825.5
1500.06117145678	813.5
1502.52650809014	808.5
1504.99109426543	812.75
1507.45493033227	812.25
1509.91801663992	827
1512.38035353717	818.25
1514.84194137248	824.5
1517.30278049386	832.25
1519.76287124894	843.75
1522.22221398497	889.5
1524.68080904876	922.5
1527.13865678681	959.75
1529.59575754514	963
1532.05211166945	909.75
1534.50771950503	873.5
1536.96258139678	848.75
1539.41669768924	837.75
1541.87006872656	847.5
1544.32269485252	830.75
1546.77457641051	819.5
1549.22571374357	827
1551.67610719434	822.25
1554.12575710513	834
1556.57466381785	833.5
1559.02282767408	831.5
1561.47024901499	834.25
1563.91692818144	821
1566.3628655139	841.25
1568.80806135249	836.75
1571.252516037	823.25
1573.6962299068	835.5
1576.13920330099	838.5
1578.58143655828	836.25
1581.02293001704	849.75
1583.46368401528	828.75
1585.90369889071	836.75
1588.34297498065	837.5
1590.7815126221	845.25
1593.21931215173	841.5
1595.65637390588	833
1598.09269822053	850.75
1600.52828543135	841.5
1602.96313587367	847
1605.3972498825	843.5
1607.83062779252	831.5
1610.26326993808	840.75
1612.69517665322	828
1615.12634827165	834.25
1617.55678512676	834.5
1619.98648755163	836
1622.41545587902	833.25
1624.84369044138	829.75
1627.27119157085	831
1629.69795959924	823.5
1632.12399485808	831.25
1634.54929767859	827
1636.97386839165	841.5
1639.39770732789	840.25
1641.8208148176	834.5
1644.24319119078	839.25
1646.66483677715	842.25
1649.0857519061	837.5
1651.50593690677	840.5
1653.92539210795	838.75
1656.3441178382	842
1658.76211442575	841.75
1661.17938219855	838.75
1663.59592148428	847.75
1666.01173261032	837.5
1668.42681590377	853.75
1670.84117169145	854
1673.25480029991	845
1675.66770205541	845
1678.07987728393	851.75
1680.49132631119	851.75
1682.90204946263	856
1685.31204706342	855
1687.72131943846	860.5
1690.1298669124	854.25
1692.53768980957	867.75
1694.94478845411	870.5
1697.35116316982	858
1699.75681428031	855.75
1702.16174210887	860.5
1704.56594697858	859
1706.96942921222	859.5
1709.37218913235	860.75
1711.77422706125	864
1714.17554332098	871.25
1716.5761382333	869.25
1718.97601211977	865.25
1721.37516530169	865.5
1723.77359810006	860.5
1726.17131083572	856.75
1728.56830382922	854.25
1730.96457740087	865
1733.36013187075	864
1735.75496755868	864
1738.14908478428	864.25
1740.54248386689	863.25
1742.93516512565	869.25
1745.32712887946	878.5
1747.71837544697	864.25
1750.10890514662	876.75
1752.49871829661	868
1754.88781521492	871.75
1757.27619621929	875
1759.66386162726	871.5
1762.05081175612	880.25
1764.43704692297	862
1766.82256744465	865.75
1769.20737363782	879.75
1771.59146581887	876
1773.97484430405	882.75
1776.35750940932	893
1778.73946145048	887.5
1781.12070074309	882.75
1783.50122760249	904.25
1785.88104234385	886.25
1788.26014528209	887
1790.63853673196	896.75
1793.01621700796	889.75
1795.39318642443	889.25
1797.76944529549	884.25
1800.14499393503	900.25
1802.51983265681	893
1804.8939617743	894.75
1807.26738160085	911
1809.64009244957	904.25
1812.01209463339	901.5
1814.38338846504	892.5
1816.75397425706	899
1819.12385232181	902
1821.49302297142	897.5
1823.86148651789	898
1826.22924327299	898.75
1828.59629354831	907
1830.96263765526	911.75
1833.32827590507	899
1835.69320860877	900.25
1838.05743607724	914.25
1840.42095862113	909
1842.78377655097	911.25
1845.14589017707	910
1847.50729980956	898.5
1849.86800575843	908.25
1852.22800833346	892.75
1854.58730784427	906.75
1856.94590460032	902
1859.30379891087	901.75
1861.66099108503	917
1864.01748143175	911.25
1866.37327025978	918.75
1868.72835787773	922.75
1871.08274459403	928.25
1873.43643071697	921
1875.78941655464	930
1878.14170241498	923.25
1880.4932886058	914.75
1882.84417543469	914.5
1885.19436320915	928.75
1887.54385223646	929.5
1889.89264282378	934.75
1892.24073527809	929.25
1894.58812990625	936.25
1896.93482701493	934.5
1899.28082691067	932.75
1901.62612989984	943.5
1903.97073628868	948.25
1906.31464638326	945.75
1908.6578604895	948.25
1911.00037891321	940
1913.34220196	941.25
1915.68332993537	950.75
1918.02376314468	957
1920.36350189311	951.75
1922.70254648573	953
1925.04089722744	947.25
1927.37855442303	965.5
1929.71551837715	956.75
1932.05178939426	967
1934.38736777876	956.25
1936.72225383484	952.75
1939.0564478666	958.75
1941.38995017799	968.25
1943.72276107283	955.5
1946.05488085479	956
1948.38630982744	950
1950.71704829419	962.25
1953.04709655832	964.5
1955.376454923	962.75
1957.70512369126	972
1960.03310316599	974
1962.36039364999	963.5
1964.68699544589	978
1967.01290885622	963.25
1969.33813418338	974.75
1971.66267172965	981.75
1973.98652179718	966
1976.309684688	973.75
1978.63216070402	986.25
1980.95395014705	981.75
1983.27505331873	987.25
1985.59547052063	979.5
1987.9152020542	996.5
1990.23424822074	989.25
1992.55260932146	977.25
1994.87028565746	998.5
1997.18727752968	994
1999.503585239	1004.25
2001.81920908618	1007
2004.13414937184	1004.25
2006.44840639651	1015.5
2008.7619804606	1021.5
2011.07487186442	1015.25
2013.38708090815	1027
2015.6986078919	1021.75
2018.00945311564	1015.75
2020.31961687923	1012.5
2022.62909948246	1035.75
2024.93790122498	1036
2027.24602240636	1032
2029.55346332604	1029.25
2031.86022428337	1031
2034.16630557761	1042.75
2036.47170750791	1045.75
2038.77643037331	1038.25
2041.08047447275	1065.5
2043.38384010509	1050.75
2045.68652756907	1052.5
2047.98853716335	1039.5
2050.28986918648	1047.5
2052.59052393692	1060
2054.89050171302	1074
2057.18980281306	1061
2059.4884275352	1073.75
2061.78637617753	1055
2064.08364903802	1059
2066.38024641457	1062.25
2068.67616860497	1077.5
2070.97141590694	1062
2073.26598861809	1070.5
2075.55988703595	1062.5
2077.85311145796	1075
2080.14566218145	1060.75
2082.43753950371	1068.25
2084.72874372188	1076.25
2087.01927513307	1077.25
2089.30913403428	1091.25
2091.59832072241	1079.75
2093.88683549429	1079.5
2096.17467864666	1083.5
2098.46185047619	1079.75
2100.74835127944	1085
2103.03418135292	1080.75
2105.31934099303	1092.75
2107.6038304961	1098.5
2109.88765015838	1104.75
2112.17080027602	1095.75
2114.45328114513	1107.5
2116.7350930617	1111.25
2119.01623632165	1089.25
2121.29671122085	1106.25
2123.57651805505	1112.75
2125.85565711996	1105.75
2128.13412871117	1127.5
2130.41193312424	1114.25
2132.68907065462	1127.75
2134.96554159771	1118.5
2137.24134624881	1117.75
2139.51648490317	1133.5
2141.79095785593	1122
2144.0647654022	1124.25
2146.33790783698	1129.5
2148.61038545524	1133
2150.88219855182	1149
2153.15334742154	1147.75
2155.42383235911	1131.5
2157.6936536592	1129.5
2159.9628116164	1136
2162.23130652522	1146.75
2164.49913868011	1132.5
2166.76630837544	1134.25
2169.03281590552	1128
2171.2986615646	1141.5
2173.56384564685	1137.25
2175.82836844637	1155
2178.0922302572	1129
2180.35543137332	1148.75
2182.61797208862	1138.5
2184.87985269695	1133.25
2187.14107349208	1152.75
2189.40163476773	1137
2191.66153681753	1146.5
2193.92077993507	1137.75
2196.17936441386	1127.75
2198.43729054735	1135.25
2200.69455862894	1128.5
2202.95116895194	1129
2205.20712180962	1129.75
2207.46241749519	1143.75
2209.71705630179	1147
2211.97103852248	1144
2214.2243644503	1138.25
2216.47703437819	1122
2218.72904859905	1135.75
2220.98040740571	1145
2223.23111109095	1124.25
2225.4811599475	1138
2227.73055426799	1130.25
2229.97929434504	1123.25
2232.22738047118	1122
2234.47481293889	1128.75
2236.72159204058	1124
2238.96771806864	1136.25
2241.21319131536	1120.5
2243.458012073	1118.25
2245.70218063374	1134.5
2247.94569728973	1132.5
2250.18856233304	1128.75
2252.4307760557	1125.5
2254.67233874967	1116.25
2256.91325070687	1118.25
2259.15351221915	1124
2261.39312357831	1121.75
2263.63208507611	1110.75
2265.87039700422	1120.25
2268.1080596543	1105
2270.34507331792	1108.5
2272.5814382866	1110
2274.81715485183	1111
2277.05222330502	1121.25
2279.28664393755	1111.75
2281.52041704072	1123
2283.75354290581	1104
2285.98602182401	1121.75
2288.21785408648	1118.25
2290.44903998434	1099
2292.67957980862	1101
2294.90947385033	1096
2297.1387224004	1107.25
2299.36732574975	1109.75
2301.59528418921	1098.25
2303.82259800958	1107.25
2306.04926750158	1100
2308.27529295593	1108
2310.50067466325	1104.75
2312.72541291412	1099.25
2314.9495079991	1105.25
2317.17296020866	1112
2319.39576983323	1104.75
2321.61793716322	1104.25
2323.83946248894	1093
2326.06034610069	1111.75
2328.28058828871	1096
2330.50018934317	1100.5
2332.7191495542	1102.5
2334.93746921192	1082
2337.15514860633	1089
2339.37218802743	1087
2341.58858776516	1089.5
2343.80434810941	1083
2346.01946935001	1083.25
2348.23395177675	1100.75
2350.44779567939	1088
2352.66100134759	1085
2354.87356907101	1090.5
2357.08549913925	1077
2359.29679184185	1070.25
2361.50744746829	1083.25
2363.71746630804	1075.75
2365.92684865048	1067.5
2368.13559478499	1075.5
2370.34370500083	1081.75
2372.55117958727	1094.75
2374.75801883352	1076.5
2376.96422302874	1067.5
2379.16979246202	1075
2381.37472742243	1068.75
2383.57902819898	1079.25
2385.78269508063	1068
2387.98572835629	1073
2390.18812831482	1064.25
2392.38989524505	1064.5
2394.59102943573	1073.5
2396.79153117559	1058.75
2398.9914007533	1055
2401.19063845748	1082.25
2403.38924457672	1060.5
2405.58721939951	1054.25
2407.78456321435	1062.5
2409.98127630966	1045.75
2412.17735897382	1058.75
2414.37281149517	1049
2416.56763416198	1040.75
2418.76182726249	1057.5
2420.95539108487	1048.75
2423.14832591726	1058.75
2425.34063204776	1065.75
2427.53230976439	1049.5
2429.72335935513	1053.25
2431.91378110795	1050.25
2434.10357531071	1046.5
2436.29274225125	1049.5
2438.48128221739	1040.75
2440.66919549683	1043.75
2442.8564823773	1048.75
2445.04314314641	1063.5
2447.22917809176	1044.25
2449.4145875009	1030.5
2451.59937166131	1037.5
2453.78353086044	1041.25
2455.96706538568	1050.5
2458.14997552436	1039.75
2460.33226156379	1049.75
2462.51392379119	1019.25
2464.69496249376	1037
2466.87537795862	1029
2469.05517047288	1016.5
2471.23434032357	1035
2473.41288779767	1017.75
2475.59081318211	1034.75
2477.76811676378	1038.5
2479.9447988295	1030.75
2482.12085966605	1019.25
2484.29629956016	1029.75
2486.4711187985	1027.25
2488.64531766769	1026
2490.8188964543	1033.25
2492.99185544484	1039
2495.16419492579	1033
2497.33591518353	1022.5
2499.50701650444	1014.5
2501.67749917482	1015.5
2503.84736348091	1011.75
2506.01660970891	1023
2508.18523814496	1020
2510.35324907514	1033.25
2512.52064278551	1015.25
2514.68741956201	1021.5
2516.85357969058	1032.75
2519.01912345709	1031.75
2521.18405114735	1019.25
2523.34836304711	1028
2525.51205944208	1017.75
2527.6751406179	1018
2529.83760686016	1041.25
2531.99945845439	1021
2534.16069568606	1030.25
2536.3213188406	1020
2538.48132820336	1025.5
2540.64072405965	1020.25
2542.79950669471	1029.5
2544.95767639373	1026.25
2547.11523344184	1032
2549.27217812411	1015.25
2551.42851072555	1021.25
2553.58423153111	1030.5
2555.73934082569	1013.5
2557.89383889412	1014.25
2560.04772602118	1017.25
2562.20100249158	1025.5
2564.35366858996	1005.25
2566.50572460093	1023.25
2568.65717080901	1011
2570.80800749867	1024.5
2572.95823495433	1004.75
2575.10785346031	1025.75
2577.25686330093	1000.25
2579.40526476038	1005.75
2581.55305812282	1011
2583.70024367237	1015
2585.84682169303	992.5
2587.99279246879	992.5
2590.13815628354	1005.75
2592.28291342112	991.5
2594.42706416531	1004.25
2596.5706087998	989.5
2598.71354760826	1004
2600.85588087425	996.25
2602.99760888127	981.25
2605.13873191278	1004.25
2607.27925025214	993
2609.41916418269	999.75
2611.55847398764	997.75
2613.69717995017	1014.75
2615.83528235339	996.75
2617.97278148034	1004
2620.10967761398	992.5
2622.2459710372	998.25
2624.38166203284	1004.25
2626.51675088365	1012.5
2628.65123787231	1001.75
2630.78512328145	1005.5
2632.9184073936	1001.25
2635.05109049124	1002.75
2637.18317285676	992
2639.31465477248	1001.25
2641.44553652067	1011.75
2643.5758183835	1004
2645.70550064309	1004
2647.83458358144	993.25
2649.96306748053	1004.75
2652.09095262223	1001
2654.21823928836	1005.25
2656.34492776063	1001.5
2658.47101832071	990.75
2660.59651125015	1008.75
2662.72140683047	1003
2664.84570534309	1008.5
2666.96940706934	995.25
2669.0925122905	1003.75
2671.21502128773	1001.5
2673.33693434215	1004.5
2675.45825173479	1001.25
2677.57897374658	1004.75
2679.69910065839	1010.25
2681.818632751	1003.75
2683.93757030511	991.5
2686.05591360133	986.75
2688.17366292021	998.5
2690.29081854218	1000
2692.40738074762	986
2694.52334981681	986.75
2696.63872602995	984
2698.75350966713	998.5
2700.86770100841	1005.25
2702.98130033371	987.5
2705.09430792289	989.75
2707.20672405571	990.25
2709.31854901185	994.25
2711.42978307091	1007.25
2713.54042651238	1004.25
2715.65047961567	996.25
2717.7599426601	996.25
2719.86881592491	987.5
2721.97709968924	997.5
2724.08479423213	993.25
2726.19189983255	989.5
2728.29841676934	997.5
2730.4043453213	1008
2732.5096857671	1004.5
2734.61443838532	992.25
2736.71860345444	991
2738.82218125286	995.75
2740.92517205889	993.25
2743.02757615072	990.5
2745.12939380646	993
2747.23062530411	980.5
2749.33127092159	1006.25
2751.4313309367	984.25
2753.53080562716	994.25
2755.62969527058	998.25
2757.72800014448	989.75
2759.82572052625	994
2761.92285669323	994.25
2764.0194089226	999.5
2766.11537749147	981.25
2768.21076267686	996
2770.30556475566	987.75
2772.39978400465	983.5
2774.49342070054	985.5
2776.58647511991	993.25
2778.67894753923	994.5
2780.77083823487	1004
2782.8621474831	997.5
2784.95287556007	984.25
2787.04302274184	996
2789.13258930433	989
2791.22157552338	979.75
2793.30998167471	995.25
2795.39780803392	1002
2797.4850548765	999.25
2799.57172247786	981.75
2801.65781111324	987.25
2803.74332105781	993.25
2805.82825258661	1002
2807.91260597457	986.25
2809.9963814965	991.25
2812.07957942711	991.75
2814.16220004096	993.5
2816.24424361252	989.5
2818.32571041614	993.25
2820.40660072604	992.5
2822.48691481631	988
2824.56665296098	997.5
2826.64581543388	994.5
2828.72440250876	1013.75
2830.80241445925	988.75
2832.87985155885	1007.5
2834.95671408093	1011.25
2837.03300229875	1020.75
2839.10871648544	1039.75
2841.18385691399	1052.75
2843.25842385729	1055.25
2845.33241758808	1076
2847.40583837898	1069.5
2849.4786865025	1070.25
2851.550962231	1062.75
2853.6226658367	1055.5
2855.69379759173	1055.25
2857.76435776806	1063.25
2859.83434663753	1049
2861.90376447184	1027.25
2863.97261154259	1034.75
2866.0408881212	1053
2868.10859447901	1059.25
2870.17573088717	1057.75
2872.24229761673	1055.25
2874.30829493859	1059
2876.37372312352	1076
2878.43858244215	1087.25
2880.50287316496	1098.5
2882.56659556231	1087.75
2884.62974990439	1095.75
2886.69233646129	1049.25
2888.75435550293	1045
2890.81580729909	1053
2892.87669211941	1052.5
2894.93701023339	1061.75
2896.99676191039	1041.25
2899.05594741961	1053.25
2901.1145670301	1062.25
2903.1726210108	1038.75
2905.23010963045	1043.5
2907.28703315768	1037
2909.34339186096	1046
2911.39918600861	1038.5
2913.45441586879	1035.75
2915.50908170952	1039.5
2917.56318379867	1027.25
2919.61672240395	1037.5
2921.66969779291	1035.75
2923.72211023295	1036
2925.77395999134	1026
2927.82524733515	1037.75
2929.87597253132	1025.75
2931.92613584663	1035.5
2933.97573754769	1034.5
2936.02477790097	1026.5
2938.07325717276	1024.5
2940.1211756292	1029
2942.16853353626	1006
2944.21533115976	1010.25
2946.26156876536	1010.5
2948.30724661853	1011.75
2950.3523649846	999
2952.39692412872	1004.75
2954.44092431587	1008.5
2956.48436581089	1004
2958.52724887843	1010.25
2960.56957378296	996.5
2962.6113407888	1008
2964.65255016011	1003.25
2966.69320216083	1006.25
2968.73329705479	1012
2970.77283510559	993.25
2972.81181657671	986
2974.8502417314	1011.75
2976.88811083279	1002.75
2978.92542414378	1021.5
2980.96218192713	1001
2982.99838444541	1002
2985.034031961	1009.75
2987.06912473612	1009.5
2989.1036630328	1007.25
2991.13764711288	1000.5
2993.17107723804	1014.25
2995.20395366974	1002.5
2997.23627666931	1003.25
2999.26804649782	1008.5
3001.29926341624	1008
3003.32992768528	1006
3005.3600395655	1000.25
3007.38959931726	1015.5
3009.41860720076	1007.75
3011.44706347595	1013.75
3013.47496840263	1007
3015.50232224041	1016.5
3017.5291252487	1017.5
3019.5553776867	1023.5
3021.58107981344	1008
3023.60623188773	1025.75
3025.63083416822	1019.75
3027.65488691331	1014
3029.67839038125	1034.5
3031.70134483007	1019.5
3033.72375051759	1043.5
3035.74560770144	1008.25
3037.76691663907	1040.5
3039.78767758768	1026.5
3041.80789080431	1008.25
3043.82755654577	1032.25
3045.84667506867	1038
3047.8652466294	1021.5
3049.88327148418	1039.75
3051.90074988899	1030.75
3053.91768209961	1024.75
3055.9340683716	1033.25
3057.94990896033	1046.25
3059.96520412095	1040.25
3061.97995410838	1050.25
3063.99415917734	1035.5
3066.00781958234	1030.75
3068.02093557766	1021.25
3070.03350741738	1029.25
3072.04553535535	1023.25
3074.05701964521	1033.25
3076.06796054036	1031.25
3078.078358294	1014.75
3080.08821315912	1031.5
3082.09752538846	1042.75
3084.10629523454	1014.5
3086.11452294967	1034.5
3088.12220878592	1028.5
3090.12935299515	1034.5
3092.13595582898	1026.75
3094.1420175388	1017.75
3096.14753837579	1026
3098.15251859088	1035
3100.15695843477	1036.5
3102.16085815793	1040.75
3104.16421801061	1012.25
3106.16703824282	1023
3108.16931910432	1030
3110.17106084464	1015.5
3112.17226371308	1035.5
3114.17292795872	1036
3116.17305383034	1041.5
3118.17264157657	1022.25
3120.17169144571	1017.25
3122.17020368587	1044.25
3124.16817854492	1031.5
3126.16561627044	1035.75
3128.16251710982	1036.5
3130.15888131017	1039.25
3132.15470911837	1029.5
3134.15000078104	1058
3136.14475654455	1033.75
3138.13897665502	1051
3140.13266135835	1027.75
3142.12581090014	1046.5
3144.11842552577	1038.75
3146.11050548036	1055.75
3148.10205100875	1048.75
3150.09306235557	1053.5
3152.08353976515	1046
3154.07348348158	1051.75
3156.06289374869	1054.75
3158.05177081006	1046.5
3160.04011490899	1048.25
3162.02792628852	1054.25
3164.01520519145	1061
3166.00195186029	1063.25
3167.98816653728	1041.75
3169.97384946442	1055.75
3171.95900088344	1042.5
3173.94362103577	1061
3175.92771016259	1056.25
3177.91126850484	1058.25
3179.89429630312	1057.25
3181.87679379782	1060.25
3183.85876122903	1061
3185.84019883657	1063.75
3187.82110685997	1056.25
3189.80148553851	1048.75
3191.78133511116	1050
3193.76065581664	1063
3195.73944789337	1064
3197.7177115795	1072
3199.6954471129	1055
3201.67265473114	1071
3203.64933467153	1079.25
3205.62548717107	1065.75
3207.60111246648	1064.5
3209.57621079421	1062.75
3211.55078239041	1057
3213.52482749093	1068
3215.49834633133	1071
3217.4713391469	1082.25
3219.44380617262	1067.25
3221.41574764317	1064.75
3223.38716379296	1073.5
3225.35805485607	1073.75
3227.32842106631	1094.5
3229.29826265718	1093.25
3231.26757986187	1082.75
3233.2363729133	1096
3235.20464204405	1086.75
3237.17238748643	1085
3239.13960947243	1088
3241.10630823374	1087.5
3243.07248400174	1096.75
3245.03813700748	1090
3247.00326748177	1075
3248.96787565503	1100.25
3250.93196175742	1091
3252.89552601877	1097.5
3254.8585686686	1101
3256.82108993612	1089
3258.78309005022	1097
3260.74456923948	1084.75
3262.70552773215	1105.75
3264.66596575617	1106
3266.62588353916	1093
3268.58528130843	1096.25
3270.54415929094	1085.5
3272.50251771336	1105.5
3274.46035680201	1101.75
3276.4176767829	1105
3278.37447788171	1088.75
3280.33076032379	1112
3282.28652433416	1106.75
3284.24177013751	1110.5
3286.1964979582	1113
3288.15070802027	1103.75
3290.10440054741	1113
3292.05757576298	1112
3294.01023389001	1114.25
3295.96237515119	1116
3297.91399976887	1107
3299.86510796506	1122
3301.81569996142	1116.5
3303.76577597932	1124.25
3305.7153362397	1124
3307.66438096324	1092.25
3309.61291037024	1119.5
3311.56092468064	1110.5
3313.50842411404	1111.5
3315.45540888971	1119.5
3317.40187922656	1107
3319.34783534315	1104.5
3321.29327745768	1128.75
3323.23820578801	1097.5
3325.18262055164	1107
3327.1265219657	1111.75
3329.06991024699	1116.5
3331.01278561194	1128.5
3332.95514827662	1104
3334.89699845674	1120
3336.83833636766	1123.25
3338.77916222434	1112.75
3340.71947624143	1129.75
3342.65927863317	1114.75
3344.59856961346	1116.75
3346.53734939584	1125.75
3348.47561819344	1108.25
3350.41337621906	1111.25
3352.35062368513	1131.25
3354.28736080368	1104.75
3356.22358778637	1123
3358.15930484452	1122.5
3360.09451218904	1124.25
3362.02921003047	1121.25
3363.96339857898	1127.75
3365.89707804436	1123.25
3367.83024863602	1129.25
3369.76291056299	1140.5
3371.69506403389	1117.5
3373.62670925699	1148.25
3375.55784644016	1118.75
3377.4884757909	1129
3379.41859751629	1131.75
3381.34821182305	1139.75
3383.27731891749	1134.25
3385.20591900555	1133.75
3387.13401229276	1134.5
3389.06159898426	1136.5
3390.9886792848	1143.75
3392.91525339872	1130.75
3394.84132152998	1144.25
3396.76688388213	1147
3398.69194065833	1143
3400.61649206133	1152.25
3402.54053829348	1155.25
3404.46407955672	1148
3406.3871160526	1142.25
3408.30964798225	1154.5
3410.23167554639	1162
3412.15319894535	1160
3414.07421837904	1142.5
3415.99473404695	1171.5
3417.91474614817	1150.25
3419.83425488136	1159.75
3421.75326044479	1178.5
3423.67176303631	1167.5
3425.58976285332	1145.5
3427.50726009282	1156.25
3429.42425495143	1157
3431.34074762528	1163.25
3433.25673831012	1155.75
3435.17222720127	1159.5
3437.08721449362	1169.25
3439.00170038164	1162.5
3440.91568505936	1150.25
3442.82916872039	1164.75
3444.74215155791	1175.75
3446.65463376468	1162.75
3448.566615533	1167.25
3450.47809705476	1172
3452.3890785214	1158
3454.29956012393	1174.25
3456.20954205293	1161.25
3458.11902449853	1161
3460.02800765041	1163
3461.93649169784	1162.75
3463.84447682962	1155.5
3465.75196323412	1167.75
3467.65895109925	1159.75
3469.56544061249	1177.5
3471.47143196086	1184
3473.37692533093	1178.75
3475.28192090884	1171
3477.18641888026	1181.25
3479.09041943039	1169.25
3480.99392274402	1162.5
3482.89692900545	1171.5
3484.79943839853	1167
3486.70145110666	1170.25
3488.60296731277	1160.25
3490.50398719933	1166.5
3492.40451094836	1159.25
3494.30453874141	1152.75
3496.20407075956	1174.5
3498.10310718342	1187.75
3500.00164819315	1178.75