201.866871357053	1283
204.754250281456	1295
207.640596790939	1289.5
210.525911876301	1290.5
213.41019652569	1288.25
216.293451724511	1302.5
219.175678455486	1301.5
222.056877698663	1283.75
224.937050431391	1294.5
227.816197628365	1299.75
230.694320261604	1305.25
233.571419300504	1309.5
236.447495711765	1333.75
239.322550459507	1306.5
242.196584505184	1319.25
245.069598807628	1329.5
247.94159432308	1328.5
250.812572005157	1323
253.682532804885	1342.75
256.551477670701	1338
259.419407548458	1347
262.286323381442	1344.75
265.152226110364	1350.75
268.017116673389	1334.25
270.880996006118	1346.75
273.743865041624	1361.75
276.605724710438	1351
279.466575940565	1352
282.326419657499	1362.75
285.185256784201	1347
288.04308824116	1362.25
290.899914946356	1340.75
293.75573781526	1354
296.610557760899	1362.5
299.464375693819	1363.5
302.317192522079	1384
305.169009151297	1355.75
308.019826484655	1368
310.869645422872	1367.25
313.718466864235	1378.5
316.566291704615	1373
319.41312083746	1388.75
322.258955153805	1395.75
325.103795542294	1381
327.947642889129	1374
330.79049807819	1379.5
333.63236199093	1378.25
336.473235506447	1389.25
339.313119501453	1367.75
342.152014850323	1381.75
344.989922425064	1390
347.826843095356	1396.75
350.662777728529	1422.5
353.497727189577	1425.5
356.331692341196	1413
359.164674043732	1402.75
361.996673155267	1403.75
364.827690531538	1426.25
367.657727026021	1424
370.486783489887	1426.75
373.314860772046	1430.75
376.14195971912	1420.25
378.968081175469	1414.5
381.793225983214	1419.25
384.617394982201	1445.75
387.44058901005	1438.25
390.262808902134	1425.75
393.084055491614	1430.25
395.904329609395	1439.25
398.723632084216	1423.75
401.541963742572	1455.75
404.359325408781	1439.25
407.17571790494	1436
409.991142050985	1457.25
412.805598664665	1423.75
415.619088561551	1465.5
418.431612555051	1445
421.243171456419	1440.5
424.05376607476	1468
426.86339721702	1470.75
429.672065688025	1466.25
432.479772290455	1481.75
435.28651782488	1453.25
438.092303089737	1483.75
440.897128881362	1468.75
443.700995993992	1486.75
446.503905219761	1476.75
449.305857348711	1486.75
452.106853168798	1478
454.906893465921	1483.5
457.705979023886	1479
460.504110624441	1492.25
463.301289047302	1476.5
466.09751507009	1473.5
468.892789468424	1478.5
471.687113015869	1481.5
474.480486483952	1485.75
477.272910642201	1487
480.064386258111	1506.5
482.854914097161	1514.75
485.644494922841	1496.75
488.433129496637	1501.75
491.22081857805	1508.5
494.007562924587	1504.75
496.793363291787	1523.25
499.578220433219	1524.75
502.362135100475	1525.25
505.145108043209	1517.5
507.927140009101	1528
510.70823174391	1523.5
513.488383991435	1533.25
516.267597493556	1529
519.045872990221	1525.5
521.823211219462	1540.5
524.5996129174	1516.5
527.375078818234	1525.5
530.149609654287	1520.75
532.923206155968	1536.25
535.695869051803	1548.5
538.46759906845	1535.75
541.238396930667	1548.75
544.008263361365	1515.5
546.777199081581	1518.5
549.545204810496	1538.75
552.312281265439	1539
555.078429161901	1552
557.843649213536	1531.75
560.607942132158	1539.75
563.371308627753	1527
566.133749408497	1533
568.895265180758	1562.75
571.655856649067	1542
574.415524516192	1543.5
577.174269483075	1571.75
579.932092248886	1561.25
582.688993510996	1557.25
585.444973965024	1586.5
588.200034304796	1554.25
590.954175222372	1563.75
593.707397408072	1571.25
596.459701550436	1577
599.211088336284	1560.75
601.961558450671	1564.5
604.711112576934	1582.5
607.459751396673	1548
610.207475589751	1573.75
612.954285834339	1570.75
615.70018280688	1568.25
618.445167182103	1573.5
621.189239633057	1558
623.932400831087	1547.5
626.674651445839	1550.5
629.415992145303	1533.5
632.156423595745	1561
634.895946461815	1532.25
637.634561406448	1557
640.372269090962	1549.25
643.109070174981	1569
645.84496531651	1575.5
648.579955171891	1576
651.314040395848	1577.75
654.047221641459	1600.75
656.779499560178	1583.25
659.510874801831	1569.5
662.241348014646	1578.25
664.970919845243	1603
667.699590938608	1590.25
670.427361938164	1589
673.154233485732	1592
675.880206221526	1597.25
678.605280784208	1607.5
681.329457810832	1601
684.052737936921	1591.5
686.77512179639	1600.75
689.496610021632	1599.75
692.217203243456	1598.5
694.936902091147	1618.75
697.655707192428	1601
700.373619173495	1565.25
703.090638659013	1568
705.806766272093	1569.75
708.522002634379	1602.75
711.236348365948	1582
713.949804085381	1600.25
716.662370409764	1585
719.374047954676	1596.5
722.084837334191	1576.5
724.79473916091	1593.5
727.50375404595	1610.25
730.21188259892	1605.75
732.919125427998	1598.25
735.625483139858	1618.75
738.330956339726	1610.5
741.035545631373	1621
743.739251617109	1624.25
746.44207489779	1634.5
749.144016072856	1630.75
751.845075740273	1632.25
754.545254496604	1635.75
757.244552936979	1634.75
759.942971655083	1623.75
762.640511243225	1638.25
765.337172292252	1639
768.032955391651	1620.75
770.727861129485	1672.25
773.421890092416	1624.75
776.11504286572	1638.25
778.807320033299	1643.25
781.49872217765	1621
784.189249879911	1619
786.87890371984	1632
789.567684275826	1616
792.255592124909	1645.25
794.942627842762	1629.75
797.628792003709	1643.25
800.314085180718	1640.5
802.998507945429	1638.25
805.682060868145	1619.75
808.364744517821	1637.25
811.046559462106	1622.25
813.727506267312	1665
816.407585498422	1635.5
819.086797719131	1619.5
821.765143491823	1646.75
824.442623377565	1650
827.119237936129	1651
829.794987726006	1631
832.469873304377	1648.5
835.143895227169	1650.75
837.817054048985	1646.25
840.489350323206	1662.25
843.160784601894	1666
845.831357435894	1663
848.501069374742	1653
851.169920966756	1656.75
853.837912758989	1659.5
856.505045297233	1664
859.171319126073	1677
861.836734788825	1670.5
864.501292827581	1679
867.164993783208	1670
869.827838195363	1658
872.489826602455	1685.75
875.150959541702	1681.75
877.811237549104	1675.25
880.470661159458	1675.25
883.129230906359	1676
885.786947322208	1656.5
888.443810938208	1677.5
891.099822284387	1663.75
893.754981889586	1680
896.409290281453	1680.25
899.062747986487	1698
901.715355530001	1689
904.367113436154	1691.75
907.018022227933	1703.5
909.668082427173	1670.75
912.317294554575	1689.25
914.965659129661	1690.75
917.613176670838	1680.5
920.259847695365	1705.75
922.90567271936	1704.5
925.550652257826	1709
928.194786824624	1717
930.838076932514	1713.25
933.480523093111	1695
936.122125816956	1708.5
938.762885613448	1716
941.402802990899	1717.5
944.041878456524	1712.25
946.680112516429	1719.5
949.317505675633	1704.75
951.954058438084	1726.75
954.589771306634	1722.5
957.224644783051	1732.5
959.858679368047	1711
962.491875561238	1722
965.124233861212	1712
967.755754765453	1726.75
970.386438770423	1702
973.016286371502	1740.5
975.645298063046	1742.5
978.273474338357	1737.25
980.900815689675	1752.5
983.527322608245	1720.25
986.152995584248	1728.25
988.777835106835	1721.25
991.401841664151	1733.75
994.025015743307	1741.75
996.64735783041	1729.25
999.268868410535	1723.5
1001.88954796777	1744.5
1004.50939698518	1735
1007.12841594484	1736.75
1009.74660532783	1748.5
1012.36396561423	1770.5
1014.98049728314	1740.25
1017.59620081267	1744.25
1020.21107667995	1744
1022.82512536112	1760.5
1025.43834733138	1778.75
1028.05074306492	1746
1030.66231303501	1770.25
1033.27305771392	1772.75
1035.88297757299	1765
1038.49207308257	1767.25
1041.10034471211	1778
1043.70779293008	1772.25
1046.31441820402	1783
1048.92022100052	1755.25
1051.52520178525	1820.75
1054.12936102295	1817
1056.73269917742	1798.25
1059.33521671154	1801.5
1061.93691408729	1829.25
1064.53779176572	1819
1067.13785020694	1803.25
1069.73708987022	1802.75
1072.33551121386	1813.75
1074.93311469528	1779
1077.52990077103	1801
1080.12586989674	1783.5
1082.72102252715	1798.75
1085.31535911612	1824.5
1087.90888011663	1815.75
1090.50158598078	1801.25
1093.09347715979	1800.25
1095.68455410403	1815.25
1098.27481726296	1795.75
1100.86426708523	1831
1103.45290401857	1820.25
1106.04072850991	1785.5
1108.6277410053	1817
1111.21394194993	1826.25
1113.79933178816	1831
1116.3839109635	1834.75
1118.96767991862	1836
1121.55063909539	1828
1124.13278893477	1845.5
1126.71412987696	1849.25
1129.29466236132	1860
1131.87438682637	1883.25
1134.45330370982	1842
1137.03141344858	1866.75
1139.60871647873	1869.75
1142.18521323554	1831.5
1144.7609041535	1836
1147.33578966629	1849.25
1149.90987020677	1887.25
1152.48314620702	1874.5
1155.05561809835	1873.5
1157.62728631126	1852.5
1160.19815127545	1857.25
1162.76821341988	1872.5
1165.33747317271	1856.75
1167.90593096133	1860.25
1170.47358721235	1845.25
1173.04044235163	1866.5
1175.60649680425	1864
1178.17175099454	1882
1180.73620534607	1868
1183.29986028165	1857
1185.86271622336	1851.25
1188.42477359249	1862.75
1190.98603280964	1865.5
1193.54649429462	1841.5
1196.10615846653	1866.75
1198.66502574373	1835.25
1201.22309654385	1877.75
1203.78037128379	1846.5
1206.33685037971	1863.25
1208.89253424709	1862.75
1211.44742330063	1864
1214.00151795439	1840.5
1216.55481862163	1861.75
1219.10732571498	1846.5
1221.65903964631	1844.25
1224.20996082683	1856.25
1226.760089667	1855.75
1229.30942657664	1874.75
1231.85797196483	1896.5
1234.40572623998	1884.25
1236.95268980981	1875
1239.49886308136	1864
1242.04424646099	1892
1244.58884035435	1905.75
1247.13264516647	1901.75
1249.67566130166	1908.25
1252.21788916359	1896.75
1254.75932915524	1901.5
1257.29998167896	1908.5
1259.8398471364	1919.25
1262.37892592858	1919.75
1264.91721845586	1931.25
1267.45472511795	1910
1269.9914463139	1915.5
1272.52738244213	1934.5
1275.06253390041	1914.25
1277.59690108587	1959
1280.130484395	1950.5
1282.66328422368	1918.75
1285.19530096712	1922.25
1287.72653501993	1936.75
1290.25698677609	1935.75
1292.78665662895	1998.5
1295.31554497125	2005.5
1297.84365219511	1969.5
1300.37097869203	1955.25
1302.89752485292	1959.75
1305.42329106806	1937
1307.94827772713	1990.5
1310.47248521921	1967.25
1312.99591393279	1965.5
1315.51856425575	1973.75
1318.04043657537	1977.25
1320.56153127836	1981.75
1323.08184875083	1987
1325.6013893783	1973.75
1328.12015354572	1994
1330.63814163744	2007
1333.15535403727	1983.25
1335.67179112839	2015.25
1338.18745329347	2021.75
1340.70234091455	2007.75
1343.21645437314	1983.25
1345.72979405019	2020.25
1348.24236032607	1977.5
1350.75415358059	2032.25
1353.26517419303	2009.75
1355.7754225421	2046.5
1358.28489900594	2056.25
1360.79360396218	2025
1363.30153778788	2073.75
1365.80870085955	2032.5
1368.31509355319	2052.25
1370.82071624425	2024.5
1373.32556930762	2057.75
1375.8296531177	2038.5
1378.33296804833	2034
1380.83551447282	2057.75
1383.33729276399	2034.25
1385.83830329408	2019.25
1388.33854643489	2016.5
1390.83802255762	2006.25
1393.33673203302	2014.75
1395.83467523128	2006
1398.33185252212	2010.25
1400.82826427472	2031
1403.32391085777	2008
1405.81879263948	2007.25
1408.31290998752	2019.5
1410.80626326908	2018.25
1413.29885285087	2031
1415.79067909909	2046
1418.28174237944	2015.5
1420.77204305717	2034.25
1423.26158149702	2045
1425.75035806323	2056.25
1428.2383731196	2050.75
1430.72562702943	2048.25
1433.21212015554	2074.5
1435.69785286029	2069.25
1438.18282550555	2120.25
1440.66703845276	2072.5
1443.15049206284	2103
1445.6331866963	2107
1448.11512271316	2111
1450.59630047298	2118.5
1453.07672033486	2099.25
1455.55638265748	2125.25
1458.03528779902	2118.75
1460.51343611725	2125.5
1462.99082796946	2129.25
1465.46746371252	2127.5
1467.94334370285	2112.75
1470.41846829642	2106.25
1472.89283784878	2105.25
1475.36645271503	2112.25
1477.83931324984	2147.25
1480.31141980743	2123
1482.78277274164	2101.25
1485.25337240583	2117
1487.72321915297	2117
1490.19231333557	2095.25
1492.66065530577	2108.5
1495.12824541525	2089.25
1497.5950840153	2091.75
1500.06117145678	2091
1502.52650809014	2085.5
1504.99109426543	2072.75
1507.45493033228	2109.75
1509.91801663992	2084.5
1512.38035353717	2105.25
1514.84194137248	2098.5
1517.30278049386	2086.25
1519.76287124895	2101.5
1522.22221398497	2075.25
1524.68080904877	2095.75
1527.13865678681	2093.25
1529.59575754514	2117.75
1532.05211166946	2129.5
1534.50771950503	2094.75
1536.96258139678	2114.75
1539.41669768925	2137.5
1541.87006872656	2127
1544.32269485252	2137
1546.77457641051	2132
1549.22571374357	2157.5
1551.67610719434	2145.5
1554.12575710513	2159
1556.57466381786	2159.75
1559.02282767408	2145
1561.470249015	2147.75
1563.91692818144	2192.75
1566.3628655139	2159.25
1568.80806135249	2179.5
1571.252516037	2186.25
1573.6962299068	2211.25
1576.139203301	2202
1578.58143655828	2194.75
1581.02293001704	2221.25
1583.46368401528	2212.25
1585.90369889071	2201.25
1588.34297498065	2204.25
1590.7815126221	2198.25
1593.21931215174	2214.25
1595.65637390588	2226.5
1598.09269822053	2217.75
1600.52828543135	2204.5
1602.96313587367	2204.5
1605.3972498825	2194
1607.83062779252	2181
1610.26326993808	2205.25
1612.69517665322	2198.75
1615.12634827165	2194
1617.55678512676	2190
1619.98648755164	2189.5
1622.41545587903	2188.75
1624.84369044138	2202.5
1627.27119157085	2178.75
1629.69795959924	2204.75
1632.12399485809	2211.75
1634.54929767859	2207.25
1636.97386839165	2212.75
1639.39770732789	2206.25
1641.8208148176	2189.25
1644.24319119078	2190.75
1646.66483677715	2220.75
1649.08575190611	2197.5
1651.50593690677	2218.25
1653.92539210795	2214.5
1656.3441178382	2214.5
1658.76211442575	2238
1661.17938219855	2243
1663.59592148428	2264.75
1666.01173261033	2275.25
1668.42681590377	2279.25
1670.84117169145	2262.75
1673.25480029991	2269.75
1675.66770205541	2265.5
1678.07987728393	2285.25
1680.49132631119	2290.25
1682.90204946263	2299.25
1685.31204706342	2283.5
1687.72131943847	2266.75
1690.1298669124	2281.5
1692.53768980957	2314
1694.94478845411	2290.25
1697.35116316982	2282
1699.75681428031	2320.25
1702.16174210887	2305
1704.56594697858	2304.25
1706.96942921222	2303.75
1709.37218913235	2305
1711.77422706126	2283.25
1714.17554332098	2282.5
1716.57613823331	2327.5
1718.97601211977	2276.25
1721.37516530169	2305.5
1723.77359810006	2303.75
1726.17131083573	2301.75
1728.56830382922	2311
1730.96457740087	2278.75
1733.36013187075	2293.75
1735.75496755868	2297
1738.14908478428	2309.25
1740.54248386689	2299.5
1742.93516512566	2302.75
1745.32712887946	2331.75
1747.71837544697	2281.25
1750.10890514662	2314.25
1752.49871829661	2316.75
1754.88781521492	2278.75
1757.27619621929	2320
1759.66386162726	2327.5
1762.05081175613	2312.25
1764.43704692297	2309.5
1766.82256744465	2323.25
1769.20737363782	2331
1771.59146581888	2329.75
1773.97484430405	2361.25
1776.35750940932	2336.5
1778.73946145048	2335.25
1781.12070074309	2359.75
1783.50122760249	2334.5
1785.88104234385	2359.5
1788.26014528209	2362.75
1790.63853673197	2379
1793.01621700796	2368.5
1795.39318642444	2376.25
1797.76944529549	2340
1800.14499393504	2405.5
1802.51983265681	2376.25
1804.8939617743	2362.75
1807.26738160085	2401.75
1809.64009244957	2382.75
1812.01209463339	2358.75
1814.38338846504	2409.25
1816.75397425706	2394.25
1819.12385232181	2393.75
1821.49302297142	2406.25
1823.86148651789	2383.75
1826.22924327299	2374.25
1828.59629354831	2374.75
1830.96263765526	2401.5
1833.32827590507	2428.5
1835.69320860877	2420
1838.05743607724	2393
1840.42095862113	2408.5
1842.78377655097	2400
1845.14589017707	2379.75
1847.50729980956	2408.75
1849.86800575843	2405
1852.22800833346	2387.75
1854.58730784427	2414
1856.94590460032	2412.75
1859.30379891087	2443.75
1861.66099108503	2413.5
1864.01748143175	2449.25
1866.37327025978	2440.25
1868.72835787773	2453
1871.08274459404	2444
1873.43643071697	2435.5
1875.78941655464	2461.5
1878.14170241499	2458.5
1880.4932886058	2457
1882.84417543469	2480.75
1885.19436320915	2488.5
1887.54385223646	2453.5
1889.89264282378	2475.25
1892.24073527809	2480.5
1894.58812990625	2474.75
1896.93482701494	2497.75
1899.28082691067	2517
1901.62612989985	2519.75
1903.97073628868	2537
1906.31464638326	2554.5
1908.6578604895	2572.75
1911.00037891321	2546.5
1913.34220196001	2542.5
1915.68332993538	2581.5
1918.02376314468	2569.75
1920.36350189311	2584.25
1922.70254648573	2577
1925.04089722744	2572
1927.37855442304	2617.5
1929.71551837715	2580.5
1932.05178939427	2558
1934.38736777876	2574.25
1936.72225383484	2588.5
1939.0564478666	2581.25
1941.38995017799	2587
1943.72276107283	2599.25
1946.05488085479	2587.5
1948.38630982744	2592
1950.71704829419	2596.25
1953.04709655832	2595.75
1955.376454923	2553.75
1957.70512369126	2603
1960.03310316599	2577
1962.36039364999	2594.5
1964.68699544589	2579.25
1967.01290885622	2583.25
1969.33813418338	2582.25
1971.66267172965	2590.25
1973.98652179718	2590
1976.309684688	2624.75
1978.63216070402	2622.25
1980.95395014705	2650.5
1983.27505331873	2647
1985.59547052064	2624.25
1987.9152020542	2628.5
1990.23424822074	2619.5
1992.55260932146	2633.25
1994.87028565746	2634
1997.18727752968	2643.5
1999.50358523901	2688
2001.81920908618	2666.75
2004.13414937184	2644
2006.44840639651	2733.5
2008.7619804606	2669.5
2011.07487186442	2701.5
2013.38708090815	2720.25
2015.6986078919	2742
2018.00945311564	2730.5
2020.31961687924	2756.75
2022.62909948247	2763.5
2024.93790122499	2768.25
2027.24602240636	2763.75
2029.55346332604	2794.75
2031.86022428337	2769.75
2034.16630557761	2797.25
2036.47170750791	2810.5
2038.77643037331	2826.75
2041.08047447275	2800.5
2043.38384010509	2778.75
2045.68652756907	2832.5
2047.98853716335	2833
2050.28986918648	2814
2052.59052393692	2847.5
2054.89050171302	2870.5
2057.18980281307	2830.75
2059.4884275352	2818.75
2061.78637617753	2847.75
2064.08364903802	2834.25
2066.38024641457	2848
2068.67616860497	2837.75
2070.97141590694	2836.75
2073.26598861809	2854.5
2075.55988703595	2860.75
2077.85311145796	2872.75
2080.14566218145	2857.75
2082.43753950371	2859.25
2084.72874372188	2855.75
2087.01927513307	2884.25
2089.30913403428	2876.5
2091.59832072241	2901.5
2093.88683549429	2885.75
2096.17467864666	2867.5
2098.46185047619	2884.5
2100.74835127944	2896
2103.03418135292	2897.5
2105.31934099303	2872.5
2107.6038304961	2932.5
2109.88765015838	2896.75
2112.17080027602	2925
2114.45328114513	2931.75
2116.7350930617	2961.75
2119.01623632165	2962.25
2121.29671122085	2948
2123.57651805505	2949.25
2125.85565711996	2970.5
2128.13412871117	2946.75
2130.41193312424	3008.25
2132.68907065462	2974.25
2134.96554159771	2999.25
2137.24134624881	2983.75
2139.51648490317	3018.75
2141.79095785594	2987.75
2144.0647654022	3007
2146.33790783698	3029.5
2148.61038545524	3020.25
2150.88219855182	3061
2153.15334742154	3043
2155.42383235911	3038.5
2157.69365365921	3059.5
2159.9628116164	3039.25
2162.23130652522	3076.5
2164.49913868011	3068.25
2166.76630837544	3075.75
2169.03281590553	3055.25
2171.29866156461	3091.75
2173.56384564685	3072
2175.82836844637	3092.5
2178.0922302572	3077.25
2180.35543137332	3099
2182.61797208862	3085.25
2184.87985269695	3081.25
2187.14107349208	3076.25
2189.40163476773	3061.5
2191.66153681753	3081.5
2193.92077993507	3102.5
2196.17936441386	3106.5
2198.43729054735	3081
2200.69455862894	3140.75
2202.95116895194	3094
2205.20712180963	3107
2207.4624174952	3104.5
2209.71705630179	3078.75
2211.97103852248	3111.25
2214.22436445031	3098.75
2216.47703437819	3090
2218.72904859905	3091.75
2220.98040740571	3106
2223.23111109096	3106.25
2225.4811599475	3088.75
2227.730554268	3115
2229.97929434505	3114
2232.22738047118	3149.75
2234.47481293889	3110.75
2236.72159204058	3117.75
2238.96771806864	3130
2241.21319131537	3116.5
2243.458012073	3093
2245.70218063374	3103.25
2247.94569728973	3143
2250.18856233304	3120.25
2252.4307760557	3095.5
2254.67233874967	3129.5
2256.91325070687	3106.25
2259.15351221915	3127
2261.39312357831	3109.25
2263.63208507611	3115.25
2265.87039700422	3097
2268.1080596543	3132.5
2270.34507331792	3103.75
2272.5814382866	3102.25
2274.81715485183	3123.25
2277.05222330502	3120.75
2279.28664393755	3099.75
2281.52041704073	3095.75
2283.75354290581	3131.5
2285.98602182401	3107.75
2288.21785408649	3116.25
2290.44903998434	3146.75
2292.67957980862	3109
2294.90947385033	3144.25
2297.1387224004	3103
2299.36732574976	3147.75
2301.59528418921	3143
2303.82259800958	3125
2306.04926750158	3122.5
2308.27529295593	3115.5
2310.50067466325	3136.75
2312.72541291412	3131.5
2314.9495079991	3130.25
2317.17296020866	3132.75
2319.39576983324	3155.25
2321.61793716322	3117.75
2323.83946248895	3139.25
2326.0603461007	3147.25
2328.28058828871	3118.5
2330.50018934317	3131.5
2332.7191495542	3132.75
2334.93746921192	3144.5
2337.15514860633	3110.25
2339.37218802743	3133
2341.58858776516	3123.5
2343.80434810941	3105.25
2346.01946935001	3087.75
2348.23395177676	3134.5
2350.44779567939	3129.75
2352.66100134759	3124.5
2354.87356907102	3115
2357.08549913925	3102.75
2359.29679184185	3123.75
2361.50744746829	3148
2363.71746630804	3147.75
2365.92684865049	3150
2368.13559478499	3110.5
2370.34370500083	3148.75
2372.55117958727	3108.75
2374.75801883353	3098.75
2376.96422302874	3075.25
2379.16979246202	3089.5
2381.37472742244	3092.75
2383.57902819898	3089.75
2385.78269508063	3088.5
2387.98572835629	3094.25
2390.18812831482	3090.25
2392.38989524505	3063.25
2394.59102943573	3106.25
2396.79153117559	3084.25
2398.9914007533	3092
2401.19063845748	3086
2403.38924457672	3076.5
2405.58721939951	3084
2407.78456321435	3083.5
2409.98127630966	3066.5
2412.17735897383	3084.75
2414.37281149518	3066
2416.56763416198	3091.25
2418.76182726249	3088.5
2420.95539108487	3064.5
2423.14832591726	3071
2425.34063204776	3077.75
2427.53230976439	3065.25
2429.72335935513	3078.5
2431.91378110795	3041.5
2434.10357531071	3069
2436.29274225126	3066.25
2438.48128221739	3054.75
2440.66919549684	3052.5
2442.8564823773	3060.25
2445.04314314641	3050.5
2447.22917809176	3023
2449.4145875009	3042.5
2451.59937166131	3022.25
2453.78353086044	3027
2455.96706538567	3009.75
2458.14997552437	3027.25
2460.33226156379	3043.25
2462.51392379119	3030
2464.69496249376	3007.25
2466.87537795862	3017.25
2469.05517047288	3023
2471.23434032358	2988.75
2473.41288779767	3033.5
2475.59081318212	3035.5
2477.76811676378	2960.75
2479.9447988295	3000.5
2482.12085966605	2997.5
2484.29629956016	3018.25
2486.4711187985	2976
2488.64531766769	3012.25
2490.8188964543	3019.5
2492.99185544484	2990.5
2495.16419492579	2985
2497.33591518353	2959
2499.50701650444	2976.5
2501.67749917482	3020.75
2503.84736348091	2964
2506.01660970891	2985.75
2508.18523814496	2997
2510.35324907515	2981
2512.52064278551	2991.25
2514.68741956201	2970.5
2516.85357969058	2996.75
2519.01912345709	3010.5
2521.18405114735	3001.25
2523.34836304711	2977
2525.51205944209	3026.75
2527.6751406179	2981
2529.83760686016	2985
2531.99945845439	3013.5
2534.16069568607	3012.75
2536.3213188406	3018.75
2538.48132820336	2997.75
2540.64072405965	3019.75
2542.79950669471	2972
2544.95767639373	3015.5
2547.11523344184	3007.75
2549.27217812411	2998.25
2551.42851072555	3001.75
2553.58423153111	3001
2555.7393408257	2965.5
2557.89383889413	2986.75
2560.04772602119	3029.5
2562.20100249158	2956.75
2564.35366858996	2971.25
2566.50572460093	2976.5
2568.65717080901	2961
2570.80800749867	2974.5
2572.95823495433	2973.5
2575.10785346031	2959
2577.25686330093	2944.75
2579.40526476038	2925.5
2581.55305812282	2931.75
2583.70024367237	2937.75
2585.84682169303	2921.75
2587.99279246879	2910
2590.13815628354	2895.75
2592.28291342112	2919.5
2594.42706416531	2935.75
2596.57060879981	2923.25
2598.71354760826	2917.25
2600.85588087425	2942.25
2602.99760888127	2905.25
2605.13873191278	2916.5
2607.27925025215	2896.75
2609.41916418269	2925.75
2611.55847398764	2890.5
2613.69717995017	2921.5
2615.8352823534	2939.75
2617.97278148034	2953.5
2620.10967761398	2906.5
2622.2459710372	2937.75
2624.38166203284	2936.75
2626.51675088365	2932.75
2628.65123787232	2899.25
2630.78512328145	2906
2632.9184073936	2915
2635.05109049124	2942.5
2637.18317285676	2930.75
2639.31465477249	2927
2641.44553652067	2925.75
2643.5758183835	2929
2645.70550064309	2960.5
2647.83458358144	2936.75
2649.96306748053	2937.75
2652.09095262224	2926.5
2654.21823928836	2916.5
2656.34492776063	2936
2658.47101832071	2925
2660.59651125015	2938.25
2662.72140683047	2923.75
2664.84570534309	2927
2666.96940706935	2885.5
2669.0925122905	2911.75
2671.21502128773	2931.75
2673.33693434216	2914.5
2675.45825173479	2955.25
2677.57897374658	2950.25
2679.6991006584	2936.25
2681.81863275101	2909.5
2683.93757030512	2945.75
2686.05591360133	2886.75
2688.17366292021	2924
2690.29081854218	2933
2692.40738074762	2903.25
2694.52334981681	2907.75
2696.63872602995	2951.75
2698.75350966714	2942.5
2700.86770100842	2936.5
2702.98130033372	2923.5
2705.09430792289	2914
2707.20672405572	2941.75
2709.31854901185	2917.25
2711.42978307091	2927.25
2713.54042651238	2937
2715.65047961567	2941.25
2717.7599426601	2926
2719.86881592492	2939.5
2721.97709968924	2928.75
2724.08479423213	2919.5
2726.19189983255	2952
2728.29841676935	2935
2730.40434532131	2943.25
2732.5096857671	2929.25
2734.61443838532	2916
2736.71860345444	2936.5
2738.82218125287	2924.75
2740.92517205889	2924.5
2743.02757615073	2955.5
2745.12939380646	2917.25
2747.23062530411	2934.5
2749.33127092159	2936
2751.4313309367	2926.75
2753.53080562717	2917.25
2755.62969527058	2942.5
2757.72800014448	2927
2759.82572052625	2921.75
2761.92285669323	2904.5
2764.0194089226	2927
2766.11537749147	2925.5
2768.21076267686	2933.75
2770.30556475566	2946.5
2772.39978400465	2926.25
2774.49342070054	2918.25
2776.58647511991	2940.25
2778.67894753923	2921.25
2780.77083823487	2941.5
2782.8621474831	2922.75
2784.95287556007	2916
2787.04302274184	2886.75
2789.13258930433	2911.75
2791.22157552338	2939.25
2793.30998167471	2915.75
2795.39780803392	2921
2797.48505487651	2957.5
2799.57172247786	2906.5
2801.65781111324	2915.25
2803.74332105781	2910.75
2805.82825258661	2910.5
2807.91260597457	2908.5
2809.9963814965	2930.25
2812.07957942711	2931.75
2814.16220004096	2913
2816.24424361252	2909
2818.32571041614	2899.5
2820.40660072604	2913.75
2822.48691481632	2940.25
2824.56665296098	2942.25
2826.64581543388	2936.5
2828.72440250876	2974.25
2830.80241445925	2980
2832.87985155885	2981.25
2834.95671408094	3026.5
2837.03300229875	3079.75
2839.10871648544	3116.75
2841.18385691399	3138.25
2843.25842385729	3179
2845.33241758808	3256.5
2847.40583837899	3241
2849.4786865025	3246.25
2851.550962231	3240
2853.6226658367	3194.25
2855.69379759174	3173.75
2857.76435776806	3180.25
2859.83434663753	3152.25
2861.90376447184	3168
2863.97261154259	3141.25
2866.04088812121	3158.5
2868.10859447901	3109
2870.17573088717	3113.25
2872.24229761673	3162
2874.30829493859	3202
2876.37372312353	3163.5
2878.43858244215	3319.75
2880.50287316496	3358.25
2882.56659556231	3336
2884.6297499044	3269.25
2886.69233646129	3229
2888.75435550293	3222.75
2890.81580729909	3204.25
2892.87669211941	3202.75
2894.9370102334	3179.25
2896.99676191039	3182
2899.05594741961	3198.25
2901.11456703011	3200.5
2903.1726210108	3137
2905.23010963045	3167.5
2907.28703315768	3150.5
2909.34339186096	3150.25
2911.39918600861	3124.5
2913.45441586879	3105.5
2915.50908170953	3120.75
2917.56318379867	3089.25
2919.61672240395	3126.75
2921.66969779291	3111
2923.72211023296	3127.5
2925.77395999134	3129.25
2927.82524733515	3107
2929.87597253133	3110.5
2931.92613584663	3161
2933.9757375477	3096.75
2936.02477790097	3053.25
2938.07325717276	3075
2940.1211756292	3062
2942.16853353626	3043.5
2944.21533115977	3062.25
2946.26156876536	3019.5
2948.30724661853	3013
2950.3523649846	3035
2952.39692412872	3005
2954.44092431587	2990.5
2956.4843658109	2973
2958.52724887843	2977.25
2960.56957378296	2999.25
2962.6113407888	2989
2964.65255016011	2998.5
2966.69320216083	3005.5
2968.73329705479	2979
2970.77283510559	3014.5
2972.81181657671	3015.5
2974.85024173141	3005.25
2976.88811083279	2995.75
2978.92542414379	3008.75
2980.96218192714	3028
2982.99838444541	3037
2985.034031961	3016.5
2987.06912473612	3024.5
2989.1036630328	3017.75
2991.13764711289	3051.75
2993.17107723804	3028.75
2995.20395366975	3044.5
2997.23627666931	3022.75
2999.26804649782	3080.25
3001.29926341624	3102.75
3003.32992768528	3056.75
3005.3600395655	3071.5
3007.38959931727	3059.75
3009.41860720076	3051.25
3011.44706347595	3087
3013.47496840263	3056.5
3015.50232224042	3088
3017.5291252487	3114.5
3019.5553776867	3088.25
3021.58107981344	3108.75
3023.60623188773	3115.25
3025.63083416822	3133.5
3027.65488691331	3141
3029.67839038125	3143.25
3031.70134483007	3134.75
3033.72375051759	3162.75
3035.74560770145	3111.25
3037.76691663907	3141
3039.78767758768	3140
3041.80789080431	3145.5
3043.82755654577	3131
3045.84667506867	3143.5
3047.8652466294	3128.75
3049.88327148418	3137.5
3051.90074988899	3147.5
3053.91768209961	3126.25
3055.93406837161	3124.75
3057.94990896033	3125.5
3059.96520412095	3174.25
3061.97995410838	3101.25
3063.99415917734	3148.25
3066.00781958234	3143
3068.02093557766	3175.25
3070.03350741738	3114
3072.04553535535	3128
3074.05701964521	3133
3076.06796054036	3143.5
3078.07835829401	3161.25
3080.08821315912	3137
3082.09752538846	3183.75
3084.10629523454	3168.25
3086.11452294967	3154.25
3088.12220878592	3172
3090.12935299515	3150.75
3092.13595582898	3157.75
3094.1420175388	3128.75
3096.1475383758	3144.5
3098.15251859088	3153.25
3100.15695843477	3153
3102.16085815793	3174.25
3104.16421801062	3129
3106.16703824282	3148.5
3108.16931910432	3182.75
3110.17106084464	3168.75
3112.17226371308	3174.5
3114.17292795872	3192
3116.17305383034	3212.5
3118.17264157657	3204.25
3120.17169144571	3197
3122.17020368587	3208
3124.16817854492	3250.25
3126.16561627044	3211
3128.16251710982	3234.75
3130.15888131017	3232.75
3132.15470911837	3249.5
3134.15000078104	3252
3136.14475654455	3274.25
3138.13897665502	3234.75
3140.13266135835	3241.5
3142.12581090015	3263.75
3144.11842552578	3258.5
3146.11050548036	3265.5
3148.10205100875	3279.25
3150.09306235557	3280
3152.08353976515	3241.75
3154.07348348158	3228
3156.06289374869	3290
3158.05177081006	3255
3160.04011490899	3262.75
3162.02792628852	3304.25
3164.01520519145	3289.5
3166.00195186029	3256.25
3167.98816653728	3272.5
3169.97384946442	3248.75
3171.95900088344	3268.75
3173.94362103577	3313.25
3175.9277101626	3286.75
3177.91126850484	3306.5
3179.89429630312	3282.75
3181.87679379782	3289
3183.85876122904	3318.25
3185.84019883657	3301
3187.82110685997	3303
3189.80148553851	3279.75
3191.78133511116	3274.5
3193.76065581664	3315.75
3195.73944789337	3340.75
3197.7177115795	3317.25
3199.6954471129	3305.75
3201.67265473114	3306
3203.64933467153	3306.5
3205.62548717107	3329.25
3207.60111246649	3313.25
3209.57621079422	3339
3211.55078239041	3362.5
3213.52482749093	3342.75
3215.49834633133	3349.5
3217.4713391469	3398.75
3219.44380617262	3359.25
3221.41574764318	3356.5
3223.38716379296	3345.5
3225.35805485607	3378
3227.32842106631	3380.75
3229.29826265718	3430.5
3231.26757986187	3406
3233.2363729133	3435.25
3235.20464204405	3400
3237.17238748644	3419
3239.13960947243	3428.75
3241.10630823374	3460.25
3243.07248400174	3412.75
3245.03813700748	3465
3247.00326748177	3419.5
3248.96787565503	3442.75
3250.93196175742	3457.75
3252.89552601877	3459
3254.8585686686	3416
3256.82108993612	3455.5
3258.78309005022	3431.75
3260.74456923948	3436
3262.70552773215	3436.25
3264.66596575617	3437.75
3266.62588353916	3451.25
3268.58528130843	3481.75
3270.54415929094	3465.5
3272.50251771336	3469.75
3274.46035680202	3469.5
3276.4176767829	3486.75
3278.37447788171	3466.5
3280.33076032379	3491.25
3282.28652433416	3497.5
3284.24177013751	3495
3286.1964979582	3478.25
3288.15070802027	3533
3290.10440054741	3524.75
3292.05757576298	3490.75
3294.01023389001	3499.75
3295.96237515119	3494
3297.91399976887	3455.75
3299.86510796506	3516.75
3301.81569996143	3527.75
3303.76577597932	3470.25
3305.71533623971	3512.75
3307.66438096325	3509.5
3309.61291037024	3539
3311.56092468063	3503.25
3313.50842411404	3462.75
3315.45540888971	3466.75
3317.40187922656	3505.5
3319.34783534315	3508.25
3321.29327745768	3487
3323.23820578801	3491.75
3325.18262055164	3504
3327.1265219657	3512.5
3329.06991024699	3517.75
3331.01278561194	3505.75
3332.95514827663	3511.25
3334.89699845675	3520
3336.83833636766	3520.25
3338.77916222434	3491.75
3340.71947624143	3502
3342.65927863317	3531.25
3344.59856961347	3496
3346.53734939584	3536.75
3348.47561819344	3509.75
3350.41337621907	3508.75
3352.35062368513	3518.75
3354.28736080368	3500.25
3356.22358778637	3530.75
3358.15930484452	3515
3360.09451218904	3555.5
3362.02921003047	3542.75
3363.96339857899	3547.25
3365.89707804437	3504.5
3367.83024863603	3533.75
3369.76291056299	3497.5
3371.69506403389	3545.75
3373.62670925699	3533
3375.55784644016	3543.75
3377.4884757909	3530.25
3379.41859751629	3552.25
3381.34821182305	3552.5
3383.27731891749	3540
3385.20591900555	3594
3387.13401229276	3559.25
3389.06159898426	3591
3390.9886792848	3594
3392.91525339872	3609.25
3394.84132152998	3602.75
3396.76688388213	3562.75
3398.69194065834	3586.25
3400.61649206133	3624.5
3402.54053829348	3594.25
3404.46407955672	3562.25
3406.3871160526	3596.5
3408.30964798225	3592.25
3410.23167554639	3608.5
3412.15319894535	3625.5
3414.07421837904	3639.5
3415.99473404695	3616.75
3417.91474614817	3601.5
3419.83425488136	3647.75
3421.7532604448	3618.25
3423.67176303631	3610
3425.58976285332	3644.25
3427.50726009283	3662.5
3429.42425495143	3632.5
3431.34074762528	3651.5
3433.25673831012	3619.5
3435.17222720127	3622.75
3437.08721449362	3643
3439.00170038164	3619.75
3440.91568505936	3644.5
3442.8291687204	3617
3444.74215155792	3632.5
3446.65463376469	3621.25
3448.566615533	3609
3450.47809705476	3616.75
3452.3890785214	3643
3454.29956012393	3647.25
3456.20954205293	3650.75
3458.11902449853	3611
3460.02800765042	3616
3461.93649169784	3617.75
3463.84447682962	3600.5
3465.75196323412	3602.25
3467.65895109925	3605
3469.56544061249	3613.5
3471.47143196086	3629.25
3473.37692533094	3642.5
3475.28192090884	3638.75
3477.18641888026	3618.75
3479.09041943039	3687
3480.99392274402	3634.25
3482.89692900545	3661
3484.79943839853	3614.75
3486.70145110666	3631
3488.60296731277	3599.75
3490.50398719933	3607.75
3492.40451094836	3585
3494.30453874141	3584.5
3496.20407075956	3633.5
3498.10310718342	3641
3500.00164819315	3649.25