201.866871357051	899
204.754250281454	896
207.640596790938	898.25
210.525911876299	893
213.410196525689	882.75
216.293451724508	898.5
219.175678455485	906.75
222.056877698662	894
224.937050431388	900.75
227.816197628363	904
230.694320261602	898.25
233.571419300504	907.25
236.447495711764	914
239.322550459507	901.25
242.196584505182	915.75
245.069598807626	904
247.941594323078	913.5
250.812572005154	927.25
253.682532804884	923.25
256.551477670699	908.25
259.419407548456	917.75
262.286323381439	924.5
265.152226110364	938.25
268.017116673389	916.5
270.880996006115	915.25
273.743865041622	925.25
276.605724710436	945.25
279.466575940562	931.75
282.326419657496	935
285.1852567842	918.5
288.043088241157	940
290.899914946349	936.75
293.75573781526	938.75
296.610557760898	941.75
299.464375693817	932.75
302.317192522078	959
305.169009151297	950.25
308.019826484655	945
310.86964542287	952.75
313.718466864233	939.25
316.566291704614	953.5
319.413120837457	949
322.258955153804	948
325.103795542291	951.5
327.947642889128	934.75
330.79049807819	946.75
333.632361990927	935
336.473235506444	945
339.31311950145	955.5
342.152014850322	947
344.989922425062	948.75
347.826843095354	965.25
350.662777728528	960.5
353.497727189577	947.75
356.331692341195	962.25
359.164674043732	967.5
361.996673155267	963.5
364.827690531536	967
367.65772702602	977.75
370.486783489887	965
373.314860772047	968.5
376.14195971912	975.25
378.968081175466	975.25
381.793225983212	971.75
384.617394982201	959.75
387.44058901005	972.25
390.262808902131	987
393.08405549161	979.75
395.904329609395	987.5
398.723632084213	975.25
401.541963742569	980
404.359325408779	967.75
407.175717904938	989.25
409.991142050982	982.75
412.805598664665	995
415.619088561551	986
418.43161255505	989.5
421.243171456415	980.5
424.053766074758	996
426.863397217017	987.75
429.672065688024	985
432.479772290455	994.5
435.286517824879	993
438.092303089736	1007.5
440.897128881359	1013
443.70099599399	994.5
446.503905219761	1007
449.305857348711	1003.75
452.106853168796	997.75
454.906893465919	1007
457.705979023885	1020
460.504110624439	1012.5
463.3012890473	1008
466.097515070087	1000.25
468.892789468424	1007.5
471.687113015869	1009.25
474.48048648395	991.75
477.272910642198	1006.5
480.064386258109	1027.75
482.854914097159	1004.75
485.644494922839	1011.75
488.433129496636	1028
491.220818578047	1010
494.007562924584	1013
496.793363291785	1025.75
499.578220433217	1021.25
502.362135100473	1025.25
505.145108043209	1021.75
507.927140009098	1034.5
510.708231743909	1034.5
513.488383991433	1033
516.267597493556	1042.75
519.04587299022	1032.25
521.82321121946	1043.75
524.599612917398	1040
527.375078818233	1055.25
530.149609654287	1030.75
532.923206155967	1056.25
535.695869051804	1042.5
538.467599068448	1065.25
541.238396930665	1040
544.008263361364	1047.5
546.777199081578	1043
549.545204810493	1035.25
552.312281265436	1025.25
555.078429161898	1043.5
557.843649213533	1033.25
560.607942132156	1047
563.371308627753	1043.75
566.133749408495	1049.75
568.895265180756	1055
571.655856649064	1050.25
574.415524516189	1057.5
577.174269483075	1058
579.932092248884	1060.5
582.688993510994	1060.75
585.444973965023	1054.25
588.200034304795	1071.5
590.95417522237	1072.5
593.70739740807	1072.25
596.459701550433	1066.25
599.21108833628	1062.75
601.961558450668	1071
604.711112576933	1065.25
607.459751396673	1062.5
610.207475589748	1061.75
612.954285834338	1053
615.700182806879	1045.25
618.445167182101	1066.5
621.189239633055	1063.5
623.932400831087	1065.25
626.674651445839	1051.75
629.415992145303	1078
632.156423595745	1051.5
634.895946461813	1065.75
637.634561406449	1075.75
640.37226909096	1061.75
643.109070174978	1066.5
645.844965316508	1056.25
648.579955171888	1065
651.314040395846	1060
654.047221641456	1079
656.779499560176	1069.25
659.510874801828	1056
662.241348014642	1055.5
664.97091984524	1075.5
667.699590938606	1073.75
670.427361938164	1061.75
673.15423348573	1081
675.880206221526	1077
678.605280784206	1080.5
681.329457810829	1085.75
684.05273793692	1077
686.775121796389	1092
689.49661002163	1090.5
692.217203243454	1074.75
694.936902091144	1100
697.655707192425	1080.25
700.373619173493	1084.5
703.09063865901	1073.75
705.806766272093	1080
708.522002634378	1095.5
711.236348365946	1089.5
713.94980408538	1081.5
716.662370409762	1079.5
719.374047954676	1086.75
722.08483733419	1079.5
724.794739160909	1085.75
727.503754045949	1082.25
730.21188259892	1096
732.919125427998	1110.25
735.625483139855	1101
738.330956339723	1089
741.035545631374	1108.5
743.739251617106	1104.5
746.44207489779	1109.25
749.144016072852	1112.75
751.845075740272	1089.5
754.545254496603	1097.25
757.244552936976	1119.75
759.94297165508	1114.25
762.640511243222	1111.25
765.337172292249	1125.75
768.032955391649	1100.75
770.727861129482	1109.25
773.421890092413	1097
776.11504286572	1117
778.807320033298	1106.5
781.49872217765	1122.5
784.18924987991	1107.5
786.87890371984	1101
789.567684275826	1119.25
792.255592124908	1101
794.94262784276	1118.25
797.628792003703	1106.5
800.314085180715	1125
802.998507945427	1107.75
805.682060868145	1120.25
808.364744517821	1104.75
811.046559462105	1116.75
813.727506267311	1102.25
816.407585498422	1116
819.08679771913	1108.75
821.765143491822	1110.5
824.442623377563	1121.25
827.119237936127	1146.25
829.794987726003	1124
832.469873304377	1127.75
835.143895227167	1127
837.817054048985	1119.5
840.489350323205	1127
843.160784601892	1145
845.831357435894	1136.25
848.501069374739	1127.75
851.169920966753	1141
853.837912758987	1132
856.505045297232	1134
859.171319126071	1153.25
861.836734788823	1124
864.501292827579	1141
867.164993783208	1142.5
869.827838195361	1139
872.489826602454	1130.75
875.150959541701	1136.25
877.811237549104	1124
880.470661159456	1128
883.129230906357	1145.5
885.786947322205	1127.25
888.443810938206	1137.25
891.099822284385	1126.25
893.754981889586	1135
896.409290281452	1145.25
899.062747986485	1143
901.715355529999	1144
904.367113436154	1138.75
907.01802222793	1146.25
909.668082427172	1126.5
912.317294554574	1150.25
914.965659129659	1155.5
917.613176670835	1155.25
920.259847695364	1162.25
922.90567271936	1149.5
925.550652257825	1149.75
928.194786824621	1145.75
930.838076932512	1140.25
933.480523093109	1160
936.122125816953	1141.5
938.762885613447	1150.5
941.402802990899	1153
944.041878456523	1154
946.680112516428	1156
949.31750567563	1160
951.954058438081	1142
954.589771306633	1169.75
957.224644783048	1169.5
959.858679368044	1164.5
962.491875561238	1153.25
965.12423386121	1148.75
967.75575476545	1160.75
970.386438770423	1166
973.016286371501	1164.5
975.645298063046	1164.75
978.273474338355	1167.25
980.900815689674	1145.5
983.527322608243	1157
986.152995584245	1166.25
988.777835106834	1167.5
991.401841664148	1170.5
994.025015743307	1158.25
996.647357830407	1155
999.268868410534	1163.25
1001.88954796777	1169.75
1004.50939698518	1156.5
1007.12841594484	1171.75
1009.74660532783	1158.5
1012.36396561423	1182.75
1014.98049728314	1168.5
1017.59620081267	1175
1020.21107667995	1177.75
1022.82512536112	1172.5
1025.43834733138	1186
1028.05074306493	1167.25
1030.66231303501	1180.5
1033.27305771392	1177.5
1035.88297757299	1211.75
1038.49207308257	1187.25
1041.10034471211	1181.25
1043.70779293008	1198.75
1046.31441820402	1184
1048.92022100052	1201.25
1051.52520178525	1185.25
1054.12936102295	1211.75
1056.73269917742	1224.25
1059.33521671154	1258.25
1061.93691408729	1247
1064.53779176571	1234.25
1067.13785020694	1210
1069.73708987022	1214.25
1072.33551121386	1204
1074.93311469528	1194.75
1077.52990077103	1206.25
1080.12586989674	1198.5
1082.72102252714	1197
1085.31535911611	1205.5
1087.90888011663	1188.5
1090.50158598078	1197.75
1093.09347715979	1201.5
1095.68455410403	1195
1098.27481726296	1207.25
1100.86426708523	1198.75
1103.45290401857	1220.5
1106.04072850991	1213.5
1108.6277410053	1197
1111.21394194993	1200.75
1113.79933178816	1216.5
1116.3839109635	1225.5
1118.96767991862	1236.75
1121.55063909539	1253.5
1124.13278893477	1293
1126.71412987696	1305.75
1129.29466236132	1312.75
1131.87438682637	1287.5
1134.45330370982	1274.5
1137.03141344858	1240
1139.60871647872	1237.75
1142.18521323554	1223.75
1144.7609041535	1230.25
1147.33578966629	1237.25
1149.90987020676	1231.75
1152.48314620702	1230.75
1155.05561809835	1220.75
1157.62728631125	1218.5
1160.19815127545	1220.25
1162.76821341988	1241.5
1165.33747317271	1233.5
1167.90593096133	1232
1170.47358721235	1234
1173.04044235163	1235.25
1175.60649680425	1231.75
1178.17175099454	1229.75
1180.73620534607	1233.75
1183.29986028165	1229.5
1185.86271622336	1224
1188.42477359249	1228.25
1190.98603280964	1219
1193.54649429462	1225.5
1196.10615846653	1228.5
1198.66502574372	1235.75
1201.22309654385	1234
1203.78037128378	1220
1206.33685037971	1220.75
1208.89253424709	1231.25
1211.44742330063	1232
1214.00151795438	1213.5
1216.55481862163	1229.25
1219.10732571497	1228.25
1221.65903964631	1224.25
1224.20996082683	1232.75
1226.760089667	1225.25
1229.30942657664	1238
1231.85797196483	1245
1234.40572623998	1223.75
1236.95268980981	1257
1239.49886308136	1243.75
1242.04424646098	1247.75
1244.58884035435	1247.25
1247.13264516647	1267.75
1249.67566130166	1272.75
1252.21788916358	1238.25
1254.75932915524	1252.5
1257.29998167896	1263.75
1259.83984713639	1280.5
1262.37892592857	1265.5
1264.91721845586	1265.5
1267.45472511795	1289
1269.9914463139	1274.5
1272.52738244213	1274.75
1275.0625339004	1282.75
1277.59690108587	1272.75
1280.130484395	1293
1282.66328422367	1269
1285.19530096712	1282
1287.72653501993	1310.75
1290.25698677608	1317.25
1292.78665662894	1371.5
1295.31554497125	1389.25
1297.8436521951	1381.5
1300.37097869203	1307.75
1302.89752485292	1316.75
1305.42329106805	1304.75
1307.94827772713	1309.75
1310.47248521921	1309.25
1312.99591393279	1312
1315.51856425575	1331.25
1318.04043657536	1312
1320.56153127836	1321
1323.08184875083	1312.25
1325.6013893783	1330
1328.12015354572	1318.25
1330.63814163744	1337.25
1333.15535403727	1324
1335.67179112839	1349.5
1338.18745329347	1348.75
1340.70234091454	1345.25
1343.21645437314	1346.5
1345.72979405019	1372.75
1348.24236032607	1350.5
1350.75415358059	1374
1353.26517419303	1375.5
1355.7754225421	1352
1358.28489900594	1382.25
1360.79360396218	1397
1363.30153778787	1403.75
1365.80870085955	1396.5
1368.31509355319	1417
1370.82071624424	1413
1373.32556930762	1416.25
1375.8296531177	1399.25
1378.33296804832	1397.25
1380.83551447282	1392
1383.33729276399	1403
1385.83830329408	1398.25
1388.33854643489	1416
1390.83802255762	1415
1393.33673203301	1427.75
1395.83467523128	1409.75
1398.33185252211	1410.75
1400.82826427471	1427.25
1403.32391085777	1422.5
1405.81879263947	1438.25
1408.31290998752	1433.25
1410.80626326908	1454.75
1413.29885285087	1464.25
1415.79067909909	1499.5
1418.28174237944	1509.75
1420.77204305717	1482.75
1423.26158149702	1488
1425.75035806323	1500.5
1428.2383731196	1490
1430.72562702942	1509.5
1433.21212015554	1504.25
1435.69785286028	1538.5
1438.18282550555	1552.75
1440.66703845275	1555
1443.15049206284	1568.5
1445.6331866963	1576.5
1448.11512271316	1551
1450.59630047298	1559.75
1453.07672033486	1577.25
1455.55638265748	1578.25
1458.03528779902	1588.75
1460.51343611725	1605.75
1462.99082796946	1620
1465.46746371252	1620
1467.94334370285	1603
1470.41846829642	1621.5
1472.89283784878	1636.5
1475.36645271503	1619.25
1477.83931324983	1647.75
1480.31141980743	1620
1482.78277274164	1631.75
1485.25337240583	1613.5
1487.72321915297	1640.25
1490.19231333557	1647.25
1492.66065530578	1648
1495.12824541525	1674.25
1497.5950840153	1674.25
1500.06117145678	1662.25
1502.52650809014	1670
1504.99109426543	1693.25
1507.45493033227	1715.5
1509.91801663992	1698.25
1512.38035353717	1724.5
1514.84194137248	1735.25
1517.30278049386	1736.5
1519.76287124894	1726.5
1522.22221398497	1737.75
1524.68080904876	1758.5
1527.13865678681	1738.75
1529.59575754514	1789.5
1532.05211166945	1822.25
1534.50771950503	1793.5
1536.96258139678	1792.75
1539.41669768924	1822.25
1541.87006872656	1796.5
1544.32269485252	1844.5
1546.77457641051	1836.5
1549.22571374357	1885.5
1551.67610719434	1912.25
1554.12575710513	1885.25
1556.57466381785	1903.5
1559.02282767408	1904.25
1561.47024901499	1938.25
1563.91692818144	1921.75
1566.3628655139	1948.75
1568.80806135249	1959
1571.252516037	1969.75
1573.6962299068	2010.75
1576.13920330099	2008
1578.58143655828	2029.75
1581.02293001704	2046.75
1583.46368401528	2012.25
1585.90369889071	2020.25
1588.34297498065	2063.5
1590.7815126221	2059.25
1593.21931215173	2065.75
1595.65637390588	2089.25
1598.09269822053	2089.25
1600.52828543135	2104
1602.96313587367	2105
1605.3972498825	2129.25
1607.83062779252	2119
1610.26326993808	2112.75
1612.69517665322	2133.75
1615.12634827165	2153
1617.55678512676	2148
1619.98648755163	2128.25
1622.41545587902	2171
1624.84369044138	2127.75
1627.27119157085	2159.25
1629.69795959924	2188.25
1632.12399485808	2161.75
1634.54929767859	2223.25
1636.97386839165	2198.25
1639.39770732789	2197.75
1641.8208148176	2193
1644.24319119078	2216
1646.66483677715	2234.5
1649.0857519061	2238.75
1651.50593690677	2243.25
1653.92539210795	2270.5
1656.3441178382	2260.25
1658.76211442575	2281
1661.17938219855	2290.5
1663.59592148428	2295.25
1666.01173261032	2312.75
1668.42681590377	2318.25
1670.84117169145	2335.5
1673.25480029991	2320
1675.66770205541	2318
1678.07987728393	2370.75
1680.49132631119	2352.5
1682.90204946263	2394.75
1685.31204706342	2385
1687.72131943846	2390.75
1690.1298669124	2398.75
1692.53768980957	2431.25
1694.94478845411	2402.5
1697.35116316982	2429.5
1699.75681428031	2408.5
1702.16174210887	2419.25
1704.56594697858	2426.75
1706.96942921222	2440.25
1709.37218913235	2453.75
1711.77422706125	2438.25
1714.17554332098	2466.5
1716.5761382333	2470.75
1718.97601211977	2481.75
1721.37516530169	2494.75
1723.77359810006	2470.75
1726.17131083572	2488.5
1728.56830382922	2490.25
1730.96457740087	2471
1733.36013187075	2471
1735.75496755868	2469
1738.14908478428	2490.25
1740.54248386689	2524.5
1742.93516512565	2519.25
1745.32712887946	2515
1747.71837544697	2540
1750.10890514662	2571.25
1752.49871829661	2527
1754.88781521492	2566
1757.27619621929	2557
1759.66386162726	2571
1762.05081175612	2565
1764.43704692297	2593.75
1766.82256744465	2563.25
1769.20737363782	2612
1771.59146581887	2578.75
1773.97484430405	2617.5
1776.35750940932	2634.25
1778.73946145048	2620.25
1781.12070074309	2659.25
1783.50122760249	2698.5
1785.88104234385	2655.75
1788.26014528209	2695.75
1790.63853673196	2718.25
1793.01621700796	2724.5
1795.39318642443	2735
1797.76944529549	2700.75
1800.14499393503	2715.25
1802.51983265681	2737.75
1804.8939617743	2796
1807.26738160085	2786.5
1809.64009244957	2774.5
1812.01209463339	2772.25
1814.38338846504	2854.5
1816.75397425706	2794.25
1819.12385232181	2826
1821.49302297142	2800.25
1823.86148651789	2825
1826.22924327299	2786.25
1828.59629354831	2811.75
1830.96263765526	2822.75
1833.32827590507	2825.25
1835.69320860877	2837
1838.05743607724	2846.5
1840.42095862113	2838.5
1842.78377655097	2879
1845.14589017707	2851.25
1847.50729980956	2873.5
1849.86800575843	2871.5
1852.22800833346	2887.5
1854.58730784427	2901.75
1856.94590460032	2914.25
1859.30379891087	2935.25
1861.66099108503	2932.75
1864.01748143175	2936.25
1866.37327025978	2965.25
1868.72835787773	2972.5
1871.08274459403	2979.75
1873.43643071697	2966.5
1875.78941655464	3023.75
1878.14170241498	2994.25
1880.4932886058	3008.25
1882.84417543469	3045.25
1885.19436320915	3052.25
1887.54385223646	3019
1889.89264282378	3053.75
1892.24073527809	3101.5
1894.58812990625	3088.5
1896.93482701493	3099.5
1899.28082691067	3071.25
1901.62612989984	3135
1903.97073628868	3145.25
1906.31464638326	3138.75
1908.6578604895	3137.25
1911.00037891321	3195
1913.34220196	3201
1915.68332993537	3199.75
1918.02376314468	3216.5
1920.36350189311	3212.25
1922.70254648573	3222.75
1925.04089722744	3247.25
1927.37855442303	3217.25
1929.71551837715	3207
1932.05178939426	3204.25
1934.38736777876	3227
1936.72225383484	3255.25
1939.0564478666	3275.25
1941.38995017799	3215.25
1943.72276107283	3241.25
1946.05488085479	3235.75
1948.38630982744	3263.5
1950.71704829419	3244.75
1953.04709655832	3227
1955.376454923	3233
1957.70512369126	3249.75
1960.03310316599	3264
1962.36039364999	3218
1964.68699544589	3234
1967.01290885622	3276.75
1969.33813418338	3276
1971.66267172965	3236.75
1973.98652179718	3276.75
1976.309684688	3330.5
1978.63216070402	3275
1980.95395014705	3312.25
1983.27505331873	3294.75
1985.59547052063	3332.25
1987.9152020542	3311.75
1990.23424822074	3329.25
1992.55260932146	3310.5
1994.87028565746	3308.75
1997.18727752968	3311.25
1999.503585239	3398.25
2001.81920908618	3332.25
2004.13414937184	3410.25
2006.44840639651	3432.75
2008.7619804606	3444.25
2011.07487186442	3422.5
2013.38708090815	3405.5
2015.6986078919	3448
2018.00945311564	3421.25
2020.31961687923	3438.25
2022.62909948246	3498.75
2024.93790122498	3468
2027.24602240636	3467.25
2029.55346332604	3497.25
2031.86022428337	3500.75
2034.16630557761	3517.5
2036.47170750791	3517.25
2038.77643037331	3553.75
2041.08047447275	3538.25
2043.38384010509	3528.25
2045.68652756907	3541.75
2047.98853716335	3566
2050.28986918648	3557.25
2052.59052393692	3569.75
2054.89050171302	3603.75
2057.18980281306	3594.75
2059.4884275352	3574.5
2061.78637617753	3578.75
2064.08364903802	3588.75
2066.38024641457	3573
2068.67616860497	3585.5
2070.97141590694	3574.75
2073.26598861809	3616.75
2075.55988703595	3603.5
2077.85311145796	3593.5
2080.14566218145	3627
2082.43753950371	3619
2084.72874372188	3643
2087.01927513307	3641.25
2089.30913403428	3697.75
2091.59832072241	3662.25
2093.88683549429	3623.25
2096.17467864666	3686.25
2098.46185047619	3663.25
2100.74835127944	3701.25
2103.03418135292	3752.5
2105.31934099303	3709.75
2107.6038304961	3711.75
2109.88765015838	3751.25
2112.17080027602	3757
2114.45328114513	3743.75
2116.7350930617	3795
2119.01623632165	3769.5
2121.29671122085	3768.75
2123.57651805505	3820.75
2125.85565711996	3796
2128.13412871117	3820.5
2130.41193312424	3808.75
2132.68907065462	3856.75
2134.96554159771	3841.5
2137.24134624881	3868.25
2139.51648490317	3866.75
2141.79095785593	3887
2144.0647654022	3938.75
2146.33790783698	3904.5
2148.61038545524	3898.75
2150.88219855182	3977.5
2153.15334742154	3968.5
2155.42383235911	3971.25
2157.6936536592	3959.5
2159.9628116164	3974.75
2162.23130652522	3966.75
2164.49913868011	3977
2166.76630837544	3994.5
2169.03281590552	4004.5
2171.2986615646	4008.5
2173.56384564685	4007.5
2175.82836844637	4015
2178.0922302572	4043.75
2180.35543137332	4018.25
2182.61797208862	4032.75
2184.87985269695	4010.25
2187.14107349208	4021.25
2189.40163476773	4055.75
2191.66153681753	4040.5
2193.92077993507	4016
2196.17936441386	4044
2198.43729054735	4058.25
2200.69455862894	4073.5
2202.95116895194	4082
2205.20712180962	4057
2207.46241749519	4093
2209.71705630179	4092.25
2211.97103852248	4060
2214.2243644503	4081.5
2216.47703437819	4081.75
2218.72904859905	4059
2220.98040740571	4078.75
2223.23111109095	4084.5
2225.4811599475	4114.25
2227.73055426799	4099.25
2229.97929434504	4068.5
2232.22738047118	4041
2234.47481293889	4097.5
2236.72159204058	4120
2238.96771806864	4110.25
2241.21319131536	4094.5
2243.458012073	4085.75
2245.70218063374	4108.75
2247.94569728973	4102.75
2250.18856233304	4096.75
2252.4307760557	4085.25
2254.67233874967	4107.5
2256.91325070687	4103.5
2259.15351221915	4125.5
2261.39312357831	4061.75
2263.63208507611	4103
2265.87039700422	4095.25
2268.1080596543	4086.5
2270.34507331792	4038.75
2272.5814382866	4080.5
2274.81715485183	4094.5
2277.05222330502	4100
2279.28664393755	4122.75
2281.52041704072	4080.25
2283.75354290581	4104
2285.98602182401	4085.5
2288.21785408648	4057
2290.44903998434	4103.25
2292.67957980862	4126.5
2294.90947385033	4090.5
2297.1387224004	4084
2299.36732574975	4108.75
2301.59528418921	4093.75
2303.82259800958	4110
2306.04926750158	4122
2308.27529295593	4103.75
2310.50067466325	4101.75
2312.72541291412	4112.5
2314.9495079991	4085.75
2317.17296020866	4065.75
2319.39576983323	4093.5
2321.61793716322	4134
2323.83946248894	4101
2326.06034610069	4108.75
2328.28058828871	4098.5
2330.50018934317	4093.75
2332.7191495542	4117
2334.93746921192	4060.5
2337.15514860633	4080.25
2339.37218802743	4085.5
2341.58858776516	4084
2343.80434810941	4092.25
2346.01946935001	4058.25
2348.23395177675	4072.5
2350.44779567939	4054.25
2352.66100134759	4052
2354.87356907101	4086.5
2357.08549913925	4062.25
2359.29679184185	4049
2361.50744746829	4066.25
2363.71746630804	4050.75
2365.92684865048	4054
2368.13559478499	3998.25
2370.34370500083	4070.5
2372.55117958727	4074.25
2374.75801883352	4025
2376.96422302874	4018.5
2379.16979246202	4009.5
2381.37472742243	4007.5
2383.57902819898	3995
2385.78269508063	3963
2387.98572835629	3989.75
2390.18812831482	3969.25
2392.38989524505	3982.75
2394.59102943573	4006.5
2396.79153117559	4003.75
2398.9914007533	3987
2401.19063845748	3999.25
2403.38924457672	3937.5
2405.58721939951	3930.25
2407.78456321435	3926.25
2409.98127630966	3968.5
2412.17735897382	3958.25
2414.37281149517	3951.5
2416.56763416198	3929.25
2418.76182726249	3946.75
2420.95539108487	3954.75
2423.14832591726	3940
2425.34063204776	3911
2427.53230976439	3936.25
2429.72335935513	3926
2431.91378110795	3886
2434.10357531071	3916.5
2436.29274225125	3892.5
2438.48128221739	3903.5
2440.66919549683	3904.25
2442.8564823773	3845
2445.04314314641	3913
2447.22917809176	3867
2449.4145875009	3882
2451.59937166131	3853
2453.78353086044	3860.25
2455.96706538568	3834.25
2458.14997552436	3803
2460.33226156379	3823.25
2462.51392379119	3813.5
2464.69496249376	3808.75
2466.87537795862	3757.25
2469.05517047288	3779.75
2471.23434032357	3748.5
2473.41288779767	3772.25
2475.59081318211	3772
2477.76811676378	3718.25
2479.9447988295	3721.25
2482.12085966605	3725.5
2484.29629956016	3700
2486.4711187985	3717.75
2488.64531766769	3734.75
2490.8188964543	3719
2492.99185544484	3667.25
2495.16419492579	3682
2497.33591518353	3670
2499.50701650444	3640
2501.67749917482	3631.25
2503.84736348091	3611.75
2506.01660970891	3595.5
2508.18523814496	3654.25
2510.35324907514	3619.5
2512.52064278551	3650.25
2514.68741956201	3648.5
2516.85357969058	3655.5
2519.01912345709	3672.5
2521.18405114735	3614.75
2523.34836304711	3605.25
2525.51205944208	3599.5
2527.6751406179	3619.25
2529.83760686016	3596.75
2531.99945845439	3597
2534.16069568606	3573
2536.3213188406	3583
2538.48132820336	3547.75
2540.64072405965	3563
2542.79950669471	3563.75
2544.95767639373	3560.5
2547.11523344184	3572
2549.27217812411	3530.75
2551.42851072555	3497
2553.58423153111	3507
2555.73934082569	3495
2557.89383889412	3489.5
2560.04772602118	3498.25
2562.20100249158	3476.25
2564.35366858996	3453.75
2566.50572460093	3454.75
2568.65717080901	3449
2570.80800749867	3428.25
2572.95823495433	3445.5
2575.10785346031	3412
2577.25686330093	3400
2579.40526476038	3336
2581.55305812282	3349.75
2583.70024367237	3342.75
2585.84682169303	3344.5
2587.99279246879	3325.75
2590.13815628354	3348.25
2592.28291342112	3319.5
2594.42706416531	3329.5
2596.5706087998	3294.75
2598.71354760826	3341.5
2600.85588087425	3328.25
2602.99760888127	3315.5
2605.13873191278	3262.5
2607.27925025214	3269.25
2609.41916418269	3306.75
2611.55847398764	3276.5
2613.69717995017	3263
2615.83528235339	3268.25
2617.97278148034	3244.75
2620.10967761398	3285.25
2622.2459710372	3283.25
2624.38166203284	3235
2626.51675088365	3243
2628.65123787231	3231.75
2630.78512328145	3248
2632.9184073936	3227.5
2635.05109049124	3264.25
2637.18317285676	3209
2639.31465477248	3250.25
2641.44553652067	3235.75
2643.5758183835	3171
2645.70550064309	3209
2647.83458358144	3222.5
2649.96306748053	3224.25
2652.09095262223	3205.5
2654.21823928836	3234.5
2656.34492776063	3163.25
2658.47101832071	3206
2660.59651125015	3195.5
2662.72140683047	3153.75
2664.84570534309	3146
2666.96940706934	3158.5
2669.0925122905	3163.75
2671.21502128773	3147.25
2673.33693434215	3162.25
2675.45825173479	3125.75
2677.57897374658	3141.25
2679.69910065839	3149.5
2681.818632751	3120.25
2683.93757030511	3139
2686.05591360133	3127.5
2688.17366292021	3152.75
2690.29081854218	3137.25
2692.40738074762	3069
2694.52334981681	3120.5
2696.63872602995	3075.75
2698.75350966713	3102.5
2700.86770100841	3100.75
2702.98130033371	3075.5
2705.09430792289	3064.25
2707.20672405571	3110.5
2709.31854901185	3096.75
2711.42978307091	3040.5
2713.54042651238	3060.25
2715.65047961567	3097.75
2717.7599426601	3079.25
2719.86881592491	3064.75
2721.97709968924	3031.25
2724.08479423213	3040.5
2726.19189983255	3070.25
2728.29841676934	3032.5
2730.4043453213	3067.5
2732.5096857671	3046
2734.61443838532	3051.25
2736.71860345444	3022.75
2738.82218125286	3014.5
2740.92517205889	3032.25
2743.02757615072	3063.75
2745.12939380646	2975
2747.23062530411	2997.5
2749.33127092159	3021.75
2751.4313309367	2984.5
2753.53080562716	3001.5
2755.62969527058	3033.75
2757.72800014448	2964.5
2759.82572052625	2986
2761.92285669323	2985.5
2764.0194089226	2988.75
2766.11537749147	2971.75
2768.21076267686	2974.5
2770.30556475566	2959.25
2772.39978400465	2950.25
2774.49342070054	2960.25
2776.58647511991	2958
2778.67894753923	2954.5
2780.77083823487	2958.25
2782.8621474831	2939.25
2784.95287556007	2907.5
2787.04302274184	2916
2789.13258930433	2972
2791.22157552338	2900.25
2793.30998167471	2922.5
2795.39780803392	2930.25
2797.4850548765	2931.25
2799.57172247786	2917
2801.65781111324	2899.75
2803.74332105781	2931.75
2805.82825258661	2876.75
2807.91260597457	2934.25
2809.9963814965	2888.5
2812.07957942711	2875.25
2814.16220004096	2877.75
2816.24424361252	2895
2818.32571041614	2919.5
2820.40660072604	2901.25
2822.48691481631	2915.75
2824.56665296098	2904.75
2826.64581543388	2927
2828.72440250876	2930.5
2830.80241445925	2938
2832.87985155885	2950.5
2834.95671408093	3005
2837.03300229875	3052.75
2839.10871648544	3055.25
2841.18385691399	3168.25
2843.25842385729	3206.25
2845.33241758808	3293.5
2847.40583837898	3314
2849.4786865025	3280.75
2851.550962231	3290
2853.6226658367	3237.75
2855.69379759173	3207.5
2857.76435776806	3191.75
2859.83434663753	3139.75
2861.90376447184	3150.5
2863.97261154259	3145
2866.0408881212	3118
2868.10859447901	3107
2870.17573088717	3156.5
2872.24229761673	3124.5
2874.30829493859	3152.5
2876.37372312352	3206.75
2878.43858244215	3270.5
2880.50287316496	3334.25
2882.56659556231	3321.5
2884.62974990439	3287.25
2886.69233646129	3246.75
2888.75435550293	3196.25
2890.81580729909	3175
2892.87669211941	3167.75
2894.93701023339	3194.75
2896.99676191039	3150.25
2899.05594741961	3181
2901.1145670301	3131.25
2903.1726210108	3128.5
2905.23010963045	3143.75
2907.28703315768	3135
2909.34339186096	3113.5
2911.39918600861	3100.25
2913.45441586879	3093.75
2915.50908170952	3079.25
2917.56318379867	3044.5
2919.61672240395	3078.5
2921.66969779291	3068.5
2923.72211023295	3077.5
2925.77395999134	3062
2927.82524733515	3077.5
2929.87597253132	3101.5
2931.92613584663	3088.25
2933.97573754769	3061
2936.02477790097	3015.75
2938.07325717276	3010.5
2940.1211756292	3032.75
2942.16853353626	3001
2944.21533115976	2988.25
2946.26156876536	2974.25
2948.30724661853	2973
2950.3523649846	2929.5
2952.39692412872	2955
2954.44092431587	2955.5
2956.48436581089	2950.75
2958.52724887843	2936.25
2960.56957378296	2896.25
2962.6113407888	2937.25
2964.65255016011	2943.5
2966.69320216083	2972
2968.73329705479	2921.25
2970.77283510559	2916
2972.81181657671	2957.75
2974.8502417314	2945.75
2976.88811083279	2934.75
2978.92542414378	2949.5
2980.96218192713	2942.25
2982.99838444541	2975
2985.034031961	2923.5
2987.06912473612	2946
2989.1036630328	2973.5
2991.13764711288	2952
2993.17107723804	2945
2995.20395366974	2961.5
2997.23627666931	2947.5
2999.26804649782	2985.5
3001.29926341624	2992.5
3003.32992768528	3011.5
3005.3600395655	3007.75
3007.38959931726	3009
3009.41860720076	3010.75
3011.44706347595	3048
3013.47496840263	3004
3015.50232224041	3013.75
3017.5291252487	3019.25
3019.5553776867	3030.25
3021.58107981344	3030
3023.60623188773	3024.25
3025.63083416822	3031.5
3027.65488691331	3037.25
3029.67839038125	3041.25
3031.70134483007	3029.75
3033.72375051759	3041.25
3035.74560770144	3073.75
3037.76691663907	3050.5
3039.78767758768	3055
3041.80789080431	3038
3043.82755654577	3058.75
3045.84667506867	3037.75
3047.8652466294	3081.5
3049.88327148418	3065.5
3051.90074988899	3020.75
3053.91768209961	3054.25
3055.9340683716	3033.5
3057.94990896033	3051.25
3059.96520412095	3061.5
3061.97995410838	3054.5
3063.99415917734	3059.75
3066.00781958234	3052
3068.02093557766	3036.75
3070.03350741738	3040.5
3072.04553535535	3061.25
3074.05701964521	3061.25
3076.06796054036	3045
3078.078358294	3063
3080.08821315912	3074.75
3082.09752538846	3065.5
3084.10629523454	3042.5
3086.11452294967	3065.75
3088.12220878592	3040.5
3090.12935299515	3051
3092.13595582898	3031.25
3094.1420175388	3056.75
3096.14753837579	3040.5
3098.15251859088	3042.5
3100.15695843477	3057.5
3102.16085815793	3055.25
3104.16421801061	3040.5
3106.16703824282	3045.5
3108.16931910432	3077
3110.17106084464	3042.75
3112.17226371308	3094.5
3114.17292795872	3056
3116.17305383034	3077
3118.17264157657	3061.25
3120.17169144571	3071.75
3122.17020368587	3077.5
3124.16817854492	3071.25
3126.16561627044	3114.75
3128.16251710982	3127.5
3130.15888131017	3098.75
3132.15470911837	3126.75
3134.15000078104	3103.25
3136.14475654455	3094.5
3138.13897665502	3119.75
3140.13266135835	3130
3142.12581090014	3113.75
3144.11842552577	3117.25
3146.11050548036	3160
3148.10205100875	3133.75
3150.09306235557	3174.25
3152.08353976515	3129.25
3154.07348348158	3111.25
3156.06289374869	3175.25
3158.05177081006	3143.75
3160.04011490899	3146.5
3162.02792628852	3158.5
3164.01520519145	3184
3166.00195186029	3149.5
3167.98816653728	3152.75
3169.97384946442	3184.25
3171.95900088344	3158
3173.94362103577	3156.25
3175.92771016259	3161.25
3177.91126850484	3163.75
3179.89429630312	3180.75
3181.87679379782	3178
3183.85876122903	3185.25
3185.84019883657	3191.5
3187.82110685997	3168.5
3189.80148553851	3171.5
3191.78133511116	3205.75
3193.76065581664	3245.75
3195.73944789337	3197.75
3197.7177115795	3191.25
3199.6954471129	3213.25
3201.67265473114	3201.5
3203.64933467153	3196.75
3205.62548717107	3211.5
3207.60111246648	3219.75
3209.57621079421	3189.25
3211.55078239041	3239.75
3213.52482749093	3206.75
3215.49834633133	3235.75
3217.4713391469	3242
3219.44380617262	3226
3221.41574764317	3255.25
3223.38716379296	3255.75
3225.35805485607	3230
3227.32842106631	3246.75
3229.29826265718	3244
3231.26757986187	3267.25
3233.2363729133	3283.5
3235.20464204405	3259.5
3237.17238748643	3282.75
3239.13960947243	3300.5
3241.10630823374	3307.75
3243.07248400174	3316.25
3245.03813700748	3321.75
3247.00326748177	3314.5
3248.96787565503	3314.5
3250.93196175742	3322
3252.89552601877	3317.25
3254.8585686686	3289.5
3256.82108993612	3353.75
3258.78309005022	3304
3260.74456923948	3322.25
3262.70552773215	3317.75
3264.66596575617	3286.75
3266.62588353916	3345
3268.58528130843	3303.75
3270.54415929094	3319.5
3272.50251771336	3337.25
3274.46035680201	3348.5
3276.4176767829	3372.5
3278.37447788171	3295.75
3280.33076032379	3345.75
3282.28652433416	3354
3284.24177013751	3319.75
3286.1964979582	3326
3288.15070802027	3369.75
3290.10440054741	3337.25
3292.05757576298	3314.75
3294.01023389001	3341.75
3295.96237515119	3329.75
3297.91399976887	3347
3299.86510796506	3323.75
3301.81569996142	3326.5
3303.76577597932	3334.5
3305.7153362397	3368.75
3307.66438096324	3346.25
3309.61291037024	3332.5
3311.56092468064	3359.25
3313.50842411404	3344.5
3315.45540888971	3343.25
3317.40187922656	3322.25
3319.34783534315	3322.5
3321.29327745768	3326.5
3323.23820578801	3344.5
3325.18262055164	3305.5
3327.1265219657	3300.5
3329.06991024699	3324.75
3331.01278561194	3296
3332.95514827662	3289.5
3334.89699845674	3342.75
3336.83833636766	3334.25
3338.77916222434	3311.75
3340.71947624143	3319.5
3342.65927863317	3339.75
3344.59856961346	3308.25
3346.53734939584	3352
3348.47561819344	3315.5
3350.41337621906	3310.75
3352.35062368513	3323
3354.28736080368	3323
3356.22358778637	3309
3358.15930484452	3357.75
3360.09451218904	3337.25
3362.02921003047	3306.25
3363.96339857898	3333.5
3365.89707804436	3310.5
3367.83024863602	3349.25
3369.76291056299	3310.75
3371.69506403389	3294.5
3373.62670925699	3371.75
3375.55784644016	3347.25
3377.4884757909	3332.75
3379.41859751629	3395
3381.34821182305	3352
3383.27731891749	3314.75
3385.20591900555	3348
3387.13401229276	3362.25
3389.06159898426	3403
3390.9886792848	3344.5
3392.91525339872	3383.75
3394.84132152998	3398.25
3396.76688388213	3373
3398.69194065833	3361
3400.61649206133	3386.5
3402.54053829348	3441.75
3404.46407955672	3357.75
3406.3871160526	3425.25
3408.30964798225	3356.5
3410.23167554639	3379.25
3412.15319894535	3444
3414.07421837904	3408.5
3415.99473404695	3389.25
3417.91474614817	3392.75
3419.83425488136	3420
3421.75326044479	3419
3423.67176303631	3414.25
3425.58976285332	3428.5
3427.50726009282	3396.25
3429.42425495143	3422.25
3431.34074762528	3402.25
3433.25673831012	3372.5
3435.17222720127	3402
3437.08721449362	3425.5
3439.00170038164	3414.75
3440.91568505936	3411.5
3442.82916872039	3391.25
3444.74215155791	3422
3446.65463376468	3420.25
3448.566615533	3409.5
3450.47809705476	3431.25
3452.3890785214	3444
3454.29956012393	3398.5
3456.20954205293	3399.75
3458.11902449853	3424.5
3460.02800765041	3383.25
3461.93649169784	3407
3463.84447682962	3387.75
3465.75196323412	3391.25
3467.65895109925	3397.25
3469.56544061249	3406.5
3471.47143196086	3389
3473.37692533093	3388
3475.28192090884	3364.25
3477.18641888026	3414.75
3479.09041943039	3416.75
3480.99392274402	3417.75
3482.89692900545	3376.5
3484.79943839853	3400.25
3486.70145110666	3413
3488.60296731277	3391
3490.50398719933	3354.25
3492.40451094836	3364.75
3494.30453874141	3389
3496.20407075956	3433.25
3498.10310718342	3397.25
3500.00164819315	3377.5