201.866871357053	2400
204.754250281456	2407.25
207.640596790939	2410
210.525911876301	2393.5
213.41019652569	2383
216.293451724511	2405.5
219.175678455486	2415.25
222.056877698663	2437.25
224.937050431391	2404.25
227.816197628365	2417.25
230.694320261604	2471.5
233.571419300504	2472.25
236.447495711765	2432.5
239.322550459507	2480
242.196584505184	2455.75
245.069598807628	2453.5
247.94159432308	2425.75
250.812572005157	2470.25
253.682532804885	2488.5
256.551477670701	2498
259.419407548458	2473.75
262.286323381442	2480.75
265.152226110364	2478.5
268.017116673389	2463.75
270.880996006118	2446.75
273.743865041624	2484.75
276.605724710438	2481.5
279.466575940565	2508
282.326419657499	2518.5
285.185256784201	2489.75
288.04308824116	2499.25
290.899914946356	2496.5
293.75573781526	2517
296.610557760899	2488.25
299.464375693819	2507
302.317192522079	2519.5
305.169009151297	2491.5
308.019826484655	2502
310.869645422872	2498.75
313.718466864235	2492.75
316.566291704615	2535
319.41312083746	2502.75
322.258955153805	2507
325.103795542294	2495.5
327.947642889129	2523.5
330.79049807819	2479
333.63236199093	2519.5
336.473235506447	2501
339.313119501453	2501.75
342.152014850323	2534.25
344.989922425064	2528.5
347.826843095356	2517.5
350.662777728529	2536.75
353.497727189577	2527.75
356.331692341196	2549.75
359.164674043732	2578.25
361.996673155267	2532.25
364.827690531538	2581.5
367.657727026021	2551.75
370.486783489887	2560
373.314860772046	2563
376.14195971912	2565.25
378.968081175469	2548.75
381.793225983214	2548.5
384.617394982201	2562.5
387.44058901005	2610.5
390.262808902134	2575.5
393.084055491614	2587.75
395.904329609395	2569
398.723632084216	2611
401.541963742572	2627.5
404.359325408781	2581
407.17571790494	2566.75
409.991142050985	2573.5
412.805598664665	2578.75
415.619088561551	2588.5
418.431612555051	2587
421.243171456419	2529.5
424.05376607476	2572
426.86339721702	2576.25
429.672065688025	2573.75
432.479772290455	2570
435.28651782488	2577
438.092303089737	2594
440.897128881362	2594.25
443.700995993992	2588
446.503905219761	2608.75
449.305857348711	2588
452.106853168798	2578.5
454.906893465921	2581.25
457.705979023886	2577
460.504110624441	2607
463.301289047302	2587.5
466.09751507009	2560.25
468.892789468424	2595.25
471.687113015869	2568.5
474.480486483952	2544.5
477.272910642201	2544.25
480.064386258111	2576.75
482.854914097161	2580
485.644494922841	2596
488.433129496637	2574.25
491.22081857805	2594.25
494.007562924587	2590
496.793363291787	2612.25
499.578220433219	2597.5
502.362135100475	2612
505.145108043209	2642.25
507.927140009101	2631.75
510.70823174391	2653.5
513.488383991435	2646.25
516.267597493556	2612.5
519.045872990221	2635.75
521.823211219462	2596
524.5996129174	2619.75
527.375078818234	2638.25
530.149609654287	2617.75
532.923206155968	2596
535.695869051803	2586.25
538.46759906845	2606
541.238396930667	2585
544.008263361365	2561.75
546.777199081581	2578.5
549.545204810496	2590
552.312281265439	2568.75
555.078429161901	2589.5
557.843649213536	2589.5
560.607942132158	2557.5
563.371308627753	2590.25
566.133749408497	2614.5
568.895265180758	2620
571.655856649067	2557
574.415524516192	2598
577.174269483075	2604
579.932092248886	2654.75
582.688993510996	2662
585.444973965024	2626
588.200034304796	2687.25
590.954175222372	2744.75
593.707397408072	2705.75
596.459701550436	2728.25
599.211088336284	2670
601.961558450671	2628
604.711112576934	2617.5
607.459751396673	2615.75
610.207475589751	2595.25
612.954285834339	2581.5
615.70018280688	2589.25
618.445167182103	2572
621.189239633057	2575
623.932400831087	2518.75
626.674651445839	2546.75
629.415992145303	2549.5
632.156423595745	2547.25
634.895946461815	2503.75
637.634561406448	2556
640.372269090962	2526.25
643.109070174981	2550.5
645.84496531651	2549.75
648.579955171891	2534.75
651.314040395848	2536.75
654.047221641459	2530.5
656.779499560178	2567
659.510874801831	2525.25
662.241348014646	2549.25
664.970919845243	2564.25
667.699590938608	2560.25
670.427361938164	2600
673.154233485732	2595.25
675.880206221526	2714
678.605280784208	2800.75
681.329457810832	2817.25
684.052737936921	2750.75
686.77512179639	2688
689.496610021632	2619.5
692.217203243456	2626
694.936902091147	2621.75
697.655707192428	2595.75
700.373619173495	2584.25
703.090638659013	2523.25
705.806766272093	2566.75
708.522002634379	2554.75
711.236348365948	2564.25
713.949804085381	2530.75
716.662370409764	2535
719.374047954676	2519.25
722.084837334191	2518.5
724.79473916091	2504
727.50375404595	2514.5
730.21188259892	2531.75
732.919125427998	2504.75
735.625483139858	2526.75
738.330956339726	2512.5
741.035545631373	2539.25
743.739251617109	2572.75
746.44207489779	2588
749.144016072856	2583.5
751.845075740273	2556.25
754.545254496604	2541.25
757.244552936979	2566.5
759.942971655083	2519.5
762.640511243225	2525.5
765.337172292252	2489.75
768.032955391651	2505.5
770.727861129485	2553.25
773.421890092416	2556
776.11504286572	2552.5
778.807320033299	2543.25
781.49872217765	2550.25
784.189249879911	2510.75
786.87890371984	2506
789.567684275826	2495.75
792.255592124909	2510.25
794.942627842762	2502.75
797.628792003709	2503
800.314085180718	2488.5
802.998507945429	2544
805.682060868145	2539.5
808.364744517821	2570.25
811.046559462106	2564.5
813.727506267312	2529.5
816.407585498422	2507.25
819.086797719131	2523
821.765143491823	2511.75
824.442623377565	2522.5
827.119237936129	2569.75
829.794987726006	2551.75
832.469873304377	2558.5
835.143895227169	2589.75
837.817054048985	2590.25
840.489350323206	2587.5
843.160784601894	2606.75
845.831357435894	2604.25
848.501069374742	2598.75
851.169920966756	2516.75
853.837912758989	2531.25
856.505045297233	2519.25
859.171319126073	2521
861.836734788825	2504
864.501292827581	2529.75
867.164993783208	2484.75
869.827838195363	2508
872.489826602455	2506.25
875.150959541702	2480.5
877.811237549104	2469.75
880.470661159458	2454.25
883.129230906359	2463.25
885.786947322208	2464.5
888.443810938208	2447.25
891.099822284387	2437
893.754981889586	2478.5
896.409290281453	2486.5
899.062747986487	2461.25
901.715355530001	2484
904.367113436154	2468.5
907.018022227933	2488.75
909.668082427173	2467.75
912.317294554575	2460.5
914.965659129661	2478.5
917.613176670838	2482
920.259847695365	2493.5
922.90567271936	2468.75
925.550652257826	2466
928.194786824624	2508.5
930.838076932514	2464
933.480523093111	2476.75
936.122125816956	2493.5
938.762885613448	2484.25
941.402802990899	2493.5
944.041878456524	2496.25
946.680112516429	2522.25
949.317505675633	2522.5
951.954058438084	2547.25
954.589771306634	2539
957.224644783051	2519.25
959.858679368047	2485.5
962.491875561238	2485.5
965.124233861212	2497.75
967.755754765453	2477.5
970.386438770423	2502
973.016286371502	2513.5
975.645298063046	2494
978.273474338357	2503.5
980.900815689675	2484.75
983.527322608245	2471.75
986.152995584248	2516.5
988.777835106835	2476.5
991.401841664151	2527.5
994.025015743307	2472.5
996.64735783041	2497.75
999.268868410535	2503.5
1001.88954796777	2497.5
1004.50939698518	2536
1007.12841594484	2527.75
1009.74660532783	2516.25
1012.36396561423	2551.25
1014.98049728314	2485.75
1017.59620081267	2495.25
1020.21107667995	2500.25
1022.82512536112	2503
1025.43834733138	2533.5
1028.05074306492	2534.5
1030.66231303501	2553
1033.27305771392	2557.75
1035.88297757299	2585.5
1038.49207308257	2549
1041.10034471211	2556
1043.70779293008	2557.5
1046.31441820402	2535.25
1048.92022100052	2510.75
1051.52520178525	2533
1054.12936102295	2530.75
1056.73269917742	2554.25
1059.33521671154	2563.5
1061.93691408729	2569.75
1064.53779176572	2559.5
1067.13785020694	2562
1069.73708987022	2552.5
1072.33551121386	2529.5
1074.93311469528	2537
1077.52990077103	2524
1080.12586989674	2521.75
1082.72102252715	2544.5
1085.31535911612	2541.75
1087.90888011663	2531.75
1090.50158598078	2568.25
1093.09347715979	2516.75
1095.68455410403	2506.25
1098.27481726296	2547.75
1100.86426708523	2551.75
1103.45290401857	2581.5
1106.04072850991	2567.75
1108.6277410053	2594.5
1111.21394194993	2558.25
1113.79933178816	2552.25
1116.3839109635	2567.75
1118.96767991862	2602.25
1121.55063909539	2577.25
1124.13278893477	2630.25
1126.71412987696	2587.75
1129.29466236132	2611.75
1131.87438682637	2647.25
1134.45330370982	2642.25
1137.03141344858	2693.5
1139.60871647873	2724.25
1142.18521323554	2750.25
1144.7609041535	2730.5
1147.33578966629	2710.25
1149.90987020677	2712.25
1152.48314620702	2700.5
1155.05561809835	2659.25
1157.62728631126	2666.75
1160.19815127545	2669.25
1162.76821341988	2718.5
1165.33747317271	2701
1167.90593096133	2696
1170.47358721235	2692
1173.04044235163	2707
1175.60649680425	2682.5
1178.17175099454	2721
1180.73620534607	2728.75
1183.29986028165	2703.25
1185.86271622336	2722.5
1188.42477359249	2713
1190.98603280964	2727.5
1193.54649429462	2727.25
1196.10615846653	2737.5
1198.66502574373	2697.5
1201.22309654385	2747
1203.78037128379	2738.25
1206.33685037971	2747.75
1208.89253424709	2743.75
1211.44742330063	2772
1214.00151795439	2752.25
1216.55481862163	2747.75
1219.10732571498	2782.5
1221.65903964631	2750.75
1224.20996082683	2761
1226.760089667	2732
1229.30942657664	2776
1231.85797196483	2804.75
1234.40572623998	2771.25
1236.95268980981	2805.25
1239.49886308136	2818.5
1242.04424646099	2804.75
1244.58884035435	2837
1247.13264516647	2868
1249.67566130166	2889
1252.21788916359	2859
1254.75932915524	2894.75
1257.29998167896	2936
1259.8398471364	2909.25
1262.37892592858	2933
1264.91721845586	2930
1267.45472511795	2944
1269.9914463139	2972.25
1272.52738244213	2989.5
1275.06253390041	2988.5
1277.59690108587	3035
1280.130484395	2993.5
1282.66328422368	3029.25
1285.19530096712	3065.5
1287.72653501993	3102
1290.25698677609	3095
1292.78665662895	3095.5
1295.31554497125	3116.5
1297.84365219511	3137.25
1300.37097869203	3161.25
1302.89752485292	3162.5
1305.42329106806	3160.75
1307.94827772713	3177.5
1310.47248521921	3177.75
1312.99591393279	3169.5
1315.51856425575	3221
1318.04043657537	3222.25
1320.56153127836	3244.25
1323.08184875083	3318
1325.6013893783	3305
1328.12015354572	3371.75
1330.63814163744	3467.25
1333.15535403727	3540.5
1335.67179112839	3641.25
1338.18745329347	3692.75
1340.70234091455	3700.5
1343.21645437314	3557.75
1345.72979405019	3510.25
1348.24236032607	3473
1350.75415358059	3495.5
1353.26517419303	3501
1355.7754225421	3512
1358.28489900594	3517.25
1360.79360396218	3553.75
1363.30153778788	3561.5
1365.80870085955	3544.5
1368.31509355319	3579.75
1370.82071624425	3569.75
1373.32556930762	3599.25
1375.8296531177	3586.5
1378.33296804833	3614.75
1380.83551447282	3623
1383.33729276399	3587.75
1385.83830329408	3641.25
1388.33854643489	3657.25
1390.83802255762	3667.25
1393.33673203302	3669.75
1395.83467523128	3687
1398.33185252212	3634.5
1400.82826427472	3712.25
1403.32391085777	3679.75
1405.81879263948	3749.5
1408.31290998752	3771.75
1410.80626326908	3741
1413.29885285087	3777.25
1415.79067909909	3764.25
1418.28174237944	3780.5
1420.77204305717	3812.5
1423.26158149702	3842.25
1425.75035806323	3906.75
1428.2383731196	3893.5
1430.72562702943	3952.5
1433.21212015554	3986.25
1435.69785286029	3974.5
1438.18282550555	4070
1440.66703845276	4134.75
1443.15049206284	4173.75
1445.6331866963	4303.25
1448.11512271316	4490
1450.59630047298	4507.25
1453.07672033486	4411
1455.55638265748	4321
1458.03528779902	4331.75
1460.51343611725	4329.5
1462.99082796946	4312.25
1465.46746371252	4330
1467.94334370285	4329.25
1470.41846829642	4315
1472.89283784878	4354.25
1475.36645271503	4426
1477.83931324984	4402.25
1480.31141980743	4427.75
1482.78277274164	4427
1485.25337240583	4379
1487.72321915297	4407.5
1490.19231333557	4431.5
1492.66065530577	4427.5
1495.12824541525	4445.5
1497.5950840153	4516.75
1500.06117145678	4483.75
1502.52650809014	4550.75
1504.99109426543	4598
1507.45493033228	4614.75
1509.91801663992	4587.25
1512.38035353717	4665.5
1514.84194137248	4701
1517.30278049386	4870
1519.76287124895	5047.25
1522.22221398497	5226
1524.68080904877	5441
1527.13865678681	5334.5
1529.59575754514	5183.5
1532.05211166946	5045.25
1534.50771950503	4942.25
1536.96258139678	4946.75
1539.41669768925	4937
1541.87006872656	4954
1544.32269485252	4918.25
1546.77457641051	4924.75
1549.22571374357	5003.75
1551.67610719434	5018.25
1554.12575710513	5023.75
1556.57466381786	5049.5
1559.02282767408	5037.5
1561.470249015	5098.25
1563.91692818144	5097.25
1566.3628655139	5131.75
1568.80806135249	5199.75
1571.252516037	5224
1573.6962299068	5252.75
1576.139203301	5197
1578.58143655828	5262.75
1581.02293001704	5389.25
1583.46368401528	5389.75
1585.90369889071	5402.5
1588.34297498065	5457.75
1590.7815126221	5454
1593.21931215174	5496.5
1595.65637390588	5551.75
1598.09269822053	5521.5
1600.52828543135	5563.25
1602.96313587367	5495.5
1605.3972498825	5537.5
1607.83062779252	5507
1610.26326993808	5528
1612.69517665322	5449
1615.12634827165	5550.5
1617.55678512676	5504
1619.98648755164	5416
1622.41545587903	5507.75
1624.84369044138	5486.75
1627.27119157085	5512.75
1629.69795959924	5538.5
1632.12399485809	5542.75
1634.54929767859	5564.75
1636.97386839165	5594.25
1639.39770732789	5582
1641.8208148176	5590.75
1644.24319119078	5600.25
1646.66483677715	5631.75
1649.08575190611	5617.5
1651.50593690677	5727
1653.92539210795	5698.25
1656.3441178382	5667.25
1658.76211442575	5725.75
1661.17938219855	5764.5
1663.59592148428	5818.25
1666.01173261033	5816.25
1668.42681590377	5847.25
1670.84117169145	5881.25
1673.25480029991	5851
1675.66770205541	5875
1678.07987728393	5930.25
1680.49132631119	5978.5
1682.90204946263	5976.75
1685.31204706342	5962
1687.72131943847	6014.5
1690.1298669124	6038.5
1692.53768980957	6098.75
1694.94478845411	6063.5
1697.35116316982	6096
1699.75681428031	6125
1702.16174210887	6048.25
1704.56594697858	6123.5
1706.96942921222	6198
1709.37218913235	6173.25
1711.77422706126	6177.5
1714.17554332098	6161.5
1716.57613823331	6192.25
1718.97601211977	6147.25
1721.37516530169	6121.25
1723.77359810006	6206.75
1726.17131083573	6187.25
1728.56830382922	6200.75
1730.96457740087	6180.5
1733.36013187075	6170.25
1735.75496755868	6182.75
1738.14908478428	6223.5
1740.54248386689	6225
1742.93516512566	6181.25
1745.32712887946	6233.25
1747.71837544697	6277.75
1750.10890514662	6252.75
1752.49871829661	6262.5
1754.88781521492	6261.25
1757.27619621929	6318
1759.66386162726	6315
1762.05081175613	6304.25
1764.43704692297	6327.75
1766.82256744465	6338.25
1769.20737363782	6391.75
1771.59146581888	6329
1773.97484430405	6414.25
1776.35750940932	6461.5
1778.73946145048	6473.5
1781.12070074309	6469.5
1783.50122760249	6455.25
1785.88104234385	6555.75
1788.26014528209	6584.25
1790.63853673197	6598
1793.01621700796	6626.5
1795.39318642444	6603.5
1797.76944529549	6618.75
1800.14499393504	6671
1802.51983265681	6594.25
1804.8939617743	6669
1807.26738160085	6743
1809.64009244957	6666.5
1812.01209463339	6688.75
1814.38338846504	6756.5
1816.75397425706	6743.25
1819.12385232181	6756.25
1821.49302297142	6761.5
1823.86148651789	6788.75
1826.22924327299	6763.25
1828.59629354831	6816
1830.96263765526	6807.5
1833.32827590507	6796.25
1835.69320860877	6838
1838.05743607724	6824
1840.42095862113	6795.25
1842.78377655097	6808.25
1845.14589017707	6849.25
1847.50729980956	6811.5
1849.86800575843	6794
1852.22800833346	6903.75
1854.58730784427	6827.75
1856.94590460032	6853.25
1859.30379891087	6932.75
1861.66099108503	6915.75
1864.01748143175	7002.25
1866.37327025978	6968
1868.72835787773	6949.75
1871.08274459404	6963.5
1873.43643071697	7070.25
1875.78941655464	7109.5
1878.14170241499	7123.75
1880.4932886058	7146.5
1882.84417543469	7105.75
1885.19436320915	7104.5
1887.54385223646	7158
1889.89264282378	7230.5
1892.24073527809	7229
1894.58812990625	7280.75
1896.93482701494	7315
1899.28082691067	7314.25
1901.62612989985	7381.25
1903.97073628868	7332.25
1906.31464638326	7373
1908.6578604895	7381.5
1911.00037891321	7432.25
1913.34220196001	7483.5
1915.68332993538	7485
1918.02376314468	7524.5
1920.36350189311	7499.5
1922.70254648573	7557.25
1925.04089722744	7492.75
1927.37855442304	7603.75
1929.71551837715	7591.25
1932.05178939427	7530.75
1934.38736777876	7585.5
1936.72225383484	7526.5
1939.0564478666	7629.25
1941.38995017799	7560
1943.72276107283	7659.5
1946.05488085479	7617.5
1948.38630982744	7553.5
1950.71704829419	7666.75
1953.04709655832	7570.5
1955.376454923	7632.5
1957.70512369126	7589.75
1960.03310316599	7634
1962.36039364999	7529.75
1964.68699544589	7599.25
1967.01290885622	7678.25
1969.33813418338	7687.25
1971.66267172965	7697.25
1973.98652179718	7723.75
1976.309684688	7714
1978.63216070402	7713.5
1980.95395014705	7875.75
1983.27505331873	7747.25
1985.59547052064	7776.75
1987.9152020542	7833.25
1990.23424822074	7745.25
1992.55260932146	7812.25
1994.87028565746	7840.25
1997.18727752968	7800
1999.50358523901	7927
2001.81920908618	7912
2004.13414937184	7964.25
2006.44840639651	8000
2008.7619804606	7932.25
2011.07487186442	8009
2013.38708090815	8088.75
2015.6986078919	8084
2018.00945311564	8114.25
2020.31961687924	8141.75
2022.62909948247	8182
2024.93790122499	8226
2027.24602240636	8199
2029.55346332604	8269.25
2031.86022428337	8227.5
2034.16630557761	8271.5
2036.47170750791	8315.25
2038.77643037331	8322
2041.08047447275	8318
2043.38384010509	8243.5
2045.68652756907	8267
2047.98853716335	8330.75
2050.28986918648	8334.75
2052.59052393692	8355.5
2054.89050171302	8378.5
2057.18980281307	8397.25
2059.4884275352	8393.75
2061.78637617753	8347.75
2064.08364903802	8389.5
2066.38024641457	8316.75
2068.67616860497	8430.75
2070.97141590694	8361.25
2073.26598861809	8407
2075.55988703595	8356.5
2077.85311145796	8429.25
2080.14566218145	8448.25
2082.43753950371	8396.5
2084.72874372188	8435.75
2087.01927513307	8310
2089.30913403428	8352.5
2091.59832072241	8353.75
2093.88683549429	8376.25
2096.17467864666	8383
2098.46185047619	8467.75
2100.74835127944	8517.75
2103.03418135292	8496.75
2105.31934099303	8441.25
2107.6038304961	8452
2109.88765015838	8495.5
2112.17080027602	8455.25
2114.45328114513	8513.75
2116.7350930617	8521
2119.01623632165	8504.75
2121.29671122085	8450.25
2123.57651805505	8525.25
2125.85565711996	8463
2128.13412871117	8569
2130.41193312424	8506.25
2132.68907065462	8530.5
2134.96554159771	8551.5
2137.24134624881	8537
2139.51648490317	8558
2141.79095785594	8543
2144.0647654022	8626
2146.33790783698	8583.5
2148.61038545524	8519.5
2150.88219855182	8638
2153.15334742154	8561.75
2155.42383235911	8586.5
2157.69365365921	8634.75
2159.9628116164	8523.5
2162.23130652522	8544.75
2164.49913868011	8544.25
2166.76630837544	8522.5
2169.03281590553	8553.75
2171.29866156461	8584
2173.56384564685	8480.5
2175.82836844637	8524.25
2178.0922302572	8541
2180.35543137332	8493.5
2182.61797208862	8489.25
2184.87985269695	8443
2187.14107349208	8479.75
2189.40163476773	8402.25
2191.66153681753	8489.25
2193.92077993507	8370.5
2196.17936441386	8392.5
2198.43729054735	8400.75
2200.69455862894	8388.5
2202.95116895194	8328
2205.20712180963	8353.5
2207.4624174952	8296
2209.71705630179	8352.25
2211.97103852248	8335.25
2214.22436445031	8296
2216.47703437819	8233.5
2218.72904859905	8203.5
2220.98040740571	8223.5
2223.23111109096	8225.25
2225.4811599475	8110.5
2227.730554268	8197.75
2229.97929434505	8102.5
2232.22738047118	8094
2234.47481293889	8106.5
2236.72159204058	8093
2238.96771806864	8115.5
2241.21319131537	8062.25
2243.458012073	8010.5
2245.70218063374	8041.5
2247.94569728973	8015.75
2250.18856233304	8014
2252.4307760557	7936.5
2254.67233874967	7978.25
2256.91325070687	7891.5
2259.15351221915	7887.5
2261.39312357831	7883.25
2263.63208507611	7862
2265.87039700422	7844.75
2268.1080596543	7842.75
2270.34507331792	7914.75
2272.5814382866	7792.25
2274.81715485183	7859.25
2277.05222330502	7833
2279.28664393755	7808.75
2281.52041704073	7782.75
2283.75354290581	7750.75
2285.98602182401	7717.5
2288.21785408649	7667.5
2290.44903998434	7699
2292.67957980862	7668.75
2294.90947385033	7628.75
2297.1387224004	7623
2299.36732574976	7631.5
2301.59528418921	7562.75
2303.82259800958	7615.5
2306.04926750158	7576.5
2308.27529295593	7504
2310.50067466325	7504.5
2312.72541291412	7533.75
2314.9495079991	7533.25
2317.17296020866	7460.5
2319.39576983324	7487.5
2321.61793716322	7419.25
2323.83946248895	7395
2326.0603461007	7463.75
2328.28058828871	7424.25
2330.50018934317	7333.25
2332.7191495542	7300.25
2334.93746921192	7355.5
2337.15514860633	7318.75
2339.37218802743	7313.25
2341.58858776516	7262.25
2343.80434810941	7239.75
2346.01946935001	7285
2348.23395177676	7199.5
2350.44779567939	7206
2352.66100134759	7223.25
2354.87356907102	7192.5
2357.08549913925	7129.75
2359.29679184185	7150.5
2361.50744746829	7173.75
2363.71746630804	7137.5
2365.92684865049	7111.25
2368.13559478499	7059.75
2370.34370500083	7081.75
2372.55117958727	7060.25
2374.75801883353	7005.5
2376.96422302874	6944.75
2379.16979246202	6973.75
2381.37472742244	6949.25
2383.57902819898	6935.5
2385.78269508063	6909.5
2387.98572835629	6852.25
2390.18812831482	6912.75
2392.38989524505	6867.5
2394.59102943573	6874.75
2396.79153117559	6841.5
2398.9914007533	6856
2401.19063845748	6832
2403.38924457672	6737.25
2405.58721939951	6777.25
2407.78456321435	6773.25
2409.98127630966	6688.5
2412.17735897383	6742
2414.37281149518	6696.25
2416.56763416198	6727
2418.76182726249	6704.25
2420.95539108487	6694.25
2423.14832591726	6715
2425.34063204776	6648.75
2427.53230976439	6627
2429.72335935513	6617
2431.91378110795	6616.5
2434.10357531071	6619.75
2436.29274225126	6598.75
2438.48128221739	6551.25
2440.66919549684	6533.25
2442.8564823773	6534.75
2445.04314314641	6511.75
2447.22917809176	6528
2449.4145875009	6495.75
2451.59937166131	6469
2453.78353086044	6407
2455.96706538567	6555.75
2458.14997552437	6466.25
2460.33226156379	6427.5
2462.51392379119	6456.5
2464.69496249376	6355
2466.87537795862	6373.75
2469.05517047288	6356.25
2471.23434032358	6315
2473.41288779767	6360.25
2475.59081318212	6288.5
2477.76811676378	6300.25
2479.9447988295	6331.75
2482.12085966605	6257.5
2484.29629956016	6264
2486.4711187985	6282.5
2488.64531766769	6292
2490.8188964543	6273.25
2492.99185544484	6257
2495.16419492579	6193.25
2497.33591518353	6190.75
2499.50701650444	6197
2501.67749917482	6183.5
2503.84736348091	6153.75
2506.01660970891	6163.5
2508.18523814496	6145
2510.35324907515	6172.75
2512.52064278551	6160
2514.68741956201	6135.5
2516.85357969058	6292.75
2519.01912345709	6230
2521.18405114735	6143
2523.34836304711	6154.5
2525.51205944209	6194.25
2527.6751406179	6135
2529.83760686016	6182
2531.99945845439	6171
2534.16069568607	6186.25
2536.3213188406	6154.75
2538.48132820336	6098.75
2540.64072405965	6149
2542.79950669471	6166
2544.95767639373	6149.25
2547.11523344184	6107.5
2549.27217812411	6100.75
2551.42851072555	6117.5
2553.58423153111	6091.25
2555.7393408257	6125.5
2557.89383889413	6115.75
2560.04772602119	6102.75
2562.20100249158	6043
2564.35366858996	6054.75
2566.50572460093	6078.5
2568.65717080901	6015
2570.80800749867	6041.5
2572.95823495433	6015.75
2575.10785346031	5992.5
2577.25686330093	5947.75
2579.40526476038	5864.75
2581.55305812282	5960.75
2583.70024367237	5909
2585.84682169303	5873.25
2587.99279246879	5924.75
2590.13815628354	5899.25
2592.28291342112	5859.25
2594.42706416531	5903.25
2596.57060879981	5926.5
2598.71354760826	5888.75
2600.85588087425	5900.75
2602.99760888127	5912
2605.13873191278	5845.5
2607.27925025215	5863
2609.41916418269	5861.75
2611.55847398764	5849.5
2613.69717995017	5846
2615.8352823534	5858.25
2617.97278148034	5833.5
2620.10967761398	5865
2622.2459710372	5897.25
2624.38166203284	5909.25
2626.51675088365	5885
2628.65123787232	5801.75
2630.78512328145	5846
2632.9184073936	5801.25
2635.05109049124	5877.75
2637.18317285676	5841
2639.31465477249	5893.75
2641.44553652067	5904.5
2643.5758183835	5820.5
2645.70550064309	5854.5
2647.83458358144	5907.5
2649.96306748053	5901.75
2652.09095262224	5854.75
2654.21823928836	5923
2656.34492776063	5853.25
2658.47101832071	5877.25
2660.59651125015	5940
2662.72140683047	5913.5
2664.84570534309	5893.25
2666.96940706935	5875.5
2669.0925122905	5862.75
2671.21502128773	5910
2673.33693434216	5935
2675.45825173479	5909.5
2677.57897374658	5886.25
2679.6991006584	5935.5
2681.81863275101	5874
2683.93757030512	5892.5
2686.05591360133	5877.5
2688.17366292021	5901
2690.29081854218	5888.5
2692.40738074762	5847.75
2694.52334981681	5887.5
2696.63872602995	5864.75
2698.75350966714	5906.25
2700.86770100842	5913.5
2702.98130033372	5889.75
2705.09430792289	5890
2707.20672405572	5876.25
2709.31854901185	5968.5
2711.42978307091	5920
2713.54042651238	5960.75
2715.65047961567	5991.5
2717.7599426601	5907.5
2719.86881592492	5952.25
2721.97709968924	5950
2724.08479423213	5933.75
2726.19189983255	5931.25
2728.29841676935	5956
2730.40434532131	5916.25
2732.5096857671	5962.5
2734.61443838532	5943
2736.71860345444	5933.25
2738.82218125287	5975.5
2740.92517205889	5993.25
2743.02757615073	5954.75
2745.12939380646	5899.5
2747.23062530411	5975.5
2749.33127092159	6006
2751.4313309367	5971.25
2753.53080562717	5989.75
2755.62969527058	5988.25
2757.72800014448	5996.25
2759.82572052625	6001.25
2761.92285669323	5929.5
2764.0194089226	6011
2766.11537749147	6043.25
2768.21076267686	6021.25
2770.30556475566	5987.75
2772.39978400465	6018
2774.49342070054	6030.75
2776.58647511991	6048.75
2778.67894753923	6071.75
2780.77083823487	6078.75
2782.8621474831	6004.5
2784.95287556007	6001.75
2787.04302274184	6054.5
2789.13258930433	6045
2791.22157552338	6070
2793.30998167471	6032.75
2795.39780803392	6098
2797.48505487651	6112
2799.57172247786	6037.25
2801.65781111324	6101.75
2803.74332105781	6090.75
2805.82825258661	6060.75
2807.91260597457	6144.75
2809.9963814965	6115.5
2812.07957942711	6150.75
2814.16220004096	6064.75
2816.24424361252	6146.5
2818.32571041614	6125.25
2820.40660072604	6172.75
2822.48691481632	6205.25
2824.56665296098	6183
2826.64581543388	6121.75
2828.72440250876	6264.5
2830.80241445925	6231.75
2832.87985155885	6353
2834.95671408094	6381.75
2837.03300229875	6510
2839.10871648544	6514.25
2841.18385691399	6560
2843.25842385729	6559
2845.33241758808	6505
2847.40583837899	6556.25
2849.4786865025	6518
2851.550962231	6607.5
2853.6226658367	6577.25
2855.69379759174	6571.5
2857.76435776806	6599.5
2859.83434663753	6599.5
2861.90376447184	6674.75
2863.97261154259	6819
2866.04088812121	6883
2868.10859447901	6865.25
2870.17573088717	6916.75
2872.24229761673	6926.5
2874.30829493859	6949.5
2876.37372312353	6925.25
2878.43858244215	7040.5
2880.50287316496	7128.25
2882.56659556231	7096
2884.6297499044	7092.25
2886.69233646129	7095.5
2888.75435550293	7050.75
2890.81580729909	7086.25
2892.87669211941	6981.75
2894.9370102334	6958.25
2896.99676191039	6995
2899.05594741961	7008.25
2901.11456703011	7036.25
2903.1726210108	6973.5
2905.23010963045	7029.75
2907.28703315768	7008.75
2909.34339186096	7032.5
2911.39918600861	6944.75
2913.45441586879	6935.5
2915.50908170953	6909.5
2917.56318379867	6914
2919.61672240395	6947.75
2921.66969779291	6954.25
2923.72211023296	6952.5
2925.77395999134	6960
2927.82524733515	6902
2929.87597253133	6945.5
2931.92613584663	6870.25
2933.9757375477	6804.75
2936.02477790097	6793.5
2938.07325717276	6739.5
2940.1211756292	6781.5
2942.16853353626	6751.25
2944.21533115977	6784.25
2946.26156876536	6768.75
2948.30724661853	6858.5
2950.3523649846	6885
2952.39692412872	6882.75
2954.44092431587	6859
2956.4843658109	6847
2958.52724887843	6840.5
2960.56957378296	6878.75
2962.6113407888	6971.75
2964.65255016011	6818
2966.69320216083	6879.75
2968.73329705479	6803.25
2970.77283510559	6759
2972.81181657671	6732.5
2974.85024173141	6715.5
2976.88811083279	6721.5
2978.92542414379	6674.5
2980.96218192714	6690.5
2982.99838444541	6773
2985.034031961	6703
2987.06912473612	6768.25
2989.1036630328	6761.25
2991.13764711289	6793.5
2993.17107723804	6709.25
2995.20395366975	6795.5
2997.23627666931	6784.25
2999.26804649782	6794.25
3001.29926341624	6812.25
3003.32992768528	6833.5
3005.3600395655	6808.5
3007.38959931727	6827.25
3009.41860720076	6860.75
3011.44706347595	6912
3013.47496840263	6858.75
3015.50232224042	6849.5
3017.5291252487	6941.75
3019.5553776867	6860.75
3021.58107981344	6927
3023.60623188773	6932
3025.63083416822	6930.25
3027.65488691331	6965.5
3029.67839038125	6991
3031.70134483007	6974.25
3033.72375051759	7032.75
3035.74560770145	6965.25
3037.76691663907	7020.5
3039.78767758768	7013.5
3041.80789080431	7041.5
3043.82755654577	7013.25
3045.84667506867	7075
3047.8652466294	7121
3049.88327148418	7102.75
3051.90074988899	7049.25
3053.91768209961	7113.25
3055.93406837161	7029
3057.94990896033	7039.75
3059.96520412095	7067.5
3061.97995410838	7063.25
3063.99415917734	7063.25
3066.00781958234	6985.75
3068.02093557766	7038.75
3070.03350741738	6966.25
3072.04553535535	7030
3074.05701964521	6966
3076.06796054036	6956
3078.07835829401	6920.75
3080.08821315912	6979.75
3082.09752538846	7070.75
3084.10629523454	6946.75
3086.11452294967	7017
3088.12220878592	6995.75
3090.12935299515	6992.5
3092.13595582898	7012.25
3094.1420175388	7001.5
3096.1475383758	6959
3098.15251859088	7013.75
3100.15695843477	6989.5
3102.16085815793	7031.75
3104.16421801062	6943.25
3106.16703824282	6994.5
3108.16931910432	7023.75
3110.17106084464	6971.25
3112.17226371308	7000
3114.17292795872	6995
3116.17305383034	7008.75
3118.17264157657	6998.25
3120.17169144571	7040.25
3122.17020368587	6980
3124.16817854492	6972
3126.16561627044	7070.75
3128.16251710982	7086.75
3130.15888131017	7085.25
3132.15470911837	7047.75
3134.15000078104	7052.5
3136.14475654455	7055
3138.13897665502	7108.5
3140.13266135835	7058
3142.12581090015	7061.25
3144.11842552578	7117.25
3146.11050548036	7154
3148.10205100875	7131
3150.09306235557	7106.75
3152.08353976515	7077.75
3154.07348348158	7061
3156.06289374869	7142.5
3158.05177081006	7063.75
3160.04011490899	7065.75
3162.02792628852	7144.75
3164.01520519145	7104.5
3166.00195186029	7093.5
3167.98816653728	7139.5
3169.97384946442	7160
3171.95900088344	7115
3173.94362103577	7162.5
3175.9277101626	7180.75
3177.91126850484	7134.75
3179.89429630312	7118.5
3181.87679379782	7082.75
3183.85876122904	7101.5
3185.84019883657	7156.75
3187.82110685997	7125.5
3189.80148553851	7105.5
3191.78133511116	7188.75
3193.76065581664	7158.5
3195.73944789337	7186.25
3197.7177115795	7186.75
3199.6954471129	7174.25
3201.67265473114	7171.25
3203.64933467153	7166.25
3205.62548717107	7181.5
3207.60111246649	7235.25
3209.57621079422	7205
3211.55078239041	7184
3213.52482749093	7117.5
3215.49834633133	7262.75
3217.4713391469	7252
3219.44380617262	7255
3221.41574764318	7220.5
3223.38716379296	7163.75
3225.35805485607	7246.25
3227.32842106631	7276
3229.29826265718	7248.75
3231.26757986187	7279.5
3233.2363729133	7302.5
3235.20464204405	7300.25
3237.17238748644	7250.5
3239.13960947243	7324.25
3241.10630823374	7311.25
3243.07248400174	7283.75
3245.03813700748	7361
3247.00326748177	7332.5
3248.96787565503	7314.75
3250.93196175742	7382.75
3252.89552601877	7363
3254.8585686686	7363.75
3256.82108993612	7429.5
3258.78309005022	7363
3260.74456923948	7321.5
3262.70552773215	7409.25
3264.66596575617	7407
3266.62588353916	7379.5
3268.58528130843	7300.5
3270.54415929094	7307.5
3272.50251771336	7351.75
3274.46035680202	7382
3276.4176767829	7339.25
3278.37447788171	7329.25
3280.33076032379	7364.25
3282.28652433416	7338.5
3284.24177013751	7418
3286.1964979582	7419.25
3288.15070802027	7383.5
3290.10440054741	7366
3292.05757576298	7345.75
3294.01023389001	7332.25
3295.96237515119	7363.5
3297.91399976887	7403
3299.86510796506	7413.25
3301.81569996143	7357
3303.76577597932	7337.25
3305.71533623971	7344.5
3307.66438096325	7358.75
3309.61291037024	7380.25
3311.56092468063	7382.5
3313.50842411404	7295.75
3315.45540888971	7378.75
3317.40187922656	7309.5
3319.34783534315	7312.25
3321.29327745768	7323.5
3323.23820578801	7265
3325.18262055164	7295.25
3327.1265219657	7279
3329.06991024699	7328
3331.01278561194	7252.5
3332.95514827663	7294
3334.89699845675	7330.25
3336.83833636766	7287
3338.77916222434	7274.75
3340.71947624143	7289.75
3342.65927863317	7314
3344.59856961347	7270.25
3346.53734939584	7315
3348.47561819344	7268.75
3350.41337621907	7251.75
3352.35062368513	7247.5
3354.28736080368	7268.5
3356.22358778637	7334.5
3358.15930484452	7295.75
3360.09451218904	7284
3362.02921003047	7284.5
3363.96339857899	7349.5
3365.89707804437	7307
3367.83024863603	7294.5
3369.76291056299	7276.5
3371.69506403389	7201.75
3373.62670925699	7300
3375.55784644016	7346.75
3377.4884757909	7272.5
3379.41859751629	7296.25
3381.34821182305	7330
3383.27731891749	7337.25
3385.20591900555	7359.5
3387.13401229276	7271.75
3389.06159898426	7351.25
3390.9886792848	7345.5
3392.91525339872	7365
3394.84132152998	7313.25
3396.76688388213	7321.75
3398.69194065834	7375.5
3400.61649206133	7307.75
3402.54053829348	7381.75
3404.46407955672	7344.75
3406.3871160526	7343.75
3408.30964798225	7358.5
3410.23167554639	7307.25
3412.15319894535	7388.75
3414.07421837904	7337.75
3415.99473404695	7349
3417.91474614817	7343
3419.83425488136	7380.75
3421.7532604448	7350.5
3423.67176303631	7367
3425.58976285332	7348
3427.50726009283	7316.75
3429.42425495143	7352.5
3431.34074762528	7326.75
3433.25673831012	7305.75
3435.17222720127	7303.5
3437.08721449362	7321.5
3439.00170038164	7191.75
3440.91568505936	7339.25
3442.8291687204	7281
3444.74215155792	7266
3446.65463376469	7296.75
3448.566615533	7276.25
3450.47809705476	7219.25
3452.3890785214	7227.75
3454.29956012393	7254.75
3456.20954205293	7288.5
3458.11902449853	7236.75
3460.02800765042	7275.25
3461.93649169784	7250.75
3463.84447682962	7288
3465.75196323412	7212
3467.65895109925	7193.5
3469.56544061249	7222
3471.47143196086	7145.5
3473.37692533094	7126.5
3475.28192090884	7190.5
3477.18641888026	7233.75
3479.09041943039	7200
3480.99392274402	7157
3482.89692900545	7189.75
3484.79943839853	7143.75
3486.70145110666	7194.5
3488.60296731277	7083.5
3490.50398719933	7145.25
3492.40451094836	7072
3494.30453874141	7101.25
3496.20407075956	7137.5
3498.10310718342	7114
3500.00164819315	7083.25