201.866871357051	1779
204.754250281454	1775
207.640596790938	1770.5
210.525911876299	1809.5
213.410196525689	1792.75
216.293451724508	1782.25
219.175678455485	1781.5
222.056877698662	1792
224.937050431388	1786.75
227.816197628363	1810.5
230.694320261602	1820.5
233.571419300504	1829
236.447495711764	1844.25
239.322550459507	1837
242.196584505182	1823.5
245.069598807626	1830
247.941594323078	1865
250.812572005154	1856.5
253.682532804884	1858.25
256.551477670699	1857
259.419407548456	1873
262.286323381439	1877.75
265.152226110364	1883.5
268.017116673389	1874.25
270.880996006115	1871.5
273.743865041622	1899.5
276.605724710436	1909
279.466575940562	1871.5
282.326419657496	1886.75
285.1852567842	1900.75
288.043088241157	1909.75
290.899914946349	1914.25
293.75573781526	1929.75
296.610557760898	1933.5
299.464375693817	1942
302.317192522078	1936.25
305.169009151297	1943.75
308.019826484655	1925.75
310.86964542287	1940.25
313.718466864233	1934.25
316.566291704614	1946.25
319.413120837457	1965.5
322.258955153804	1953
325.103795542291	1941
327.947642889128	1947
330.79049807819	1966.5
333.632361990927	1946.75
336.473235506444	1952.75
339.31311950145	1951.75
342.152014850322	1977.25
344.989922425062	1986.75
347.826843095354	1978.25
350.662777728528	2007.5
353.497727189577	2015
356.331692341195	2000.75
359.164674043732	2025.25
361.996673155267	1992.75
364.827690531536	2044
367.65772702602	2011
370.486783489887	2027
373.314860772047	2066.75
376.14195971912	2041.25
378.968081175466	2040.5
381.793225983212	2036.75
384.617394982201	2063
387.44058901005	2029.25
390.262808902131	2031.5
393.08405549161	2029.25
395.904329609395	2036.5
398.723632084213	2051.5
401.541963742569	2053
404.359325408779	2048.75
407.175717904938	2050.25
409.991142050982	2042.75
412.805598664665	2080.5
415.619088561551	2070.75
418.43161255505	2105.25
421.243171456415	2084.5
424.053766074758	2102.75
426.863397217017	2101
429.672065688024	2089.5
432.479772290455	2111.75
435.286517824879	2104.75
438.092303089736	2113
440.897128881359	2118.75
443.70099599399	2117
446.503905219761	2095.5
449.305857348711	2117
452.106853168796	2130
454.906893465919	2111.5
457.705979023885	2105.75
460.504110624439	2130
463.3012890473	2118.5
466.097515070087	2120
468.892789468424	2133
471.687113015869	2116
474.48048648395	2105.25
477.272910642198	2150.75
480.064386258109	2127.75
482.854914097159	2127.5
485.644494922839	2153.75
488.433129496636	2149.75
491.220818578047	2174.25
494.007562924584	2176.75
496.793363291785	2167.75
499.578220433217	2180.25
502.362135100473	2179.75
505.145108043209	2198.75
507.927140009098	2201.75
510.708231743909	2184
513.488383991433	2198.5
516.267597493556	2219.75
519.04587299022	2192.75
521.82321121946	2206.25
524.599612917398	2201.25
527.375078818233	2209.75
530.149609654287	2204.75
532.923206155967	2210.25
535.695869051804	2207.25
538.467599068448	2228
541.238396930665	2211.25
544.008263361364	2199.75
546.777199081578	2188.75
549.545204810493	2211
552.312281265436	2202
555.078429161898	2222
557.843649213533	2221.75
560.607942132156	2200
563.371308627753	2223.5
566.133749408495	2227
568.895265180756	2273.5
571.655856649064	2262
574.415524516189	2247
577.174269483075	2246.25
579.932092248884	2271.5
582.688993510994	2252
585.444973965023	2264.25
588.200034304795	2332.5
590.95417522237	2296
593.70739740807	2283.75
596.459701550433	2275
599.21108833628	2289
601.961558450668	2285
604.711112576933	2270.25
607.459751396673	2292.75
610.207475589748	2278.5
612.954285834338	2283.75
615.700182806879	2299.25
618.445167182101	2280
621.189239633055	2258.75
623.932400831087	2268
626.674651445839	2269.25
629.415992145303	2251.25
632.156423595745	2273.5
634.895946461813	2267
637.634561406449	2247.5
640.37226909096	2274.75
643.109070174978	2270.5
645.844965316508	2310.5
648.579955171888	2255.25
651.314040395846	2296.5
654.047221641456	2284.75
656.779499560176	2295.75
659.510874801828	2294.75
662.241348014642	2303.25
664.97091984524	2281.75
667.699590938606	2301.5
670.427361938164	2311
673.15423348573	2294
675.880206221526	2322.25
678.605280784206	2331
681.329457810829	2328.5
684.05273793692	2348.75
686.775121796389	2335.75
689.49661002163	2330.5
692.217203243454	2357.25
694.936902091144	2358
697.655707192425	2319.5
700.373619173493	2346.75
703.09063865901	2338.5
705.806766272093	2321.75
708.522002634378	2352.25
711.236348365946	2328.5
713.94980408538	2333
716.662370409762	2334.25
719.374047954676	2337.25
722.08483733419	2356
724.794739160909	2348.5
727.503754045949	2340.5
730.21188259892	2359
732.919125427998	2347
735.625483139855	2359.5
738.330956339723	2350.5
741.035545631374	2371.5
743.739251617106	2357
746.44207489779	2348
749.144016072852	2400.75
751.845075740272	2389.75
754.545254496603	2406.5
757.244552936976	2410.75
759.94297165508	2411.75
762.640511243222	2399.75
765.337172292249	2408.75
768.032955391649	2402.25
770.727861129482	2446.25
773.421890092413	2437.5
776.11504286572	2415
778.807320033298	2400.75
781.49872217765	2401.75
784.18924987991	2398.75
786.87890371984	2403.25
789.567684275826	2409.75
792.255592124908	2427.5
794.94262784276	2405.5
797.628792003703	2394.75
800.314085180715	2426.75
802.998507945427	2396.25
805.682060868145	2410
808.364744517821	2431.75
811.046559462105	2407
813.727506267311	2430
816.407585498422	2430.75
819.08679771913	2448.75
821.765143491822	2441.75
824.442623377563	2436.75
827.119237936127	2470.5
829.794987726003	2473
832.469873304377	2453
835.143895227167	2456.75
837.817054048985	2467
840.489350323205	2489
843.160784601892	2489
845.831357435894	2500.25
848.501069374739	2481.25
851.169920966753	2482.25
853.837912758987	2489
856.505045297232	2532.25
859.171319126071	2538.25
861.836734788823	2504.75
864.501292827579	2556.75
867.164993783208	2491.5
869.827838195361	2488.75
872.489826602454	2507.25
875.150959541701	2537
877.811237549104	2491.5
880.470661159456	2536.5
883.129230906357	2530
885.786947322205	2501.75
888.443810938206	2492.5
891.099822284385	2500.75
893.754981889586	2503.75
896.409290281452	2507.25
899.062747986485	2520
901.715355529999	2554.75
904.367113436154	2536.5
907.01802222793	2594.75
909.668082427172	2530.75
912.317294554574	2531.75
914.965659129659	2567.25
917.613176670835	2549.25
920.259847695364	2559.5
922.90567271936	2554.5
925.550652257825	2584
928.194786824621	2571.5
930.838076932512	2595.5
933.480523093109	2590.5
936.122125816953	2618.25
938.762885613447	2604.75
941.402802990899	2619.75
944.041878456523	2625.5
946.680112516428	2599.75
949.31750567563	2630
951.954058438081	2625
954.589771306633	2645.75
957.224644783048	2641.25
959.858679368044	2655
962.491875561238	2595.5
965.12423386121	2655.75
967.75575476545	2645.25
970.386438770423	2654.75
973.016286371501	2629.25
975.645298063046	2646.75
978.273474338355	2632.75
980.900815689674	2626.5
983.527322608243	2676.75
986.152995584245	2634.5
988.777835106834	2645.75
991.401841664148	2660.25
994.025015743307	2694.25
996.647357830407	2682.25
999.268868410534	2653
1001.88954796777	2653
1004.50939698518	2702.25
1007.12841594484	2696.5
1009.74660532783	2705.25
1012.36396561423	2722.5
1014.98049728314	2670.75
1017.59620081267	2724.5
1020.21107667995	2705.25
1022.82512536112	2734.75
1025.43834733138	2730
1028.05074306493	2742
1030.66231303501	2752
1033.27305771392	2767
1035.88297757299	2761.75
1038.49207308257	2748
1041.10034471211	2731.5
1043.70779293008	2777.25
1046.31441820402	2771.75
1048.92022100052	2748.25
1051.52520178525	2784.25
1054.12936102295	2823
1056.73269917742	2825.75
1059.33521671154	2827
1061.93691408729	2811.5
1064.53779176571	2836.5
1067.13785020694	2801.5
1069.73708987022	2805
1072.33551121386	2794
1074.93311469528	2788.25
1077.52990077103	2767.75
1080.12586989674	2791
1082.72102252714	2833.25
1085.31535911611	2825.5
1087.90888011663	2817.25
1090.50158598078	2833
1093.09347715979	2806.75
1095.68455410403	2839.25
1098.27481726296	2820
1100.86426708523	2830
1103.45290401857	2836.5
1106.04072850991	2865
1108.6277410053	2856.5
1111.21394194993	2850.75
1113.79933178816	2874.25
1116.3839109635	2896.5
1118.96767991862	2909.75
1121.55063909539	2866
1124.13278893477	2928.25
1126.71412987696	2917.25
1129.29466236132	2918.75
1131.87438682637	2937.5
1134.45330370982	2916.25
1137.03141344858	2946.25
1139.60871647872	2923.75
1142.18521323554	2920.5
1144.7609041535	2950.25
1147.33578966629	2964
1149.90987020676	2963.75
1152.48314620702	2975
1155.05561809835	2966.25
1157.62728631125	2939.5
1160.19815127545	2954.75
1162.76821341988	2981.5
1165.33747317271	2964
1167.90593096133	2978.25
1170.47358721235	2968
1173.04044235163	2943.25
1175.60649680425	2952.5
1178.17175099454	2963.25
1180.73620534607	2971.5
1183.29986028165	2980.25
1185.86271622336	2949.5
1188.42477359249	2969.25
1190.98603280964	2963
1193.54649429462	2957
1196.10615846653	2978.5
1198.66502574372	2974.75
1201.22309654385	2975
1203.78037128378	2967.25
1206.33685037971	2988.25
1208.89253424709	2978
1211.44742330063	2964.25
1214.00151795438	2966
1216.55481862163	3007
1219.10732571497	2984.5
1221.65903964631	3026
1224.20996082683	2996.5
1226.760089667	2961.5
1229.30942657664	3034.75
1231.85797196483	3031.5
1234.40572623998	3011.25
1236.95268980981	3000.75
1239.49886308136	3024.75
1242.04424646098	3059.5
1244.58884035435	3082
1247.13264516647	3064.75
1249.67566130166	3071.5
1252.21788916358	3050.75
1254.75932915524	3103.25
1257.29998167896	3122.75
1259.83984713639	3081
1262.37892592857	3102.5
1264.91721845586	3146.75
1267.45472511795	3141.25
1269.9914463139	3166
1272.52738244213	3119.75
1275.0625339004	3136.75
1277.59690108587	3131.5
1280.130484395	3173.5
1282.66328422367	3171.5
1285.19530096712	3156.75
1287.72653501993	3207.75
1290.25698677608	3182.5
1292.78665662894	3254.25
1295.31554497125	3235.25
1297.8436521951	3231.75
1300.37097869203	3225
1302.89752485292	3205.75
1305.42329106805	3209.75
1307.94827772713	3191.5
1310.47248521921	3228.75
1312.99591393279	3260
1315.51856425575	3222.75
1318.04043657536	3231
1320.56153127836	3233.5
1323.08184875083	3278.75
1325.6013893783	3226.75
1328.12015354572	3261.75
1330.63814163744	3282.75
1333.15535403727	3296.75
1335.67179112839	3327.25
1338.18745329347	3322.75
1340.70234091454	3359.75
1343.21645437314	3354
1345.72979405019	3338.75
1348.24236032607	3369
1350.75415358059	3377.75
1353.26517419303	3375
1355.7754225421	3400.25
1358.28489900594	3386.5
1360.79360396218	3411.25
1363.30153778787	3382.25
1365.80870085955	3439.25
1368.31509355319	3413.5
1370.82071624424	3407
1373.32556930762	3430
1375.8296531177	3413.5
1378.33296804832	3442.75
1380.83551447282	3407.75
1383.33729276399	3413
1385.83830329408	3404.75
1388.33854643489	3410
1390.83802255762	3394
1393.33673203301	3399.5
1395.83467523128	3392.25
1398.33185252211	3353.5
1400.82826427471	3384.5
1403.32391085777	3362.25
1405.81879263947	3425.25
1408.31290998752	3413.25
1410.80626326908	3401
1413.29885285087	3419.5
1415.79067909909	3428.75
1418.28174237944	3438.5
1420.77204305717	3433.75
1423.26158149702	3423.5
1425.75035806323	3476.75
1428.2383731196	3494.75
1430.72562702942	3506.25
1433.21212015554	3508
1435.69785286028	3553.5
1438.18282550555	3607.75
1440.66703845275	3584.5
1443.15049206284	3574.5
1445.6331866963	3629.75
1448.11512271316	3610.75
1450.59630047298	3630
1453.07672033486	3643.5
1455.55638265748	3656.75
1458.03528779902	3657.5
1460.51343611725	3621
1462.99082796946	3662.5
1465.46746371252	3631.5
1467.94334370285	3674.5
1470.41846829642	3667.75
1472.89283784878	3689.5
1475.36645271503	3694.25
1477.83931324983	3697
1480.31141980743	3659.75
1482.78277274164	3665.25
1485.25337240583	3650
1487.72321915297	3660.75
1490.19231333557	3640.75
1492.66065530578	3627.5
1495.12824541525	3677.5
1497.5950840153	3696.75
1500.06117145678	3647.5
1502.52650809014	3674.5
1504.99109426543	3686.75
1507.45493033227	3696.25
1509.91801663992	3696.75
1512.38035353717	3733
1514.84194137248	3677.25
1517.30278049386	3757.25
1519.76287124894	3724.25
1522.22221398497	3744.5
1524.68080904876	3710.25
1527.13865678681	3747.5
1529.59575754514	3754.75
1532.05211166945	3801
1534.50771950503	3762
1536.96258139678	3777.25
1539.41669768924	3811.75
1541.87006872656	3824.25
1544.32269485252	3815.25
1546.77457641051	3876.25
1549.22571374357	3887.5
1551.67610719434	3904.75
1554.12575710513	3922
1556.57466381785	3910.5
1559.02282767408	3955.5
1561.47024901499	3929
1563.91692818144	3971.25
1566.3628655139	3974.5
1568.80806135249	3995
1571.252516037	3999.5
1573.6962299068	4037.75
1576.13920330099	4021.75
1578.58143655828	4062.5
1581.02293001704	4067.5
1583.46368401528	4064.5
1585.90369889071	4099
1588.34297498065	4115
1590.7815126221	4089.5
1593.21931215173	4108
1595.65637390588	4123.5
1598.09269822053	4105.5
1600.52828543135	4135.25
1602.96313587367	4134.25
1605.3972498825	4112.75
1607.83062779252	4077.25
1610.26326993808	4134.5
1612.69517665322	4137
1615.12634827165	4163
1617.55678512676	4162.75
1619.98648755163	4126.5
1622.41545587902	4154.5
1624.84369044138	4217.5
1627.27119157085	4217
1629.69795959924	4173.25
1632.12399485808	4188.25
1634.54929767859	4170
1636.97386839165	4194
1639.39770732789	4190.25
1641.8208148176	4209
1644.24319119078	4236
1646.66483677715	4240.25
1649.0857519061	4252.25
1651.50593690677	4287
1653.92539210795	4307.75
1656.3441178382	4287.25
1658.76211442575	4313
1661.17938219855	4357.5
1663.59592148428	4361.75
1666.01173261032	4378
1668.42681590377	4400.75
1670.84117169145	4457.25
1673.25480029991	4419
1675.66770205541	4429.75
1678.07987728393	4479.5
1680.49132631119	4498.5
1682.90204946263	4514
1685.31204706342	4530.75
1687.72131943846	4554.25
1690.1298669124	4575.5
1692.53768980957	4604.75
1694.94478845411	4583.5
1697.35116316982	4604.5
1699.75681428031	4574
1702.16174210887	4601.5
1704.56594697858	4627.75
1706.96942921222	4700.75
1709.37218913235	4658.5
1711.77422706125	4648.25
1714.17554332098	4624
1716.5761382333	4668.5
1718.97601211977	4662.25
1721.37516530169	4627
1723.77359810006	4669.25
1726.17131083572	4676
1728.56830382922	4677
1730.96457740087	4716.25
1733.36013187075	4654
1735.75496755868	4700
1738.14908478428	4759.75
1740.54248386689	4765.5
1742.93516512565	4711.5
1745.32712887946	4770.5
1747.71837544697	4771
1750.10890514662	4806
1752.49871829661	4768
1754.88781521492	4813.5
1757.27619621929	4808.75
1759.66386162726	4823.5
1762.05081175612	4856.5
1764.43704692297	4846.25
1766.82256744465	4827
1769.20737363782	4899.5
1771.59146581887	4872
1773.97484430405	4894.5
1776.35750940932	4971.5
1778.73946145048	4950
1781.12070074309	4952
1783.50122760249	5014.75
1785.88104234385	5007.25
1788.26014528209	4985.5
1790.63853673196	5059.25
1793.01621700796	5063
1795.39318642443	5100.75
1797.76944529549	5069
1800.14499393503	5144.75
1802.51983265681	5075.5
1804.8939617743	5181
1807.26738160085	5147.75
1809.64009244957	5154.25
1812.01209463339	5146.75
1814.38338846504	5206.75
1816.75397425706	5185.5
1819.12385232181	5226
1821.49302297142	5259.25
1823.86148651789	5298
1826.22924327299	5218.75
1828.59629354831	5316.5
1830.96263765526	5292.75
1833.32827590507	5348.75
1835.69320860877	5322.75
1838.05743607724	5320
1840.42095862113	5372.75
1842.78377655097	5305.25
1845.14589017707	5334.75
1847.50729980956	5309.75
1849.86800575843	5311.75
1852.22800833346	5323.75
1854.58730784427	5335.25
1856.94590460032	5456.25
1859.30379891087	5413.5
1861.66099108503	5428.25
1864.01748143175	5500
1866.37327025978	5453
1868.72835787773	5482.75
1871.08274459403	5493.25
1873.43643071697	5540.75
1875.78941655464	5591
1878.14170241498	5581.5
1880.4932886058	5629
1882.84417543469	5631.25
1885.19436320915	5650.25
1887.54385223646	5666.75
1889.89264282378	5720.75
1892.24073527809	5744.25
1894.58812990625	5777.75
1896.93482701493	5859.75
1899.28082691067	5817.5
1901.62612989984	5847
1903.97073628868	5862.25
1906.31464638326	5866.75
1908.6578604895	5913.75
1911.00037891321	5929
1913.34220196	5980.5
1915.68332993537	5957.75
1918.02376314468	6018.25
1920.36350189311	6018
1922.70254648573	6060
1925.04089722744	6001.5
1927.37855442303	6023.75
1929.71551837715	6022.5
1932.05178939426	6088.5
1934.38736777876	6102
1936.72225383484	6078.5
1939.0564478666	6162.25
1941.38995017799	6101
1943.72276107283	6155.75
1946.05488085479	6089.25
1948.38630982744	6138.25
1950.71704829419	6140.75
1953.04709655832	6134.75
1955.376454923	6144.5
1957.70512369126	6144.25
1960.03310316599	6156.5
1962.36039364999	6199.5
1964.68699544589	6209.75
1967.01290885622	6197.25
1969.33813418338	6211.25
1971.66267172965	6228
1973.98652179718	6246
1976.309684688	6250
1978.63216070402	6297
1980.95395014705	6366.75
1983.27505331873	6279
1985.59547052063	6360.5
1987.9152020542	6391
1990.23424822074	6357
1992.55260932146	6436.75
1994.87028565746	6422
1997.18727752968	6450
1999.503585239	6486.75
2001.81920908618	6511.75
2004.13414937184	6558.75
2006.44840639651	6628.75
2008.7619804606	6645.75
2011.07487186442	6607.25
2013.38708090815	6766.75
2015.6986078919	6693.75
2018.00945311564	6729.5
2020.31961687923	6767.25
2022.62909948246	6826
2024.93790122498	6806.25
2027.24602240636	6862.25
2029.55346332604	6839
2031.86022428337	6855.5
2034.16630557761	6915.25
2036.47170750791	6923
2038.77643037331	6966.75
2041.08047447275	6975.25
2043.38384010509	6974.75
2045.68652756907	7065.5
2047.98853716335	6973.75
2050.28986918648	7075.75
2052.59052393692	7079.5
2054.89050171302	7102.75
2057.18980281306	7135.25
2059.4884275352	7107.75
2061.78637617753	7097.75
2064.08364903802	7101.5
2066.38024641457	7166
2068.67616860497	7158.25
2070.97141590694	7174.5
2073.26598861809	7193
2075.55988703595	7105.75
2077.85311145796	7183.75
2080.14566218145	7202.25
2082.43753950371	7247.25
2084.72874372188	7256
2087.01927513307	7269
2089.30913403428	7299.75
2091.59832072241	7339.5
2093.88683549429	7283.75
2096.17467864666	7289.5
2098.46185047619	7361.25
2100.74835127944	7374.25
2103.03418135292	7405.75
2105.31934099303	7329.75
2107.6038304961	7463.5
2109.88765015838	7494.25
2112.17080027602	7454.25
2114.45328114513	7482.75
2116.7350930617	7507.5
2119.01623632165	7568.25
2121.29671122085	7483
2123.57651805505	7598.25
2125.85565711996	7582.25
2128.13412871117	7588.75
2130.41193312424	7646.25
2132.68907065462	7671
2134.96554159771	7694.75
2137.24134624881	7662
2139.51648490317	7743
2141.79095785593	7765.5
2144.0647654022	7755.5
2146.33790783698	7819.25
2148.61038545524	7751
2150.88219855182	7893
2153.15334742154	7857.5
2155.42383235911	7919.5
2157.6936536592	7966.25
2159.9628116164	7887
2162.23130652522	7928
2164.49913868011	7936.5
2166.76630837544	7983
2169.03281590552	8022.5
2171.2986615646	8041.25
2173.56384564685	8003.75
2175.82836844637	7999.25
2178.0922302572	8057.25
2180.35543137332	8040.5
2182.61797208862	8040
2184.87985269695	7963.25
2187.14107349208	8054
2189.40163476773	8081.75
2191.66153681753	8084.5
2193.92077993507	8076.75
2196.17936441386	8090
2198.43729054735	8088.25
2200.69455862894	8119
2202.95116895194	8048
2205.20712180962	8078.5
2207.46241749519	8064.25
2209.71705630179	8106.75
2211.97103852248	8158
2214.2243644503	8088.5
2216.47703437819	8195.5
2218.72904859905	8085.5
2220.98040740571	8191.5
2223.23111109095	8203.5
2225.4811599475	8131.75
2227.73055426799	8140.75
2229.97929434504	8205
2232.22738047118	8116.75
2234.47481293889	8150
2236.72159204058	8226.75
2238.96771806864	8150.75
2241.21319131536	8145
2243.458012073	8174.5
2245.70218063374	8253.75
2247.94569728973	8220.75
2250.18856233304	8202.75
2252.4307760557	8139
2254.67233874967	8187.5
2256.91325070687	8233.25
2259.15351221915	8189
2261.39312357831	8246.75
2263.63208507611	8220.25
2265.87039700422	8254
2268.1080596543	8297
2270.34507331792	8232.75
2272.5814382866	8206.25
2274.81715485183	8248
2277.05222330502	8294.5
2279.28664393755	8249.25
2281.52041704072	8251.5
2283.75354290581	8279.5
2285.98602182401	8292
2288.21785408648	8260.5
2290.44903998434	8284.75
2292.67957980862	8285.25
2294.90947385033	8291.5
2297.1387224004	8265
2299.36732574975	8300.75
2301.59528418921	8301.5
2303.82259800958	8389
2306.04926750158	8298.25
2308.27529295593	8161.5
2310.50067466325	8330.75
2312.72541291412	8291
2314.9495079991	8338.5
2317.17296020866	8281.25
2319.39576983323	8384.75
2321.61793716322	8320.75
2323.83946248894	8331.25
2326.06034610069	8314.75
2328.28058828871	8286.75
2330.50018934317	8358.75
2332.7191495542	8251
2334.93746921192	8341.75
2337.15514860633	8273.75
2339.37218802743	8302.75
2341.58858776516	8335.25
2343.80434810941	8311.25
2346.01946935001	8330
2348.23395177675	8286
2350.44779567939	8348
2352.66100134759	8243.25
2354.87356907101	8314.75
2357.08549913925	8225.75
2359.29679184185	8271.75
2361.50744746829	8309.25
2363.71746630804	8343
2365.92684865048	8229.5
2368.13559478499	8263.25
2370.34370500083	8227.75
2372.55117958727	8266.25
2374.75801883352	8277
2376.96422302874	8172.75
2379.16979246202	8181.75
2381.37472742243	8157
2383.57902819898	8203.75
2385.78269508063	8171.75
2387.98572835629	8220.75
2390.18812831482	8232.25
2392.38989524505	8147.5
2394.59102943573	8205.75
2396.79153117559	8236
2398.9914007533	8174.75
2401.19063845748	8160.75
2403.38924457672	8168.25
2405.58721939951	8219.25
2407.78456321435	8166.75
2409.98127630966	8168
2412.17735897382	8175.25
2414.37281149517	8116
2416.56763416198	8164.25
2418.76182726249	8149
2420.95539108487	8163
2423.14832591726	8156.75
2425.34063204776	8102.5
2427.53230976439	8137.75
2429.72335935513	8085.75
2431.91378110795	8098
2434.10357531071	8068.25
2436.29274225125	8087.5
2438.48128221739	8134.5
2440.66919549683	8103.75
2442.8564823773	8063.5
2445.04314314641	8140
2447.22917809176	8135
2449.4145875009	8125.75
2451.59937166131	8076.75
2453.78353086044	8022
2455.96706538568	8044
2458.14997552436	8024.5
2460.33226156379	7986
2462.51392379119	7984.25
2464.69496249376	7921
2466.87537795862	7972.25
2469.05517047288	7980.5
2471.23434032357	8004.75
2473.41288779767	8033.25
2475.59081318211	7923.75
2477.76811676378	7914.75
2479.9447988295	7871.5
2482.12085966605	7877.5
2484.29629956016	7891.25
2486.4711187985	7894.75
2488.64531766769	7923.25
2490.8188964543	7979.5
2492.99185544484	7869.75
2495.16419492579	7916
2497.33591518353	7953.5
2499.50701650444	7940.25
2501.67749917482	7912.25
2503.84736348091	7873.25
2506.01660970891	7923.75
2508.18523814496	7828.75
2510.35324907514	7911.25
2512.52064278551	7824.25
2514.68741956201	7916.75
2516.85357969058	8029
2519.01912345709	7942.75
2521.18405114735	7931.5
2523.34836304711	7922.5
2525.51205944208	7929.75
2527.6751406179	7957.5
2529.83760686016	7938.5
2531.99945845439	7977
2534.16069568606	7962.75
2536.3213188406	7947.75
2538.48132820336	7901.25
2540.64072405965	7856.25
2542.79950669471	7849.75
2544.95767639373	7996.5
2547.11523344184	7900.25
2549.27217812411	7895.5
2551.42851072555	7866
2553.58423153111	7872
2555.73934082569	7896.5
2557.89383889412	7890.25
2560.04772602118	7834
2562.20100249158	7833.75
2564.35366858996	7742
2566.50572460093	7791.25
2568.65717080901	7737.25
2570.80800749867	7801.5
2572.95823495433	7750.5
2575.10785346031	7750.75
2577.25686330093	7715.75
2579.40526476038	7643
2581.55305812282	7683.75
2583.70024367237	7688.25
2585.84682169303	7641.75
2587.99279246879	7673
2590.13815628354	7637.5
2592.28291342112	7627.25
2594.42706416531	7641.25
2596.5706087998	7562.75
2598.71354760826	7655.5
2600.85588087425	7611.75
2602.99760888127	7637.25
2605.13873191278	7596.75
2607.27925025214	7592.75
2609.41916418269	7587.5
2611.55847398764	7619.5
2613.69717995017	7544.5
2615.83528235339	7646
2617.97278148034	7675.25
2620.10967761398	7674.5
2622.2459710372	7652.5
2624.38166203284	7655
2626.51675088365	7657
2628.65123787231	7636.5
2630.78512328145	7634.75
2632.9184073936	7555.25
2635.05109049124	7638
2637.18317285676	7601
2639.31465477248	7625.5
2641.44553652067	7641.25
2643.5758183835	7596.25
2645.70550064309	7602
2647.83458358144	7608
2649.96306748053	7636
2652.09095262223	7616
2654.21823928836	7650
2656.34492776063	7596.5
2658.47101832071	7602.25
2660.59651125015	7613.25
2662.72140683047	7654
2664.84570534309	7554.75
2666.96940706934	7619.5
2669.0925122905	7550.75
2671.21502128773	7532.25
2673.33693434215	7598.5
2675.45825173479	7622.75
2677.57897374658	7549.5
2679.69910065839	7613.5
2681.818632751	7601.5
2683.93757030511	7616
2686.05591360133	7519
2688.17366292021	7554.75
2690.29081854218	7524.5
2692.40738074762	7487.5
2694.52334981681	7495.75
2696.63872602995	7498.75
2698.75350966713	7548.25
2700.86770100841	7566.5
2702.98130033371	7462
2705.09430792289	7468
2707.20672405571	7481.75
2709.31854901185	7580.75
2711.42978307091	7554
2713.54042651238	7513.5
2715.65047961567	7550
2717.7599426601	7578.25
2719.86881592491	7510.75
2721.97709968924	7530.5
2724.08479423213	7525.75
2726.19189983255	7548
2728.29841676934	7496.5
2730.4043453213	7535.5
2732.5096857671	7542.25
2734.61443838532	7534.75
2736.71860345444	7466.25
2738.82218125286	7473
2740.92517205889	7501.25
2743.02757615072	7606
2745.12939380646	7506
2747.23062530411	7510.25
2749.33127092159	7549.5
2751.4313309367	7535
2753.53080562716	7588.25
2755.62969527058	7557.75
2757.72800014448	7465.25
2759.82572052625	7517
2761.92285669323	7511.5
2764.0194089226	7499.25
2766.11537749147	7575.5
2768.21076267686	7565.5
2770.30556475566	7482.5
2772.39978400465	7476.25
2774.49342070054	7496.25
2776.58647511991	7533
2778.67894753923	7503
2780.77083823487	7512
2782.8621474831	7504.25
2784.95287556007	7483.25
2787.04302274184	7485
2789.13258930433	7491.75
2791.22157552338	7465.5
2793.30998167471	7477.25
2795.39780803392	7519.5
2797.4850548765	7464
2799.57172247786	7447.25
2801.65781111324	7462.5
2803.74332105781	7468
2805.82825258661	7454
2807.91260597457	7499.5
2809.9963814965	7424.25
2812.07957942711	7461.75
2814.16220004096	7387
2816.24424361252	7463.25
2818.32571041614	7458
2820.40660072604	7468.5
2822.48691481631	7498.75
2824.56665296098	7486.25
2826.64581543388	7499
2828.72440250876	7532.75
2830.80241445925	7506.25
2832.87985155885	7514
2834.95671408093	7638.5
2837.03300229875	7651.75
2839.10871648544	7664.75
2841.18385691399	7785.25
2843.25842385729	7800.25
2845.33241758808	7908
2847.40583837898	7953
2849.4786865025	7983.75
2851.550962231	7960.25
2853.6226658367	7965.5
2855.69379759173	7897.5
2857.76435776806	7918.5
2859.83434663753	7867.5
2861.90376447184	7830.75
2863.97261154259	7833
2866.0408881212	7874.25
2868.10859447901	7826
2870.17573088717	7865.75
2872.24229761673	7886.5
2874.30829493859	7862
2876.37372312352	7940.25
2878.43858244215	8076.75
2880.50287316496	8150
2882.56659556231	8078.5
2884.62974990439	8045.5
2886.69233646129	7978.25
2888.75435550293	7961.5
2890.81580729909	7953
2892.87669211941	7936.5
2894.93701023339	7952.75
2896.99676191039	7896
2899.05594741961	7983.25
2901.1145670301	7938
2903.1726210108	7861.75
2905.23010963045	7906.25
2907.28703315768	7894.75
2909.34339186096	7911.5
2911.39918600861	7885.75
2913.45441586879	7831
2915.50908170952	7867
2917.56318379867	7879.5
2919.61672240395	7897
2921.66969779291	7873.75
2923.72211023295	7860.75
2925.77395999134	7879.5
2927.82524733515	7831.25
2929.87597253132	7899.5
2931.92613584663	7890.25
2933.97573754769	7852.5
2936.02477790097	7739.5
2938.07325717276	7735.75
2940.1211756292	7742
2942.16853353626	7690.5
2944.21533115976	7709
2946.26156876536	7692.5
2948.30724661853	7677.25
2950.3523649846	7673.75
2952.39692412872	7631.25
2954.44092431587	7678
2956.48436581089	7655.5
2958.52724887843	7620.75
2960.56957378296	7655
2962.6113407888	7709
2964.65255016011	7622
2966.69320216083	7661.75
2968.73329705479	7647.25
2970.77283510559	7653.5
2972.81181657671	7649.5
2974.8502417314	7660.25
2976.88811083279	7605.25
2978.92542414378	7646.5
2980.96218192713	7730.25
2982.99838444541	7725.25
2985.034031961	7722.25
2987.06912473612	7738.75
2989.1036630328	7706
2991.13764711288	7744
2993.17107723804	7680
2995.20395366974	7728.25
2997.23627666931	7712.75
2999.26804649782	7708.75
3001.29926341624	7804.25
3003.32992768528	7853.5
3005.3600395655	7835.75
3007.38959931726	7851
3009.41860720076	7875
3011.44706347595	7905.5
3013.47496840263	7832.5
3015.50232224041	7892
3017.5291252487	7954
3019.5553776867	7827
3021.58107981344	7935
3023.60623188773	7925.25
3025.63083416822	7967.5
3027.65488691331	8004.5
3029.67839038125	7992
3031.70134483007	7989.75
3033.72375051759	8066
3035.74560770144	8033.5
3037.76691663907	8050.5
3039.78767758768	8130
3041.80789080431	8056
3043.82755654577	8025.75
3045.84667506867	8115.5
3047.8652466294	8063.25
3049.88327148418	8100.5
3051.90074988899	8082.25
3053.91768209961	8040.75
3055.9340683716	8044.75
3057.94990896033	8080.5
3059.96520412095	8115
3061.97995410838	8107
3063.99415917734	8088.75
3066.00781958234	8069.5
3068.02093557766	8078.5
3070.03350741738	8050.25
3072.04553535535	8069.5
3074.05701964521	8079.25
3076.06796054036	8132
3078.078358294	8042.5
3080.08821315912	8154.5
3082.09752538846	8208.75
3084.10629523454	8069.25
3086.11452294967	8137.75
3088.12220878592	8101.25
3090.12935299515	8170.5
3092.13595582898	8083
3094.1420175388	8119
3096.14753837579	8174
3098.15251859088	8105.5
3100.15695843477	8156.25
3102.16085815793	8154.25
3104.16421801061	8107.5
3106.16703824282	8146.5
3108.16931910432	8195.75
3110.17106084464	8185.5
3112.17226371308	8232.75
3114.17292795872	8240
3116.17305383034	8249.5
3118.17264157657	8207.25
3120.17169144571	8208.5
3122.17020368587	8183.75
3124.16817854492	8253.75
3126.16561627044	8297.25
3128.16251710982	8353.5
3130.15888131017	8351.5
3132.15470911837	8415
3134.15000078104	8359.5
3136.14475654455	8369.25
3138.13897665502	8396.75
3140.13266135835	8374.25
3142.12581090014	8368.5
3144.11842552577	8387
3146.11050548036	8448.5
3148.10205100875	8439.5
3150.09306235557	8439.5
3152.08353976515	8446.25
3154.07348348158	8352
3156.06289374869	8413
3158.05177081006	8374
3160.04011490899	8497.5
3162.02792628852	8513.75
3164.01520519145	8481.75
3166.00195186029	8480
3167.98816653728	8469.25
3169.97384946442	8460.5
3171.95900088344	8474
3173.94362103577	8531.5
3175.92771016259	8491.5
3177.91126850484	8529.75
3179.89429630312	8533.75
3181.87679379782	8517.5
3183.85876122903	8595.75
3185.84019883657	8575.25
3187.82110685997	8594.5
3189.80148553851	8553.25
3191.78133511116	8567.5
3193.76065581664	8621.75
3195.73944789337	8601.75
3197.7177115795	8650
3199.6954471129	8596.25
3201.67265473114	8621
3203.64933467153	8581.25
3205.62548717107	8728
3207.60111246648	8689.25
3209.57621079421	8704.5
3211.55078239041	8718
3213.52482749093	8678.75
3215.49834633133	8725
3217.4713391469	8770.5
3219.44380617262	8753.5
3221.41574764317	8818.25
3223.38716379296	8767.25
3225.35805485607	8788.75
3227.32842106631	8825
3229.29826265718	8900.25
3231.26757986187	8892
3233.2363729133	8928
3235.20464204405	8856
3237.17238748643	8919
3239.13960947243	8903.75
3241.10630823374	8933.75
3243.07248400174	8904
3245.03813700748	9059.5
3247.00326748177	8958
3248.96787565503	9059.5
3250.93196175742	9005
3252.89552601877	9027.5
3254.8585686686	9025
3256.82108993612	9116.25
3258.78309005022	9136
3260.74456923948	9068.5
3262.70552773215	9099.5
3264.66596575617	9130.75
3266.62588353916	9064.25
3268.58528130843	9079
3270.54415929094	9066
3272.50251771336	9098.25
3274.46035680201	9129.75
3276.4176767829	9170.75
3278.37447788171	9132.25
3280.33076032379	9212.5
3282.28652433416	9128.25
3284.24177013751	9137
3286.1964979582	9155
3288.15070802027	9150.5
3290.10440054741	9157.25
3292.05757576298	9140.5
3294.01023389001	9221
3295.96237515119	9248.25
3297.91399976887	9145
3299.86510796506	9239
3301.81569996142	9255
3303.76577597932	9214.75
3305.7153362397	9223
3307.66438096324	9221.5
3309.61291037024	9256.75
3311.56092468064	9273.5
3313.50842411404	9204.25
3315.45540888971	9240.5
3317.40187922656	9227.75
3319.34783534315	9263
3321.29327745768	9300
3323.23820578801	9158.25
3325.18262055164	9267.75
3327.1265219657	9255
3329.06991024699	9248.5
3331.01278561194	9240.75
3332.95514827662	9245.5
3334.89699845674	9279.25
3336.83833636766	9301.75
3338.77916222434	9215
3340.71947624143	9279.25
3342.65927863317	9348
3344.59856961346	9216.75
3346.53734939584	9316
3348.47561819344	9263.75
3350.41337621906	9247.5
3352.35062368513	9317
3354.28736080368	9300.5
3356.22358778637	9229.25
3358.15930484452	9308
3360.09451218904	9421
3362.02921003047	9365.75
3363.96339857898	9384
3365.89707804436	9332.75
3367.83024863602	9315.5
3369.76291056299	9255.5
3371.69506403389	9315
3373.62670925699	9351.25
3375.55784644016	9392.75
3377.4884757909	9332
3379.41859751629	9352
3381.34821182305	9397.25
3383.27731891749	9444.5
3385.20591900555	9396.5
3387.13401229276	9460.75
3389.06159898426	9537.5
3390.9886792848	9526.75
3392.91525339872	9542.25
3394.84132152998	9542.75
3396.76688388213	9527.5
3398.69194065833	9521.25
3400.61649206133	9564.25
3402.54053829348	9556.5
3404.46407955672	9522.5
3406.3871160526	9499.75
3408.30964798225	9562
3410.23167554639	9537.5
3412.15319894535	9594.75
3414.07421837904	9629
3415.99473404695	9603.25
3417.91474614817	9618
3419.83425488136	9635
3421.75326044479	9598.75
3423.67176303631	9628.75
3425.58976285332	9689
3427.50726009282	9621.5
3429.42425495143	9618.75
3431.34074762528	9640.75
3433.25673831012	9623.75
3435.17222720127	9598.75
3437.08721449362	9571
3439.00170038164	9557.25
3440.91568505936	9658
3442.82916872039	9463.5
3444.74215155791	9574.5
3446.65463376468	9545
3448.566615533	9512.5
3450.47809705476	9583.5
3452.3890785214	9591.75
3454.29956012393	9625
3456.20954205293	9541.5
3458.11902449853	9565.5
3460.02800765041	9575.75
3461.93649169784	9536.5
3463.84447682962	9502.75
3465.75196323412	9573.25
3467.65895109925	9550
3469.56544061249	9565.5
3471.47143196086	9498.75
3473.37692533093	9536
3475.28192090884	9506
3477.18641888026	9589.25
3479.09041943039	9628.75
3480.99392274402	9585.75
3482.89692900545	9563.5
3484.79943839853	9580
3486.70145110666	9586.75
3488.60296731277	9501
3490.50398719933	9497.25
3492.40451094836	9487.25
3494.30453874141	9448.5
3496.20407075956	9574.75
3498.10310718342	9563.5
3500.00164819315	9529.25