201.866871357051	871.25
204.754250281454	879.75
207.640596790938	880.25
210.525911876299	885.75
213.410196525689	880.25
216.293451724508	877.25
219.175678455485	895
222.056877698662	889.25
224.937050431388	892
227.816197628363	891.5
230.694320261602	910.5
233.571419300504	901.5
236.447495711764	906.5
239.322550459507	896.75
242.196584505182	899.75
245.069598807626	899
247.941594323078	910
250.812572005154	916.25
253.682532804884	929.25
256.551477670699	944.5
259.419407548456	934.25
262.286323381439	928.5
265.152226110364	916
268.017116673389	925.75
270.880996006115	918.25
273.743865041622	926.25
276.605724710436	929.75
279.466575940562	940
282.326419657496	950
285.1852567842	925
288.043088241157	926
290.899914946349	915.5
293.75573781526	908.25
296.610557760898	916.5
299.464375693817	907
302.317192522078	905.25
305.169009151297	919.5
308.019826484655	912
310.86964542287	908.25
313.718466864233	914.75
316.566291704614	896.25
319.413120837457	916.75
322.258955153804	907.25
325.103795542291	913.75
327.947642889128	927.75
330.79049807819	911.5
333.632361990927	916
336.473235506444	906.5
339.31311950145	907.5
342.152014850322	913.75
344.989922425062	919.5
347.826843095354	905.75
350.662777728528	910.25
353.497727189577	931
356.331692341195	921
359.164674043732	928.25
361.996673155267	929.25
364.827690531536	918
367.65772702602	929.75
370.486783489887	932
373.314860772047	928.25
376.14195971912	930.5
378.968081175466	924.5
381.793225983212	932.5
384.617394982201	936
387.44058901005	934.5
390.262808902131	954
393.08405549161	948.75
395.904329609395	978.5
398.723632084213	975.75
401.541963742569	966
404.359325408779	963.5
407.175717904938	970.5
409.991142050982	954.25
412.805598664665	954
415.619088561551	945.5
418.43161255505	945.75
421.243171456415	939
424.053766074758	962.75
426.863397217017	935.5
429.672065688024	946.75
432.479772290455	949.25
435.286517824879	961.25
438.092303089736	952.75
440.897128881359	953.75
443.70099599399	953.75
446.503905219761	945.75
449.305857348711	966
452.106853168796	958.25
454.906893465919	968
457.705979023885	974.25
460.504110624439	957
463.3012890473	957.5
466.097515070087	960
468.892789468424	946.25
471.687113015869	956.25
474.48048648395	951
477.272910642198	956.75
480.064386258109	958.25
482.854914097159	959
485.644494922839	953.75
488.433129496636	953.25
491.220818578047	962.75
494.007562924584	966.75
496.793363291785	960.5
499.578220433217	971.5
502.362135100473	970.25
505.145108043209	963
507.927140009098	948.75
510.708231743909	982
513.488383991433	976.75
516.267597493556	962.75
519.04587299022	969.5
521.82321121946	981.5
524.599612917398	994
527.375078818233	983
530.149609654287	984.25
532.923206155967	964
535.695869051804	978
538.467599068448	972.5
541.238396930665	956.75
544.008263361364	961.75
546.777199081578	954
549.545204810493	953
552.312281265436	971
555.078429161898	973.25
557.843649213533	961
560.607942132156	966.25
563.371308627753	960
566.133749408495	965.75
568.895265180756	985.75
571.655856649064	979.75
574.415524516189	976.25
577.174269483075	994.25
579.932092248884	998
582.688993510994	1003.25
585.444973965023	1036.5
588.200034304795	1053.5
590.95417522237	1065
593.70739740807	1082.25
596.459701550433	1067.5
599.21108833628	1024.25
601.961558450668	992.75
604.711112576933	981.25
607.459751396673	975.25
610.207475589748	968.5
612.954285834338	976.75
615.700182806879	965
618.445167182101	960.75
621.189239633055	958.25
623.932400831087	968.25
626.674651445839	965
629.415992145303	958.75
632.156423595745	978.25
634.895946461813	955.25
637.634561406449	966.75
640.37226909096	972.25
643.109070174978	956.75
645.844965316508	972.75
648.579955171888	960.5
651.314040395846	970.25
654.047221641456	969.5
656.779499560176	965
659.510874801828	970.25
662.241348014642	976.5
664.97091984524	979.25
667.699590938606	973.25
670.427361938164	987.25
673.15423348573	1021.75
675.880206221526	1090.75
678.605280784206	1162.5
681.329457810829	1163.5
684.05273793692	1112.75
686.775121796389	1050.25
689.49661002163	1023.5
692.217203243454	1012.25
694.936902091144	1003
697.655707192425	995.5
700.373619173493	986.75
703.09063865901	992.75
705.806766272093	993
708.522002634378	988.75
711.236348365946	986
713.94980408538	973.75
716.662370409762	977.25
719.374047954676	981
722.08483733419	974.75
724.794739160909	963.75
727.503754045949	975.25
730.21188259892	979.75
732.919125427998	974.75
735.625483139855	979
738.330956339723	978.25
741.035545631374	1002.5
743.739251617106	1016.75
746.44207489779	1051.5
749.144016072852	1037
751.845075740272	1023.75
754.545254496603	1004
757.244552936976	985
759.94297165508	991.25
762.640511243222	979
765.337172292249	994
768.032955391649	995.5
770.727861129482	991.25
773.421890092413	989.5
776.11504286572	987.75
778.807320033298	994.75
781.49872217765	986.25
784.18924987991	991.75
786.87890371984	984.75
789.567684275826	995
792.255592124908	989.25
794.94262784276	993.75
797.628792003703	990.75
800.314085180715	994.25
802.998507945427	1041
805.682060868145	1065.75
808.364744517821	1108
811.046559462105	1077.25
813.727506267311	1037.5
816.407585498422	1007.25
819.08679771913	1017.5
821.765143491822	1009
824.442623377563	1020.75
827.119237936127	1044
829.794987726003	1053.5
832.469873304377	1076.5
835.143895227167	1066.5
837.817054048985	1062.25
840.489350323205	1060.5
843.160784601892	1043.25
845.831357435894	1052
848.501069374739	1042.5
851.169920966753	1040
853.837912758987	1025.5
856.505045297232	1021.25
859.171319126071	1002
861.836734788823	1015
864.501292827579	1000
867.164993783208	992.25
869.827838195361	996
872.489826602454	1003.5
875.150959541701	1005.25
877.811237549104	984
880.470661159456	993.75
883.129230906357	979.5
885.786947322205	984.25
888.443810938206	980.25
891.099822284385	969
893.754981889586	988.75
896.409290281452	996
899.062747986485	990.5
901.715355529999	990.25
904.367113436154	995.75
907.01802222793	987.5
909.668082427172	992
912.317294554574	981.25
914.965659129659	993.25
917.613176670835	1000.75
920.259847695364	995
922.90567271936	993.25
925.550652257825	986.5
928.194786824621	986.25
930.838076932512	998
933.480523093109	1004.5
936.122125816953	1009.75
938.762885613447	1002.5
941.402802990899	1015
944.041878456523	1023.75
946.680112516428	1029.5
949.31750567563	1050
951.954058438081	1060
954.589771306633	1046.25
957.224644783048	1034.5
959.858679368044	1038.75
962.491875561238	1019.25
965.12423386121	1036.75
967.75575476545	1039.75
970.386438770423	1051
973.016286371501	1056.5
975.645298063046	1055.75
978.273474338355	1025
980.900815689674	1028.75
983.527322608243	1016.5
986.152995584245	1006.25
988.777835106834	1008.25
991.401841664148	1005
994.025015743307	1020.5
996.647357830407	1009.75
999.268868410534	1014.25
1001.88954796777	1015.75
1004.50939698518	1045.75
1007.12841594484	1048.5
1009.74660532783	1028.5
1012.36396561423	1026.5
1014.98049728314	1014.25
1017.59620081267	1022
1020.21107667995	1024.75
1022.82512536112	1033.75
1025.43834733138	1032.25
1028.05074306493	1044
1030.66231303501	1048.5
1033.27305771392	1066
1035.88297757299	1078.75
1038.49207308257	1081.25
1041.10034471211	1067.75
1043.70779293008	1056.5
1046.31441820402	1036.5
1048.92022100052	1035.5
1051.52520178525	1033
1054.12936102295	1040
1056.73269917742	1056.5
1059.33521671154	1053.25
1061.93691408729	1049.5
1064.53779176571	1047.25
1067.13785020694	1048.5
1069.73708987022	1054
1072.33551121386	1051.75
1074.93311469528	1061
1077.52990077103	1044.75
1080.12586989674	1088.75
1082.72102252714	1154.25
1085.31535911611	1160.5
1087.90888011663	1159.25
1090.50158598078	1116
1093.09347715979	1076.5
1095.68455410403	1073.5
1098.27481726296	1076.25
1100.86426708523	1065.75
1103.45290401857	1080
1106.04072850991	1079
1108.6277410053	1086.75
1111.21394194993	1085
1113.79933178816	1081.25
1116.3839109635	1081.25
1118.96767991862	1074.75
1121.55063909539	1093.75
1124.13278893477	1094.5
1126.71412987696	1107.25
1129.29466236132	1128
1131.87438682637	1113.25
1134.45330370982	1148.75
1137.03141344858	1183.5
1139.60871647872	1236
1142.18521323554	1269.5
1144.7609041535	1259.5
1147.33578966629	1194
1149.90987020676	1179.25
1152.48314620702	1144.75
1155.05561809835	1150.25
1157.62728631125	1153.25
1160.19815127545	1171.25
1162.76821341988	1159.5
1165.33747317271	1206
1167.90593096133	1186
1170.47358721235	1176.75
1173.04044235163	1159.5
1175.60649680425	1163
1178.17175099454	1151
1180.73620534607	1169
1183.29986028165	1168
1185.86271622336	1163.25
1188.42477359249	1165
1190.98603280964	1160.25
1193.54649429462	1157.5
1196.10615846653	1182.5
1198.66502574372	1172.5
1201.22309654385	1173.25
1203.78037128378	1167.25
1206.33685037971	1180
1208.89253424709	1180.25
1211.44742330063	1184.5
1214.00151795438	1187
1216.55481862163	1188.75
1219.10732571497	1184.5
1221.65903964631	1195
1224.20996082683	1177.5
1226.760089667	1178
1229.30942657664	1177.25
1231.85797196483	1171.25
1234.40572623998	1182.5
1236.95268980981	1187.25
1239.49886308136	1188
1242.04424646098	1192.5
1244.58884035435	1202.5
1247.13264516647	1196.5
1249.67566130166	1214
1252.21788916358	1234.25
1254.75932915524	1224.75
1257.29998167896	1225.75
1259.83984713639	1226.25
1262.37892592857	1243.25
1264.91721845586	1223.5
1267.45472511795	1245.5
1269.9914463139	1259.25
1272.52738244213	1244.5
1275.0625339004	1263
1277.59690108587	1252.5
1280.130484395	1266.5
1282.66328422367	1278
1285.19530096712	1280.75
1287.72653501993	1296.25
1290.25698677608	1310.75
1292.78665662894	1315.5
1295.31554497125	1331.25
1297.8436521951	1347.5
1300.37097869203	1371.25
1302.89752485292	1409.75
1305.42329106805	1407.75
1307.94827772713	1405
1310.47248521921	1388
1312.99591393279	1363.25
1315.51856425575	1377.75
1318.04043657536	1385.75
1320.56153127836	1415.25
1323.08184875083	1441.25
1325.6013893783	1462.75
1328.12015354572	1516.25
1330.63814163744	1555
1333.15535403727	1616
1335.67179112839	1767
1338.18745329347	1887.25
1340.70234091454	1920.25
1343.21645437314	1817.75
1345.72979405019	1664
1348.24236032607	1548.25
1350.75415358059	1515
1353.26517419303	1503
1355.7754225421	1504
1358.28489900594	1525.5
1360.79360396218	1547
1363.30153778787	1518.75
1365.80870085955	1534.25
1368.31509355319	1561
1370.82071624424	1557
1373.32556930762	1548
1375.8296531177	1551.5
1378.33296804832	1547.75
1380.83551447282	1551.75
1383.33729276399	1567.25
1385.83830329408	1553.25
1388.33854643489	1560
1390.83802255762	1555
1393.33673203301	1582.5
1395.83467523128	1594
1398.33185252211	1587
1400.82826427471	1582
1403.32391085777	1620
1405.81879263947	1653.75
1408.31290998752	1631.5
1410.80626326908	1648.75
1413.29885285087	1668.75
1415.79067909909	1675.5
1418.28174237944	1679.5
1420.77204305717	1709
1423.26158149702	1733.25
1425.75035806323	1742.5
1428.2383731196	1759.25
1430.72562702942	1771
1433.21212015554	1791.25
1435.69785286028	1811.5
1438.18282550555	1840.75
1440.66703845275	1867
1443.15049206284	1902.75
1445.6331866963	2051.75
1448.11512271316	2222.25
1450.59630047298	2274.5
1453.07672033486	2203.25
1455.55638265748	2076.75
1458.03528779902	2038
1460.51343611725	1988.25
1462.99082796946	2021.75
1465.46746371252	1973.25
1467.94334370285	2015.25
1470.41846829642	1975.75
1472.89283784878	2001.25
1475.36645271503	1991.25
1477.83931324983	2006.75
1480.31141980743	2036
1482.78277274164	2052.5
1485.25337240583	2057.25
1487.72321915297	2015.25
1490.19231333557	2028.75
1492.66065530578	2015.75
1495.12824541525	2027.5
1497.5950840153	2030.75
1500.06117145678	2025.5
1502.52650809014	2067.25
1504.99109426543	2079.75
1507.45493033227	2089.25
1509.91801663992	2109.5
1512.38035353717	2175.75
1514.84194137248	2187
1517.30278049386	2320
1519.76287124894	2477
1522.22221398497	2774.75
1524.68080904876	3091
1527.13865678681	3280
1529.59575754514	3092.25
1532.05211166945	2724
1534.50771950503	2503.75
1536.96258139678	2411.25
1539.41669768924	2348
1541.87006872656	2354.25
1544.32269485252	2366.5
1546.77457641051	2314.75
1549.22571374357	2352.75
1551.67610719434	2332.5
1554.12575710513	2360.5
1556.57466381785	2367.5
1559.02282767408	2350.5
1561.47024901499	2373.5
1563.91692818144	2412
1566.3628655139	2415.25
1568.80806135249	2429
1571.252516037	2427.25
1573.6962299068	2484.5
1576.13920330099	2469
1578.58143655828	2511.75
1581.02293001704	2514.5
1583.46368401528	2522
1585.90369889071	2534.5
1588.34297498065	2563.75
1590.7815126221	2587.75
1593.21931215173	2583
1595.65637390588	2556.25
1598.09269822053	2589.5
1600.52828543135	2609
1602.96313587367	2622.5
1605.3972498825	2603
1607.83062779252	2651.75
1610.26326993808	2611
1612.69517665322	2625.5
1615.12634827165	2613.5
1617.55678512676	2608.25
1619.98648755163	2598.25
1622.41545587902	2599.5
1624.84369044138	2578
1627.27119157085	2630.25
1629.69795959924	2655.5
1632.12399485808	2639.25
1634.54929767859	2679.5
1636.97386839165	2700.5
1639.39770732789	2653
1641.8208148176	2658.25
1644.24319119078	2671.25
1646.66483677715	2708.25
1649.0857519061	2714.5
1651.50593690677	2722
1653.92539210795	2755.25
1656.3441178382	2744.75
1658.76211442575	2760.75
1661.17938219855	2784
1663.59592148428	2834.5
1666.01173261032	2786.75
1668.42681590377	2829.25
1670.84117169145	2834.5
1673.25480029991	2827.75
1675.66770205541	2836.75
1678.07987728393	2819.5
1680.49132631119	2874.25
1682.90204946263	2871.5
1685.31204706342	2930.75
1687.72131943846	2896.75
1690.1298669124	2939
1692.53768980957	2953
1694.94478845411	2953
1697.35116316982	2949
1699.75681428031	2961.25
1702.16174210887	2977.75
1704.56594697858	2940.5
1706.96942921222	3004.5
1709.37218913235	3005.25
1711.77422706125	2995.75
1714.17554332098	2988
1716.5761382333	3045
1718.97601211977	2992
1721.37516530169	2994.25
1723.77359810006	3035.5
1726.17131083572	3054.25
1728.56830382922	3076.5
1730.96457740087	3090.5
1733.36013187075	3032
1735.75496755868	3035.25
1738.14908478428	3101.25
1740.54248386689	3066.25
1742.93516512565	3052.5
1745.32712887946	3086
1747.71837544697	3082.5
1750.10890514662	3087
1752.49871829661	3105.5
1754.88781521492	3118.5
1757.27619621929	3129
1759.66386162726	3137.5
1762.05081175612	3203
1764.43704692297	3170.5
1766.82256744465	3145.25
1769.20737363782	3218
1771.59146581887	3188.75
1773.97484430405	3186.5
1776.35750940932	3229.75
1778.73946145048	3223
1781.12070074309	3235.5
1783.50122760249	3311.5
1785.88104234385	3287.5
1788.26014528209	3322.5
1790.63853673196	3301.75
1793.01621700796	3294
1795.39318642443	3353.25
1797.76944529549	3355.25
1800.14499393503	3337.75
1802.51983265681	3348.5
1804.8939617743	3389.25
1807.26738160085	3390
1809.64009244957	3394
1812.01209463339	3392
1814.38338846504	3412.5
1816.75397425706	3396.25
1819.12385232181	3428.25
1821.49302297142	3433.5
1823.86148651789	3447.5
1826.22924327299	3404.75
1828.59629354831	3485
1830.96263765526	3451
1833.32827590507	3456.5
1835.69320860877	3472.5
1838.05743607724	3482.25
1840.42095862113	3486.5
1842.78377655097	3484.75
1845.14589017707	3511.75
1847.50729980956	3504.25
1849.86800575843	3533.25
1852.22800833346	3521.5
1854.58730784427	3529.75
1856.94590460032	3549.5
1859.30379891087	3549.25
1861.66099108503	3630.5
1864.01748143175	3572.5
1866.37327025978	3610.5
1868.72835787773	3613.5
1871.08274459403	3645.25
1873.43643071697	3666.25
1875.78941655464	3656
1878.14170241498	3671
1880.4932886058	3683.25
1882.84417543469	3727.25
1885.19436320915	3688.75
1887.54385223646	3727.75
1889.89264282378	3752.75
1892.24073527809	3775.5
1894.58812990625	3806
1896.93482701493	3822.25
1899.28082691067	3869.75
1901.62612989984	3878
1903.97073628868	3878.5
1906.31464638326	3900.5
1908.6578604895	3888.25
1911.00037891321	3903.25
1913.34220196	3936.25
1915.68332993537	3949.25
1918.02376314468	3930.75
1920.36350189311	3986.75
1922.70254648573	3995
1925.04089722744	3985.75
1927.37855442303	4028
1929.71551837715	4015.75
1932.05178939426	4031
1934.38736777876	4043.5
1936.72225383484	4040
1939.0564478666	4075.25
1941.38995017799	4100.75
1943.72276107283	4072.75
1946.05488085479	4088.25
1948.38630982744	4068
1950.71704829419	4072
1953.04709655832	4120
1955.376454923	4099.25
1957.70512369126	4102.25
1960.03310316599	4090.25
1962.36039364999	4106.75
1964.68699544589	4113.25
1967.01290885622	4177.75
1969.33813418338	4172.25
1971.66267172965	4158.25
1973.98652179718	4180.5
1976.309684688	4249.25
1978.63216070402	4255.75
1980.95395014705	4274.5
1983.27505331873	4242.25
1985.59547052063	4261.75
1987.9152020542	4265
1990.23424822074	4254
1992.55260932146	4280.25
1994.87028565746	4282.75
1997.18727752968	4294.75
1999.503585239	4361
2001.81920908618	4363
2004.13414937184	4364.5
2006.44840639651	4441.75
2008.7619804606	4420.25
2011.07487186442	4483.5
2013.38708090815	4499.5
2015.6986078919	4496
2018.00945311564	4486.5
2020.31961687923	4520.25
2022.62909948246	4546.5
2024.93790122498	4588.25
2027.24602240636	4566.25
2029.55346332604	4601.25
2031.86022428337	4595
2034.16630557761	4621.25
2036.47170750791	4610.5
2038.77643037331	4631.25
2041.08047447275	4647.75
2043.38384010509	4675.75
2045.68652756907	4662.25
2047.98853716335	4702
2050.28986918648	4685.5
2052.59052393692	4715.75
2054.89050171302	4699.75
2057.18980281306	4739.5
2059.4884275352	4787.25
2061.78637617753	4674.75
2064.08364903802	4696
2066.38024641457	4722.75
2068.67616860497	4769.25
2070.97141590694	4778.75
2073.26598861809	4758.75
2075.55988703595	4721.75
2077.85311145796	4792.5
2080.14566218145	4782.5
2082.43753950371	4757.5
2084.72874372188	4787.25
2087.01927513307	4782.25
2089.30913403428	4792.5
2091.59832072241	4797.75
2093.88683549429	4784
2096.17467864666	4839
2098.46185047619	4806.5
2100.74835127944	4832.75
2103.03418135292	4882.75
2105.31934099303	4803.25
2107.6038304961	4838
2109.88765015838	4849.5
2112.17080027602	4834.75
2114.45328114513	4873.5
2116.7350930617	4895.25
2119.01623632165	4849
2121.29671122085	4822.75
2123.57651805505	4876.75
2125.85565711996	4908.5
2128.13412871117	4887
2130.41193312424	4919.75
2132.68907065462	4877.5
2134.96554159771	4930.5
2137.24134624881	4890.5
2139.51648490317	4911.5
2141.79095785593	4888.5
2144.0647654022	4948.25
2146.33790783698	4943.75
2148.61038545524	4859
2150.88219855182	4883
2153.15334742154	4935.25
2155.42383235911	4942.5
2157.6936536592	4927.75
2159.9628116164	4905.5
2162.23130652522	4893.75
2164.49913868011	4934.75
2166.76630837544	4905.5
2169.03281590552	4914
2171.2986615646	4888.25
2173.56384564685	4910.5
2175.82836844637	4933
2178.0922302572	4878
2180.35543137332	4869.75
2182.61797208862	4900.5
2184.87985269695	4880
2187.14107349208	4849.75
2189.40163476773	4868
2191.66153681753	4785.5
2193.92077993507	4753.5
2196.17936441386	4820.75
2198.43729054735	4783.75
2200.69455862894	4778.5
2202.95116895194	4870.5
2205.20712180962	4795
2207.46241749519	4752.5
2209.71705630179	4790.25
2211.97103852248	4807
2214.2243644503	4745.25
2216.47703437819	4738.25
2218.72904859905	4710.5
2220.98040740571	4703.75
2223.23111109095	4678.25
2225.4811599475	4695.25
2227.73055426799	4727
2229.97929434504	4650
2232.22738047118	4625.5
2234.47481293889	4671.75
2236.72159204058	4625.25
2238.96771806864	4617
2241.21319131536	4618
2243.458012073	4552.5
2245.70218063374	4622.5
2247.94569728973	4591.75
2250.18856233304	4515.75
2252.4307760557	4500.5
2254.67233874967	4536
2256.91325070687	4487
2259.15351221915	4465
2261.39312357831	4450.75
2263.63208507611	4467.25
2265.87039700422	4430.25
2268.1080596543	4453.75
2270.34507331792	4424.5
2272.5814382866	4416.5
2274.81715485183	4421.25
2277.05222330502	4451.75
2279.28664393755	4372.25
2281.52041704072	4358.25
2283.75354290581	4371.25
2285.98602182401	4332.5
2288.21785408648	4305.25
2290.44903998434	4315.25
2292.67957980862	4318.75
2294.90947385033	4271.25
2297.1387224004	4238.25
2299.36732574975	4293.25
2301.59528418921	4276.5
2303.82259800958	4255
2306.04926750158	4228
2308.27529295593	4219.25
2310.50067466325	4197
2312.72541291412	4201.25
2314.9495079991	4176.25
2317.17296020866	4128.75
2319.39576983323	4158.5
2321.61793716322	4160
2323.83946248894	4132.25
2326.06034610069	4088
2328.28058828871	4100.25
2330.50018934317	4094.25
2332.7191495542	4091
2334.93746921192	4067.5
2337.15514860633	4026
2339.37218802743	4008.5
2341.58858776516	4036.5
2343.80434810941	4030
2346.01946935001	3992.5
2348.23395177675	3996.75
2350.44779567939	3987.5
2352.66100134759	3953.5
2354.87356907101	3940.25
2357.08549913925	3928
2359.29679184185	3918.75
2361.50744746829	3890.75
2363.71746630804	3907.25
2365.92684865048	3863.5
2368.13559478499	3883.75
2370.34370500083	3835.25
2372.55117958727	3841.25
2374.75801883352	3823.5
2376.96422302874	3831.25
2379.16979246202	3794.25
2381.37472742243	3801.5
2383.57902819898	3763.5
2385.78269508063	3683
2387.98572835629	3725.5
2390.18812831482	3691.25
2392.38989524505	3731.5
2394.59102943573	3688.5
2396.79153117559	3704.25
2398.9914007533	3673.25
2401.19063845748	3693.75
2403.38924457672	3648
2405.58721939951	3593.75
2407.78456321435	3622
2409.98127630966	3597.25
2412.17735897382	3639.75
2414.37281149517	3607.75
2416.56763416198	3618.25
2418.76182726249	3642.75
2420.95539108487	3581.5
2423.14832591726	3565.5
2425.34063204776	3557.25
2427.53230976439	3549
2429.72335935513	3540.25
2431.91378110795	3522.5
2434.10357531071	3496.5
2436.29274225125	3557.75
2438.48128221739	3496.5
2440.66919549683	3493.25
2442.8564823773	3471.25
2445.04314314641	3465.5
2447.22917809176	3455.5
2449.4145875009	3473.5
2451.59937166131	3452.5
2453.78353086044	3437.75
2455.96706538568	3417
2458.14997552436	3410.25
2460.33226156379	3424.25
2462.51392379119	3371
2464.69496249376	3399.75
2466.87537795862	3383.75
2469.05517047288	3368.25
2471.23434032357	3359.75
2473.41288779767	3366.75
2475.59081318211	3327.5
2477.76811676378	3333.75
2479.9447988295	3294.75
2482.12085966605	3309.75
2484.29629956016	3286.5
2486.4711187985	3329
2488.64531766769	3318
2490.8188964543	3272.5
2492.99185544484	3248
2495.16419492579	3298.75
2497.33591518353	3238.75
2499.50701650444	3232.5
2501.67749917482	3270.75
2503.84736348091	3211.75
2506.01660970891	3251
2508.18523814496	3204.5
2510.35324907514	3236.5
2512.52064278551	3198.25
2514.68741956201	3210.25
2516.85357969058	3268.75
2519.01912345709	3242.25
2521.18405114735	3230.75
2523.34836304711	3183.75
2525.51205944208	3219.25
2527.6751406179	3203.75
2529.83760686016	3189.75
2531.99945845439	3223.75
2534.16069568606	3222.75
2536.3213188406	3196.5
2538.48132820336	3180.5
2540.64072405965	3149
2542.79950669471	3179
2544.95767639373	3212.25
2547.11523344184	3168.25
2549.27217812411	3185.25
2551.42851072555	3144.25
2553.58423153111	3141.75
2555.73934082569	3135.25
2557.89383889412	3133.25
2560.04772602118	3125.5
2562.20100249158	3102.75
2564.35366858996	3107.75
2566.50572460093	3138.5
2568.65717080901	3083.5
2570.80800749867	3093.25
2572.95823495433	3058
2575.10785346031	3055
2577.25686330093	3077.25
2579.40526476038	3051.75
2581.55305812282	3005.75
2583.70024367237	3025.75
2585.84682169303	3003.75
2587.99279246879	3030.5
2590.13815628354	3011
2592.28291342112	3004.25
2594.42706416531	3026.75
2596.5706087998	3026
2598.71354760826	3039.25
2600.85588087425	3028
2602.99760888127	2992
2605.13873191278	3001
2607.27925025214	2965.5
2609.41916418269	2977
2611.55847398764	2996
2613.69717995017	2975
2615.83528235339	2991
2617.97278148034	2995.75
2620.10967761398	2992.5
2622.2459710372	2986.25
2624.38166203284	2982.5
2626.51675088365	2958
2628.65123787231	2986.5
2630.78512328145	2963
2632.9184073936	2949
2635.05109049124	2965.75
2637.18317285676	2952.25
2639.31465477248	2980.25
2641.44553652067	2984
2643.5758183835	2953
2645.70550064309	2959.75
2647.83458358144	2955.25
2649.96306748053	2981
2652.09095262223	2961.75
2654.21823928836	2970
2656.34492776063	2966.25
2658.47101832071	2951.5
2660.59651125015	2971.5
2662.72140683047	2974.75
2664.84570534309	2987.75
2666.96940706934	3008.5
2669.0925122905	2980.25
2671.21502128773	2990.75
2673.33693434215	2995.5
2675.45825173479	2985.5
2677.57897374658	2980.75
2679.69910065839	2971
2681.818632751	2956
2683.93757030511	2978.25
2686.05591360133	2952.5
2688.17366292021	2951.75
2690.29081854218	2940.25
2692.40738074762	2925.5
2694.52334981681	2912.75
2696.63872602995	2911.25
2698.75350966713	2947.75
2700.86770100841	2949.5
2702.98130033371	2921
2705.09430792289	2927.25
2707.20672405571	2956.5
2709.31854901185	2917.25
2711.42978307091	2915
2713.54042651238	2941.75
2715.65047961567	2936.75
2717.7599426601	2927.25
2719.86881592491	2967.5
2721.97709968924	2981.25
2724.08479423213	2979
2726.19189983255	2962.25
2728.29841676934	2955.5
2730.4043453213	2979.5
2732.5096857671	2969
2734.61443838532	2931
2736.71860345444	2937.75
2738.82218125286	2944
2740.92517205889	2906.5
2743.02757615072	2963.75
2745.12939380646	2914.75
2747.23062530411	2927
2749.33127092159	2945.25
2751.4313309367	2920.5
2753.53080562716	2968.25
2755.62969527058	2937.75
2757.72800014448	2935.5
2759.82572052625	2933.75
2761.92285669323	2965.75
2764.0194089226	2933
2766.11537749147	2949.25
2768.21076267686	2929.5
2770.30556475566	2888.25
2772.39978400465	2924
2774.49342070054	2908.25
2776.58647511991	2957.25
2778.67894753923	2940
2780.77083823487	2959
2782.8621474831	2937.25
2784.95287556007	2916.75
2787.04302274184	2949.75
2789.13258930433	2975
2791.22157552338	2932.5
2793.30998167471	2962.5
2795.39780803392	2971.5
2797.4850548765	2973.75
2799.57172247786	2942
2801.65781111324	2963.25
2803.74332105781	2902.75
2805.82825258661	2955.5
2807.91260597457	2927.5
2809.9963814965	2943.25
2812.07957942711	2944.5
2814.16220004096	2962.25
2816.24424361252	2988
2818.32571041614	2968.5
2820.40660072604	2962.25
2822.48691481631	3011.5
2824.56665296098	2993.75
2826.64581543388	2994.25
2828.72440250876	3042
2830.80241445925	3098.25
2832.87985155885	3102
2834.95671408093	3158.25
2837.03300229875	3211.25
2839.10871648544	3235
2841.18385691399	3259.75
2843.25842385729	3255
2845.33241758808	3217
2847.40583837898	3244.75
2849.4786865025	3224
2851.550962231	3232.5
2853.6226658367	3206.75
2855.69379759173	3223.75
2857.76435776806	3211
2859.83434663753	3276.75
2861.90376447184	3336.75
2863.97261154259	3444
2866.0408881212	3497.75
2868.10859447901	3533.5
2870.17573088717	3574
2872.24229761673	3527.25
2874.30829493859	3547.5
2876.37372312352	3545.5
2878.43858244215	3588.75
2880.50287316496	3609.5
2882.56659556231	3643.75
2884.62974990439	3624.5
2886.69233646129	3588.5
2888.75435550293	3579
2890.81580729909	3569
2892.87669211941	3510.25
2894.93701023339	3505.75
2896.99676191039	3456.5
2899.05594741961	3521.5
2901.1145670301	3515.75
2903.1726210108	3513.25
2905.23010963045	3561.25
2907.28703315768	3501.75
2909.34339186096	3512.75
2911.39918600861	3472.75
2913.45441586879	3440.5
2915.50908170952	3449.25
2917.56318379867	3477.5
2919.61672240395	3487.75
2921.66969779291	3473.75
2923.72211023295	3466.75
2925.77395999134	3462.5
2927.82524733515	3457
2929.87597253132	3388.5
2931.92613584663	3349.5
2933.97573754769	3331.25
2936.02477790097	3315.25
2938.07325717276	3263
2940.1211756292	3290
2942.16853353626	3296
2944.21533115976	3346.5
2946.26156876536	3349
2948.30724661853	3399.5
2950.3523649846	3409.25
2952.39692412872	3450.25
2954.44092431587	3475.75
2956.48436581089	3506.75
2958.52724887843	3582.5
2960.56957378296	3622.5
2962.6113407888	3626
2964.65255016011	3548.25
2966.69320216083	3525
2968.73329705479	3466.25
2970.77283510559	3409
2972.81181657671	3365
2974.8502417314	3322.75
2976.88811083279	3300.75
2978.92542414378	3278.5
2980.96218192713	3272.75
2982.99838444541	3261.5
2985.034031961	3232.75
2987.06912473612	3226.75
2989.1036630328	3221.75
2991.13764711288	3241
2993.17107723804	3209.5
2995.20395366974	3221.75
2997.23627666931	3216
2999.26804649782	3211
3001.29926341624	3247.25
3003.32992768528	3259
3005.3600395655	3229.25
3007.38959931726	3274.75
3009.41860720076	3294.25
3011.44706347595	3285.25
3013.47496840263	3240.75
3015.50232224041	3313.25
3017.5291252487	3268.25
3019.5553776867	3249
3021.58107981344	3292.75
3023.60623188773	3285
3025.63083416822	3291.25
3027.65488691331	3325.5
3029.67839038125	3324
3031.70134483007	3286
3033.72375051759	3316
3035.74560770144	3335.25
3037.76691663907	3350.25
3039.78767758768	3351.25
3041.80789080431	3318.25
3043.82755654577	3354.75
3045.84667506867	3373.75
3047.8652466294	3409
3049.88327148418	3437.25
3051.90074988899	3439.25
3053.91768209961	3458
3055.9340683716	3429.75
3057.94990896033	3415.25
3059.96520412095	3428.75
3061.97995410838	3405.75
3063.99415917734	3406.75
3066.00781958234	3402.75
3068.02093557766	3356.25
3070.03350741738	3356.5
3072.04553535535	3400
3074.05701964521	3381
3076.06796054036	3359
3078.078358294	3322
3080.08821315912	3343.25
3082.09752538846	3353.25
3084.10629523454	3328.5
3086.11452294967	3373.5
3088.12220878592	3344.25
3090.12935299515	3342
3092.13595582898	3374
3094.1420175388	3349.5
3096.14753837579	3343
3098.15251859088	3350.25
3100.15695843477	3354
3102.16085815793	3346.5
3104.16421801061	3355
3106.16703824282	3348.25
3108.16931910432	3401.5
3110.17106084464	3360.5
3112.17226371308	3398
3114.17292795872	3421.75
3116.17305383034	3421
3118.17264157657	3379
3120.17169144571	3422
3122.17020368587	3420.25
3124.16817854492	3421
3126.16561627044	3376
3128.16251710982	3427.75
3130.15888131017	3420.5
3132.15470911837	3454.5
3134.15000078104	3424
3136.14475654455	3464.25
3138.13897665502	3483.75
3140.13266135835	3444.5
3142.12581090014	3452
3144.11842552577	3473.25
3146.11050548036	3489.5
3148.10205100875	3470.75
3150.09306235557	3508
3152.08353976515	3449.5
3154.07348348158	3443.25
3156.06289374869	3524.25
3158.05177081006	3465.5
3160.04011490899	3501.25
3162.02792628852	3512
3164.01520519145	3466
3166.00195186029	3491.75
3167.98816653728	3482.5
3169.97384946442	3476
3171.95900088344	3489.75
3173.94362103577	3486.75
3175.92771016259	3483.75
3177.91126850484	3508
3179.89429630312	3521.5
3181.87679379782	3502.5
3183.85876122903	3507.75
3185.84019883657	3503
3187.82110685997	3498.5
3189.80148553851	3521.75
3191.78133511116	3524.75
3193.76065581664	3571.75
3195.73944789337	3552.5
3197.7177115795	3567.5
3199.6954471129	3569
3201.67265473114	3542.25
3203.64933467153	3532.5
3205.62548717107	3540.5
3207.60111246648	3572.75
3209.57621079421	3570.5
3211.55078239041	3563
3213.52482749093	3568.75
3215.49834633133	3595.75
3217.4713391469	3641.25
3219.44380617262	3598.25
3221.41574764317	3626.5
3223.38716379296	3596.25
3225.35805485607	3625.5
3227.32842106631	3630.75
3229.29826265718	3626.5
3231.26757986187	3637.5
3233.2363729133	3655.25
3235.20464204405	3687.75
3237.17238748643	3664.5
3239.13960947243	3667.75
3241.10630823374	3685.75
3243.07248400174	3672
3245.03813700748	3707.5
3247.00326748177	3681.5
3248.96787565503	3706.75
3250.93196175742	3702.5
3252.89552601877	3693.75
3254.8585686686	3707.5
3256.82108993612	3728.75
3258.78309005022	3691.25
3260.74456923948	3698
3262.70552773215	3734
3264.66596575617	3730.75
3266.62588353916	3741.75
3268.58528130843	3720.25
3270.54415929094	3712.5
3272.50251771336	3783.75
3274.46035680201	3735.25
3276.4176767829	3767.75
3278.37447788171	3735.75
3280.33076032379	3745
3282.28652433416	3776.25
3284.24177013751	3758.5
3286.1964979582	3778.75
3288.15070802027	3798.75
3290.10440054741	3760
3292.05757576298	3754
3294.01023389001	3779.25
3295.96237515119	3844.75
3297.91399976887	3803.25
3299.86510796506	3810.75
3301.81569996142	3810.75
3303.76577597932	3821.5
3305.7153362397	3800.75
3307.66438096324	3825
3309.61291037024	3809.25
3311.56092468064	3810.25
3313.50842411404	3782.5
3315.45540888971	3865.5
3317.40187922656	3788
3319.34783534315	3806
3321.29327745768	3830
3323.23820578801	3779.75
3325.18262055164	3784.5
3327.1265219657	3800.5
3329.06991024699	3814
3331.01278561194	3798.5
3332.95514827662	3820.5
3334.89699845674	3839.5
3336.83833636766	3801.25
3338.77916222434	3814
3340.71947624143	3834.25
3342.65927863317	3838.5
3344.59856961346	3864.5
3346.53734939584	3854.75
3348.47561819344	3849.75
3350.41337621906	3820
3352.35062368513	3818.75
3354.28736080368	3842.5
3356.22358778637	3848
3358.15930484452	3857.5
3360.09451218904	3849.5
3362.02921003047	3853
3363.96339857898	3870
3365.89707804436	3892.75
3367.83024863602	3897
3369.76291056299	3883.5
3371.69506403389	3843.75
3373.62670925699	3879.5
3375.55784644016	3884.25
3377.4884757909	3876
3379.41859751629	3877.5
3381.34821182305	3895.25
3383.27731891749	3922
3385.20591900555	3949.25
3387.13401229276	3927
3389.06159898426	3947.75
3390.9886792848	3956
3392.91525339872	3979
3394.84132152998	3962.25
3396.76688388213	3938
3398.69194065833	3936.25
3400.61649206133	3967.75
3402.54053829348	3968
3404.46407955672	3928.75
3406.3871160526	3923.75
3408.30964798225	3952.5
3410.23167554639	3952
3412.15319894535	3999
3414.07421837904	3963.75
3415.99473404695	3964.75
3417.91474614817	3932.75
3419.83425488136	3964.25
3421.75326044479	3974
3423.67176303631	3958.75
3425.58976285332	4023
3427.50726009282	3961
3429.42425495143	3956.75
3431.34074762528	3974.75
3433.25673831012	3947.5
3435.17222720127	3945
3437.08721449362	3979.25
3439.00170038164	3945.75
3440.91568505936	3949.5
3442.82916872039	3948
3444.74215155791	3969.25
3446.65463376468	3933.25
3448.566615533	3967.75
3450.47809705476	3928.75
3452.3890785214	3987
3454.29956012393	3963.75
3456.20954205293	3953.5
3458.11902449853	3910.5
3460.02800765041	3915.25
3461.93649169784	3921
3463.84447682962	3914.75
3465.75196323412	3947
3467.65895109925	3893.75
3469.56544061249	3951
3471.47143196086	3923
3473.37692533093	3886.5
3475.28192090884	3937.25
3477.18641888026	3939.25
3479.09041943039	3948.25
3480.99392274402	3922.25
3482.89692900545	3914.5
3484.79943839853	3928
3486.70145110666	3925.5
3488.60296731277	3886
3490.50398719933	3901.75
3492.40451094836	3846.25
3494.30453874141	3886
3496.20407075956	3883
3498.10310718342	3901.75
3500.00164819315	3848