201.866871357051	17243
204.754250281454	17545.5
207.640596790938	17265
210.525911876299	17512
213.410196525689	17508
216.293451724508	17630
219.175678455485	17591.5
222.056877698662	17706
224.937050431388	17682.5
227.816197628363	17964.5
230.694320261602	17849
233.571419300504	17914.5
236.447495711764	18029
239.322550459507	18270
242.196584505182	18342
245.069598807626	18252
247.941594323078	18371.5
250.812572005154	18597.5
253.682532804884	18457.5
256.551477670699	18690.5
259.419407548456	18673.5
262.286323381439	18697.5
265.152226110364	18889.5
268.017116673389	18888
270.880996006115	18870.5
273.743865041622	18951.5
276.605724710436	19084
279.466575940562	19102
282.326419657496	19368.5
285.1852567842	19297.5
288.043088241157	19458
290.899914946349	19515.5
293.75573781526	19569.5
296.610557760898	19588
299.464375693817	19687
302.317192522078	19710.5
305.169009151297	19757
308.019826484655	19819.5
310.86964542287	19820.5
313.718466864233	19845.5
316.566291704614	19814
319.413120837457	19964
322.258955153804	19975.5
325.103795542291	19831
327.947642889128	20072
330.79049807819	20039
333.632361990927	20098.5
336.473235506444	20187
339.31311950145	20174
342.152014850322	20331.5
344.989922425062	20554.5
347.826843095354	20755
350.662777728528	20724
353.497727189577	20896
356.331692341195	20954
359.164674043732	21125
361.996673155267	21030.5
364.827690531536	21321.5
367.65772702602	21447.5
370.486783489887	21271.5
373.314860772047	21457.5
376.14195971912	21301
378.968081175466	21407
381.793225983212	21469.5
384.617394982201	21523
387.44058901005	21655.5
390.262808902131	21563
393.08405549161	21624
395.904329609395	21600
398.723632084213	21611
401.541963742569	21684.5
404.359325408779	21747
407.175717904938	21773
409.991142050982	21774
412.805598664665	21838
415.619088561551	22091.5
418.43161255505	22078
421.243171456415	21988.5
424.053766074758	22245.5
426.863397217017	22355.5
429.672065688024	22447.5
432.479772290455	22572
435.286517824879	22625.5
438.092303089736	22569
440.897128881359	22854
443.70099599399	22742
446.503905219761	22838
449.305857348711	22551.5
452.106853168796	22672.5
454.906893465919	22721
457.705979023885	22707
460.504110624439	22835.5
463.3012890473	22732.5
466.097515070087	22862
468.892789468424	22659
471.687113015869	22861
474.48048648395	22868
477.272910642198	22983.5
480.064386258109	22966
482.854914097159	23116
485.644494922839	23214.5
488.433129496636	23317.5
491.220818578047	23290
494.007562924584	23541.5
496.793363291785	23648
499.578220433217	23631
502.362135100473	23796
505.145108043209	23864
507.927140009098	23886.5
510.708231743909	23824.5
513.488383991433	24013.5
516.267597493556	24105.5
519.04587299022	24069.5
521.82321121946	24156.5
524.599612917398	24217
527.375078818233	24329.5
530.149609654287	24052.5
532.923206155967	24154.5
535.695869051804	24234.5
538.467599068448	24171
541.238396930665	24221.5
544.008263361364	24071
546.777199081578	23966.5
549.545204810493	24112
552.312281265436	24060
555.078429161898	24269
557.843649213533	24230
560.607942132156	24329
563.371308627753	24366.5
566.133749408495	24532
568.895265180756	24786.5
571.655856649064	24681
574.415524516189	24814.5
577.174269483075	25023.5
579.932092248884	24922.5
582.688993510994	25156.5
585.444973965023	25035
588.200034304795	25129
590.95417522237	25265
593.70739740807	25192.5
596.459701550433	25305.5
599.21108833628	25228.5
601.961558450668	25281
604.711112576933	25260.5
607.459751396673	25277.5
610.207475589748	25225
612.954285834338	25275.5
615.700182806879	25170.5
618.445167182101	25261
621.189239633055	25102
623.932400831087	25012
626.674651445839	25045.5
629.415992145303	25039
632.156423595745	25062
634.895946461813	24890.5
637.634561406449	25046.5
640.37226909096	25247.5
643.109070174978	25265
645.844965316508	25473
648.579955171888	25363.5
651.314040395846	25351.5
654.047221641456	25436
656.779499560176	25528
659.510874801828	25391
662.241348014642	25575
664.97091984524	25710
667.699590938606	25791.5
670.427361938164	25823
673.15423348573	25779
675.880206221526	25934
678.605280784206	26101
681.329457810829	26200
684.05273793692	26160.5
686.775121796389	26323.5
689.49661002163	26013
692.217203243454	26033
694.936902091144	26089.5
697.655707192425	25847
700.373619173493	26006
703.09063865901	25852
705.806766272093	25913.5
708.522002634378	26029.5
711.236348365946	25821
713.94980408538	25878.5
716.662370409762	25831
719.374047954676	26074.5
722.08483733419	25764
724.794739160909	26014.5
727.503754045949	26145
730.21188259892	26228.5
732.919125427998	26299
735.625483139855	26293
738.330956339723	26429.5
741.035545631374	26241
743.739251617106	26444.5
746.44207489779	26538.5
749.144016072852	26723
751.845075740272	26678.5
754.545254496603	26743
757.244552936976	26768.5
759.94297165508	26671.5
762.640511243222	26647
765.337172292249	26767.5
768.032955391649	26693
770.727861129482	26964
773.421890092413	26838.5
776.11504286572	26978
778.807320033298	26765
781.49872217765	26653
784.18924987991	26555.5
786.87890371984	26421.5
789.567684275826	26668
792.255592124908	26697.5
794.94262784276	26447
797.628792003703	26636
800.314085180715	26349.5
802.998507945427	26754
805.682060868145	26598.5
808.364744517821	26621
811.046559462105	26762.5
813.727506267311	26789.5
816.407585498422	26854.5
819.08679771913	26835.5
821.765143491822	27090
824.442623377563	27016.5
827.119237936127	27263
829.794987726003	27231.5
832.469873304377	27235.5
835.143895227167	27245.5
837.817054048985	27217.5
840.489350323205	27388.5
843.160784601892	27500
845.831357435894	27544
848.501069374739	27484.5
851.169920966753	27556.5
853.837912758987	27558.5
856.505045297232	27659
859.171319126071	27835.5
861.836734788823	27598.5
864.501292827579	27804
867.164993783208	27688
869.827838195361	27607.5
872.489826602454	27674
875.150959541701	27814
877.811237549104	27421.5
880.470661159456	27926.5
883.129230906357	27489
885.786947322205	27170.5
888.443810938206	27690.5
891.099822284385	27456
893.754981889586	27562.5
896.409290281452	27538
899.062747986485	27767.5
901.715355529999	27949.5
904.367113436154	27800.5
907.01802222793	27838.5
909.668082427172	27774.5
912.317294554574	27718.5
914.965659129659	27902.5
917.613176670835	27993
920.259847695364	28248
922.90567271936	28093
925.550652257825	28130.5
928.194786824621	28173.5
930.838076932512	28287.5
933.480523093109	28202
936.122125816953	28308
938.762885613447	28552.5
941.402802990899	28372.5
944.041878456523	28559
946.680112516428	28506
949.31750567563	28510.5
951.954058438081	28727
954.589771306633	28667.5
957.224644783048	28875.5
959.858679368044	28751
962.491875561238	28606
965.12423386121	28526
967.75575476545	28681.5
970.386438770423	28712
973.016286371501	28675
975.645298063046	28645.5
978.273474338355	28702.5
980.900815689674	28732.5
983.527322608243	28701
986.152995584245	28763
988.777835106834	28820
991.401841664148	28826.5
994.025015743307	28836
996.647357830407	28757.5
999.268868410534	29009
1001.88954796777	29129.5
1004.50939698518	29260.5
1007.12841594484	29196.5
1009.74660532783	29297.5
1012.36396561423	29509.5
1014.98049728314	29328.5
1017.59620081267	29256.5
1020.21107667995	29290.5
1022.82512536112	29442
1025.43834733138	29513.5
1028.05074306493	29718.5
1030.66231303501	29595.5
1033.27305771392	29719.5
1035.88297757299	29702
1038.49207308257	29560
1041.10034471211	29470.5
1043.70779293008	29785.5
1046.31441820402	29864
1048.92022100052	29868.5
1051.52520178525	29993
1054.12936102295	29971
1056.73269917742	29958.5
1059.33521671154	29975
1061.93691408729	30065.5
1064.53779176571	30082.5
1067.13785020694	29920.5
1069.73708987022	29941
1072.33551121386	30169
1074.93311469528	29792.5
1077.52990077103	29915
1080.12586989674	29804.5
1082.72102252714	30090.5
1085.31535911611	30121.5
1087.90888011663	30209
1090.50158598078	30273
1093.09347715979	30447
1095.68455410403	30385.5
1098.27481726296	30515
1100.86426708523	30453
1103.45290401857	30774
1106.04072850991	31060.5
1108.6277410053	31046
1111.21394194993	30933.5
1113.79933178816	31368
1116.3839109635	31693.5
1118.96767991862	31836
1121.55063909539	31845
1124.13278893477	31938.5
1126.71412987696	31833.5
1129.29466236132	31700.5
1131.87438682637	31813
1134.45330370982	31598.5
1137.03141344858	31573.5
1139.60871647872	31350
1142.18521323554	31405
1144.7609041535	31445.5
1147.33578966629	31412
1149.90987020676	31564.5
1152.48314620702	31481.5
1155.05561809835	31144.5
1157.62728631125	31444.5
1160.19815127545	31456
1162.76821341988	31416
1165.33747317271	31348
1167.90593096133	31468.5
1170.47358721235	31360
1173.04044235163	31437
1175.60649680425	31280.5
1178.17175099454	31340.5
1180.73620534607	31334
1183.29986028165	31050.5
1185.86271622336	31231
1188.42477359249	31465
1190.98603280964	31305.5
1193.54649429462	31283.5
1196.10615846653	31125
1198.66502574372	31154
1201.22309654385	31287
1203.78037128378	31356
1206.33685037971	31310
1208.89253424709	31252.5
1211.44742330063	30989.5
1214.00151795438	31164.5
1216.55481862163	31260.5
1219.10732571497	31289
1221.65903964631	31506
1224.20996082683	31280.5
1226.760089667	31280
1229.30942657664	31446
1231.85797196483	31604
1234.40572623998	31687.5
1236.95268980981	31754
1239.49886308136	31770.5
1242.04424646098	31897
1244.58884035435	32007.5
1247.13264516647	32200.5
1249.67566130166	32051
1252.21788916358	31949
1254.75932915524	32368
1257.29998167896	32444.5
1259.83984713639	32477
1262.37892592857	32525
1264.91721845586	32618
1267.45472511795	32677.5
1269.9914463139	32681
1272.52738244213	32877.5
1275.0625339004	32739.5
1277.59690108587	32944
1280.130484395	33237
1282.66328422367	32875.5
1285.19530096712	33005
1287.72653501993	33144.5
1290.25698677608	33109
1292.78665662894	33469
1295.31554497125	33308.5
1297.8436521951	33449
1300.37097869203	33259
1302.89752485292	33370.5
1305.42329106805	33352
1307.94827772713	33347.5
1310.47248521921	33572.5
1312.99591393279	33768
1315.51856425575	33659.5
1318.04043657536	33514
1320.56153127836	33900
1323.08184875083	34060.5
1325.6013893783	34026.5
1328.12015354572	34234.5
1330.63814163744	34285.5
1333.15535403727	34390.5
1335.67179112839	34677.5
1338.18745329347	34868
1340.70234091454	34927.5
1343.21645437314	34872
1345.72979405019	35122.5
1348.24236032607	34897.5
1350.75415358059	35372.5
1353.26517419303	35376.5
1355.7754225421	35293
1358.28489900594	35580
1360.79360396218	35801
1363.30153778787	35724
1365.80870085955	35699.5
1368.31509355319	35540
1370.82071624424	35581.5
1373.32556930762	35692.5
1375.8296531177	35517.5
1378.33296804832	35541.5
1380.83551447282	35485
1383.33729276399	35454.5
1385.83830329408	35306
1388.33854643489	35381.5
1390.83802255762	35217.5
1393.33673203301	35195.5
1395.83467523128	35182.5
1398.33185252211	35013.5
1400.82826427471	35238.5
1403.32391085777	34979.5
1405.81879263947	35281
1408.31290998752	35398.5
1410.80626326908	34992.5
1413.29885285087	35008
1415.79067909909	35335.5
1418.28174237944	35287
1420.77204305717	35412
1423.26158149702	35538
1425.75035806323	35678
1428.2383731196	35637.5
1430.72562702942	35696
1433.21212015554	35924.5
1435.69785286028	36234
1438.18282550555	36736.5
1440.66703845275	36653
1443.15049206284	36690.5
1445.6331866963	36943
1448.11512271316	36854
1450.59630047298	37103
1453.07672033486	37113
1455.55638265748	37222.5
1458.03528779902	37357
1460.51343611725	37373
1462.99082796946	37547.5
1465.46746371252	37487
1467.94334370285	37738.5
1470.41846829642	37600
1472.89283784878	37771
1475.36645271503	37979.5
1477.83931324983	37853.5
1480.31141980743	38004
1482.78277274164	38055
1485.25337240583	38052
1487.72321915297	37861
1490.19231333557	38216.5
1492.66065530578	38306
1495.12824541525	38486.5
1497.5950840153	38516
1500.06117145678	38410
1502.52650809014	38603
1504.99109426543	38523
1507.45493033227	38921.5
1509.91801663992	38699
1512.38035353717	38845
1514.84194137248	38841.5
1517.30278049386	38926.5
1519.76287124894	38763.5
1522.22221398497	38337
1524.68080904876	38475
1527.13865678681	38182
1529.59575754514	38797
1532.05211166945	38948.5
1534.50771950503	38573
1536.96258139678	38839
1539.41669768924	38957
1541.87006872656	38916
1544.32269485252	39123
1546.77457641051	39198.5
1549.22571374357	39608
1551.67610719434	39592.5
1554.12575710513	39642.5
1556.57466381785	39637
1559.02282767408	39943.5
1561.47024901499	40114.5
1563.91692818144	40121
1566.3628655139	40346.5
1568.80806135249	40480.5
1571.252516037	40477.5
1573.6962299068	40883.5
1576.13920330099	40706
1578.58143655828	40962.5
1581.02293001704	41268.5
1583.46368401528	41177.5
1585.90369889071	41291.5
1588.34297498065	41343
1590.7815126221	41245
1593.21931215173	41543
1595.65637390588	41280
1598.09269822053	41227
1600.52828543135	41507
1602.96313587367	41388.5
1605.3972498825	41231
1607.83062779252	41026
1610.26326993808	41453.5
1612.69517665322	41585
1615.12634827165	41682.5
1617.55678512676	41375
1619.98648755163	41234
1622.41545587902	41366.5
1624.84369044138	41231.5
1627.27119157085	41548.5
1629.69795959924	41402.5
1632.12399485808	41516
1634.54929767859	41504
1636.97386839165	41559.5
1639.39770732789	41764
1641.8208148176	41908.5
1644.24319119078	41832.5
1646.66483677715	41829
1649.0857519061	42078
1651.50593690677	42343
1653.92539210795	42469
1656.3441178382	42099.5
1658.76211442575	42453
1661.17938219855	42583.5
1663.59592148428	43064.5
1666.01173261032	43022.5
1668.42681590377	43492.5
1670.84117169145	43508.5
1673.25480029991	43322
1675.66770205541	43773.5
1678.07987728393	43819
1680.49132631119	44105.5
1682.90204946263	44128
1685.31204706342	44217.5
1687.72131943846	44482.5
1690.1298669124	44730
1692.53768980957	44932
1694.94478845411	44721.5
1697.35116316982	44932.5
1699.75681428031	44897
1702.16174210887	44876
1704.56594697858	44954.5
1706.96942921222	45407.5
1709.37218913235	45317.5
1711.77422706125	45193
1714.17554332098	45021.5
1716.5761382333	45361
1718.97601211977	44918
1721.37516530169	45043
1723.77359810006	45083
1726.17131083572	44889.5
1728.56830382922	45252
1730.96457740087	45280
1733.36013187075	44895
1735.75496755868	45151.5
1738.14908478428	45282
1740.54248386689	45215.5
1742.93516512565	45250.5
1745.32712887946	45381.5
1747.71837544697	45180
1750.10890514662	45503.5
1752.49871829661	45442.5
1754.88781521492	45857.5
1757.27619621929	45872
1759.66386162726	45670
1762.05081175612	46041.5
1764.43704692297	46046.5
1766.82256744465	45924
1769.20737363782	46274.5
1771.59146581887	45952
1773.97484430405	46478.5
1776.35750940932	46460
1778.73946145048	46621.5
1781.12070074309	46489.5
1783.50122760249	46759
1785.88104234385	47223.5
1788.26014528209	47327
1790.63853673196	47182.5
1793.01621700796	47214.5
1795.39318642443	47701.5
1797.76944529549	47688
1800.14499393503	47712
1802.51983265681	47370
1804.8939617743	48032.5
1807.26738160085	48235
1809.64009244957	47894.5
1812.01209463339	48043.5
1814.38338846504	48371.5
1816.75397425706	48036.5
1819.12385232181	48231.5
1821.49302297142	48596
1823.86148651789	48252.5
1826.22924327299	48053.5
1828.59629354831	48662
1830.96263765526	48299
1833.32827590507	48332
1835.69320860877	48643
1838.05743607724	48426.5
1840.42095862113	48286
1842.78377655097	48597
1845.14589017707	48464
1847.50729980956	48477.5
1849.86800575843	48715.5
1852.22800833346	48531.5
1854.58730784427	48924
1856.94590460032	48974.5
1859.30379891087	49175
1861.66099108503	48990
1864.01748143175	49576.5
1866.37327025978	49594.5
1868.72835787773	49479.5
1871.08274459403	49603.5
1873.43643071697	49684.5
1875.78941655464	50198.5
1878.14170241498	49943.5
1880.4932886058	50310.5
1882.84417543469	50538.5
1885.19436320915	50608
1887.54385223646	50549
1889.89264282378	51072
1892.24073527809	51203.5
1894.58812990625	51246
1896.93482701493	51821
1899.28082691067	51943
1901.62612989984	52155.5
1903.97073628868	52075.5
1906.31464638326	52485.5
1908.6578604895	52228.5
1911.00037891321	53036.5
1913.34220196	53133.5
1915.68332993537	53035
1918.02376314468	53283
1920.36350189311	52966
1922.70254648573	53134
1925.04089722744	52974.5
1927.37855442303	52977.5
1929.71551837715	53154.5
1932.05178939426	53396.5
1934.38736777876	53296
1936.72225383484	53211
1939.0564478666	53754.5
1941.38995017799	53379.5
1943.72276107283	53603.5
1946.05488085479	53469
1948.38630982744	53365
1950.71704829419	53436.5
1953.04709655832	53383
1955.376454923	53471
1957.70512369126	53396
1960.03310316599	53716
1962.36039364999	53274
1964.68699544589	53467
1967.01290885622	53623.5
1969.33813418338	53496.5
1971.66267172965	53687
1973.98652179718	53664
1976.309684688	53714
1978.63216070402	53663.5
1980.95395014705	54104
1983.27505331873	53807
1985.59547052063	53897
1987.9152020542	54025.5
1990.23424822074	53981.5
1992.55260932146	53826.5
1994.87028565746	54134.5
1997.18727752968	54196.5
1999.503585239	54264
2001.81920908618	54251
2004.13414937184	54487
2006.44840639651	54688.5
2008.7619804606	54753
2011.07487186442	54733
2013.38708090815	55072
2015.6986078919	54861
2018.00945311564	55016
2020.31961687923	54967
2022.62909948246	55167.5
2024.93790122498	55195.5
2027.24602240636	55233.5
2029.55346332604	55304.5
2031.86022428337	55359
2034.16630557761	55317.5
2036.47170750791	55547
2038.77643037331	55457.5
2041.08047447275	55654
2043.38384010509	55526
2045.68652756907	55701
2047.98853716335	55852.5
2050.28986918648	55680
2052.59052393692	56005.5
2054.89050171302	55995
2057.18980281306	55921
2059.4884275352	56047
2061.78637617753	55826.5
2064.08364903802	55907
2066.38024641457	55907.5
2068.67616860497	55901.5
2070.97141590694	55747
2073.26598861809	55969
2075.55988703595	55749.5
2077.85311145796	55940.5
2080.14566218145	56042.5
2082.43753950371	56010
2084.72874372188	55969
2087.01927513307	56065.5
2089.30913403428	56105
2091.59832072241	56011
2093.88683549429	55914.5
2096.17467864666	56208
2098.46185047619	56317
2100.74835127944	56389.5
2103.03418135292	56539.5
2105.31934099303	56186
2107.6038304961	56604.5
2109.88765015838	56515.5
2112.17080027602	56617
2114.45328114513	56691
2116.7350930617	56725
2119.01623632165	56731.5
2121.29671122085	56689.5
2123.57651805505	56746
2125.85565711996	56935.5
2128.13412871117	56808
2130.41193312424	57128.5
2132.68907065462	57116.5
2134.96554159771	57167
2137.24134624881	57072
2139.51648490317	57262
2141.79095785593	57334.5
2144.0647654022	57496
2146.33790783698	57527
2148.61038545524	57245.5
2150.88219855182	57631.5
2153.15334742154	57734.5
2155.42383235911	57855
2157.6936536592	57891
2159.9628116164	57851.5
2162.23130652522	57795
2164.49913868011	57855
2166.76630837544	58018.5
2169.03281590552	58069
2171.2986615646	57998
2173.56384564685	58000
2175.82836844637	57935
2178.0922302572	58072
2180.35543137332	58175.5
2182.61797208862	58211
2184.87985269695	58057.5
2187.14107349208	58196.5
2189.40163476773	58304
2191.66153681753	58217
2193.92077993507	58110.5
2196.17936441386	58317
2198.43729054735	58452.5
2200.69455862894	58346.5
2202.95116895194	58387
2205.20712180962	58460.5
2207.46241749519	58416.5
2209.71705630179	58453
2211.97103852248	58579.5
2214.2243644503	58521
2216.47703437819	58750
2218.72904859905	58573.5
2220.98040740571	58873
2223.23111109095	58742.5
2225.4811599475	58600.5
2227.73055426799	58843
2229.97929434504	58804
2232.22738047118	58802
2234.47481293889	58914.5
2236.72159204058	59175
2238.96771806864	59072
2241.21319131536	58917
2243.458012073	58875
2245.70218063374	59224.5
2247.94569728973	59111
2250.18856233304	59127.5
2252.4307760557	58962.5
2254.67233874967	59209.5
2256.91325070687	59292
2259.15351221915	59118
2261.39312357831	59186.5
2263.63208507611	59060.5
2265.87039700422	59267
2268.1080596543	59452
2270.34507331792	59213
2272.5814382866	59363
2274.81715485183	59577
2277.05222330502	59533
2279.28664393755	59460.5
2281.52041704072	59251.5
2283.75354290581	59528.5
2285.98602182401	59478.5
2288.21785408648	59539.5
2290.44903998434	59620
2292.67957980862	59733.5
2294.90947385033	59632.5
2297.1387224004	59686.5
2299.36732574975	59791.5
2301.59528418921	59819
2303.82259800958	60045.5
2306.04926750158	59672
2308.27529295593	59976
2310.50067466325	59940.5
2312.72541291412	60082
2314.9495079991	59922.5
2317.17296020866	59955
2319.39576983323	60085
2321.61793716322	60025.5
2323.83946248894	60043.5
2326.06034610069	60088.5
2328.28058828871	60090
2330.50018934317	59988
2332.7191495542	59955
2334.93746921192	60133
2337.15514860633	60001
2339.37218802743	60126.5
2341.58858776516	60061.5
2343.80434810941	60108.5
2346.01946935001	60222.5
2348.23395177675	60186.5
2350.44779567939	60230
2352.66100134759	60142
2354.87356907101	60243.5
2357.08549913925	60134
2359.29679184185	60117.5
2361.50744746829	60529.5
2363.71746630804	60304.5
2365.92684865048	60107
2368.13559478499	60202.5
2370.34370500083	60343
2372.55117958727	60111.5
2374.75801883352	60230.5
2376.96422302874	60043
2379.16979246202	60189.5
2381.37472742243	59924.5
2383.57902819898	60035.5
2385.78269508063	60029
2387.98572835629	60018.5
2390.18812831482	60094
2392.38989524505	60230.5
2394.59102943573	60225
2396.79153117559	60066
2398.9914007533	60286.5
2401.19063845748	60115.5
2403.38924457672	60090.5
2405.58721939951	59997.5
2407.78456321435	59979
2409.98127630966	60001
2412.17735897382	60127
2414.37281149517	60094.5
2416.56763416198	60245.5
2418.76182726249	60225
2420.95539108487	60050
2423.14832591726	60128.5
2425.34063204776	59864.5
2427.53230976439	59866
2429.72335935513	60234.5
2431.91378110795	60047
2434.10357531071	59972.5
2436.29274225125	60188
2438.48128221739	59828
2440.66919549683	59765
2442.8564823773	59917.5
2445.04314314641	59976.5
2447.22917809176	60083.5
2449.4145875009	60070
2451.59937166131	59854
2453.78353086044	60102
2455.96706538568	60060.5
2458.14997552436	59945.5
2460.33226156379	59988.5
2462.51392379119	59921.5
2464.69496249376	59776
2466.87537795862	59781.5
2469.05517047288	59681
2471.23434032357	59823.5
2473.41288779767	60010.5
2475.59081318211	59856.5
2477.76811676378	59727.5
2479.9447988295	59655.5
2482.12085966605	59604
2484.29629956016	59565
2486.4711187985	59800
2488.64531766769	59788
2490.8188964543	59799
2492.99185544484	59710.5
2495.16419492579	59690
2497.33591518353	59681.5
2499.50701650444	59732
2501.67749917482	60028
2503.84736348091	59782
2506.01660970891	59747.5
2508.18523814496	59795
2510.35324907514	59967
2512.52064278551	59950
2514.68741956201	59721.5
2516.85357969058	60309
2519.01912345709	60126.5
2521.18405114735	59965.5
2523.34836304711	59935
2525.51205944208	60191.5
2527.6751406179	59861
2529.83760686016	60038
2531.99945845439	60052.5
2534.16069568606	60117.5
2536.3213188406	60225
2538.48132820336	60036.5
2540.64072405965	60283
2542.79950669471	60038.5
2544.95767639373	60401
2547.11523344184	60205.5
2549.27217812411	60193.5
2551.42851072555	60188
2553.58423153111	60178
2555.73934082569	60139.5
2557.89383889412	60136.5
2560.04772602118	60237
2562.20100249158	60032
2564.35366858996	59944
2566.50572460093	59799
2568.65717080901	59902
2570.80800749867	59968
2572.95823495433	59888.5
2575.10785346031	59902.5
2577.25686330093	59690.5
2579.40526476038	59701.5
2581.55305812282	59848
2583.70024367237	59601.5
2585.84682169303	59624.5
2587.99279246879	59507.5
2590.13815628354	59583.5
2592.28291342112	59550
2594.42706416531	59640.5
2596.5706087998	59613.5
2598.71354760826	59856
2600.85588087425	59701
2602.99760888127	59801.5
2605.13873191278	59645
2607.27925025214	59531.5
2609.41916418269	59806
2611.55847398764	59619
2613.69717995017	59640.5
2615.83528235339	59993.5
2617.97278148034	59994
2620.10967761398	59895
2622.2459710372	59833
2624.38166203284	59749
2626.51675088365	59839.5
2628.65123787231	59584.5
2630.78512328145	59850.5
2632.9184073936	59653
2635.05109049124	59822.5
2637.18317285676	59785
2639.31465477248	59763.5
2641.44553652067	59759.5
2643.5758183835	59765
2645.70550064309	59934.5
2647.83458358144	59862
2649.96306748053	59970.5
2652.09095262223	59934.5
2654.21823928836	60000.5
2656.34492776063	59682.5
2658.47101832071	59834.5
2660.59651125015	60021
2662.72140683047	59971.5
2664.84570534309	59949.5
2666.96940706934	59922.5
2669.0925122905	59690.5
2671.21502128773	59966
2673.33693434215	59957.5
2675.45825173479	60108
2677.57897374658	59856
2679.69910065839	60118
2681.818632751	59888.5
2683.93757030511	60013.5
2686.05591360133	59810
2688.17366292021	59731
2690.29081854218	59860.5
2692.40738074762	59640
2694.52334981681	59945
2696.63872602995	59732
2698.75350966713	59886.5
2700.86770100841	59809.5
2702.98130033371	59730
2705.09430792289	59763
2707.20672405571	59835.5
2709.31854901185	60039.5
2711.42978307091	59944
2713.54042651238	59872.5
2715.65047961567	60086
2717.7599426601	59840.5
2719.86881592491	59878.5
2721.97709968924	60109.5
2724.08479423213	59839
2726.19189983255	59985.5
2728.29841676934	59804
2730.4043453213	60011.5
2732.5096857671	60086
2734.61443838532	60137.5
2736.71860345444	59936.5
2738.82218125286	60011.5
2740.92517205889	60150
2743.02757615072	60109.5
2745.12939380646	60048
2747.23062530411	60215
2749.33127092159	60348.5
2751.4313309367	60058
2753.53080562716	60325
2755.62969527058	60453
2757.72800014448	60226.5
2759.82572052625	60278
2761.92285669323	60017
2764.0194089226	60218.5
2766.11537749147	60382
2768.21076267686	60317
2770.30556475566	60241
2772.39978400465	60368.5
2774.49342070054	60164.5
2776.58647511991	60392
2778.67894753923	60270.5
2780.77083823487	60356.5
2782.8621474831	60226
2784.95287556007	60221
2787.04302274184	60197.5
2789.13258930433	60406.5
2791.22157552338	60127.5
2793.30998167471	60099
2795.39780803392	60409
2797.4850548765	60285.5
2799.57172247786	60161.5
2801.65781111324	60208
2803.74332105781	60340.5
2805.82825258661	60232
2807.91260597457	60230
2809.9963814965	60194.5
2812.07957942711	60198.5
2814.16220004096	60164
2816.24424361252	60105
2818.32571041614	60318
2820.40660072604	60145
2822.48691481631	60481
2824.56665296098	60278.5
2826.64581543388	60270.5
2828.72440250876	60445
2830.80241445925	60407.5
2832.87985155885	60389.5
2834.95671408093	60560
2837.03300229875	60533
2839.10871648544	60452.5
2841.18385691399	60769
2843.25842385729	60682.5
2845.33241758808	60495
2847.40583837898	60613
2849.4786865025	60935
2851.550962231	60874
2853.6226658367	60938.5
2855.69379759173	61054
2857.76435776806	61075.5
2859.83434663753	60967
2861.90376447184	60927.5
2863.97261154259	61051
2866.0408881212	61118
2868.10859447901	61001.5
2870.17573088717	61294
2872.24229761673	61165
2874.30829493859	61225.5
2876.37372312352	60976
2878.43858244215	61297.5
2880.50287316496	61299
2882.56659556231	61226
2884.62974990439	61363.5
2886.69233646129	61459
2888.75435550293	61360
2890.81580729909	61705.5
2892.87669211941	61416
2894.93701023339	61581.5
2896.99676191039	61466
2899.05594741961	61873.5
2901.1145670301	61615
2903.1726210108	61482.5
2905.23010963045	61733
2907.28703315768	61517
2909.34339186096	61880.5
2911.39918600861	62007.5
2913.45441586879	61693
2915.50908170952	61715.5
2917.56318379867	61717.5
2919.61672240395	62036
2921.66969779291	61940.5
2923.72211023295	62033
2925.77395999134	61677
2927.82524733515	61913
2929.87597253132	61799
2931.92613584663	61754.5
2933.97573754769	61643.5
2936.02477790097	61554
2938.07325717276	61419
2940.1211756292	61709.5
2942.16853353626	61587
2944.21533115976	61757
2946.26156876536	61419
2948.30724661853	61482.5
2950.3523649846	61590
2952.39692412872	61489
2954.44092431587	61512
2956.48436581089	61463
2958.52724887843	61412
2960.56957378296	61449.5
2962.6113407888	61525.5
2964.65255016011	61662.5
2966.69320216083	61581.5
2968.73329705479	61538
2970.77283510559	61504
2972.81181657671	61645.5
2974.8502417314	61634.5
2976.88811083279	61579
2978.92542414378	61506.5
2980.96218192713	61582.5
2982.99838444541	61639.5
2985.034031961	61804
2987.06912473612	61914.5
2989.1036630328	61722.5
2991.13764711288	61788.5
2993.17107723804	61807
2995.20395366974	61885
2997.23627666931	61944.5
2999.26804649782	62097.5
3001.29926341624	62261
3003.32992768528	62159.5
3005.3600395655	62312
3007.38959931726	62491
3009.41860720076	62530
3011.44706347595	62509
3013.47496840263	62482.5
3015.50232224041	62734
3017.5291252487	62964.5
3019.5553776867	62367.5
3021.58107981344	62915
3023.60623188773	62855
3025.63083416822	62889.5
3027.65488691331	62991.5
3029.67839038125	63088.5
3031.70134483007	62931.5
3033.72375051759	63173.5
3035.74560770144	63115.5
3037.76691663907	63160.5
3039.78767758768	63236.5
3041.80789080431	63185.5
3043.82755654577	63152
3045.84667506867	63079
3047.8652466294	63377.5
3049.88327148418	63453.5
3051.90074988899	63101.5
3053.91768209961	63206
3055.9340683716	62967
3057.94990896033	63109.5
3059.96520412095	63517.5
3061.97995410838	63214.5
3063.99415917734	63288
3066.00781958234	63106
3068.02093557766	63321.5
3070.03350741738	63049.5
3072.04553535535	63186.5
3074.05701964521	63266.5
3076.06796054036	63151
3078.078358294	63002
3080.08821315912	63259
3082.09752538846	63432
3084.10629523454	63032
3086.11452294967	63263
3088.12220878592	63184.5
3090.12935299515	63362.5
3092.13595582898	63274
3094.1420175388	63099.5
3096.14753837579	63199
3098.15251859088	63325.5
3100.15695843477	63356
3102.16085815793	63352
3104.16421801061	63158.5
3106.16703824282	63272.5
3108.16931910432	63358
3110.17106084464	63224.5
3112.17226371308	63523
3114.17292795872	63499
3116.17305383034	63756.5
3118.17264157657	63462.5
3120.17169144571	63577.5
3122.17020368587	63487.5
3124.16817854492	63590.5
3126.16561627044	63692
3128.16251710982	64086
3130.15888131017	63819.5
3132.15470911837	63917
3134.15000078104	64037
3136.14475654455	63881.5
3138.13897665502	64052
3140.13266135835	63965.5
3142.12581090014	63960.5
3144.11842552577	64162
3146.11050548036	64311.5
3148.10205100875	64194
3150.09306235557	64335.5
3152.08353976515	64206
3154.07348348158	64083
3156.06289374869	64282.5
3158.05177081006	64064.5
3160.04011490899	64289.5
3162.02792628852	64361.5
3164.01520519145	64143
3166.00195186029	64308.5
3167.98816653728	64350.5
3169.97384946442	64383.5
3171.95900088344	64275
3173.94362103577	64333.5
3175.92771016259	64277
3177.91126850484	64505
3179.89429630312	64324
3181.87679379782	64165
3183.85876122903	64464
3185.84019883657	64375.5
3187.82110685997	64483
3189.80148553851	64448
3191.78133511116	64507.5
3193.76065581664	64638.5
3195.73944789337	64609.5
3197.7177115795	64450.5
3199.6954471129	64653.5
3201.67265473114	64708.5
3203.64933467153	64496
3205.62548717107	64795.5
3207.60111246648	64738.5
3209.57621079421	64620
3211.55078239041	64839.5
3213.52482749093	64437.5
3215.49834633133	64971.5
3217.4713391469	65228
3219.44380617262	64845.5
3221.41574764317	65100.5
3223.38716379296	64843
3225.35805485607	65155
3227.32842106631	65176
3229.29826265718	65483
3231.26757986187	65374.5
3233.2363729133	65454.5
3235.20464204405	65368
3237.17238748643	65535
3239.13960947243	65458
3241.10630823374	65535
3243.07248400174	65535
3245.03813700748	65535
3247.00326748177	65535
3248.96787565503	65535
3250.93196175742	65535
3252.89552601877	65535
3254.8585686686	65535
3256.82108993612	65535
3258.78309005022	65535
3260.74456923948	65535
3262.70552773215	65535
3264.66596575617	65535
3266.62588353916	65535
3268.58528130843	65535
3270.54415929094	65535
3272.50251771336	65535
3274.46035680201	65535
3276.4176767829	65535
3278.37447788171	65535
3280.33076032379	65535
3282.28652433416	65535
3284.24177013751	65535
3286.1964979582	65535
3288.15070802027	65535
3290.10440054741	65535
3292.05757576298	65535
3294.01023389001	65535
3295.96237515119	65535
3297.91399976887	65535
3299.86510796506	65535
3301.81569996142	65535
3303.76577597932	65535
3305.7153362397	65535
3307.66438096324	65535
3309.61291037024	65535
3311.56092468064	65535
3313.50842411404	65535
3315.45540888971	65535
3317.40187922656	65535
3319.34783534315	65535
3321.29327745768	65535
3323.23820578801	65535
3325.18262055164	65535
3327.1265219657	65535
3329.06991024699	65535
3331.01278561194	65535
3332.95514827662	65535
3334.89699845674	65535
3336.83833636766	65535
3338.77916222434	65535
3340.71947624143	65535
3342.65927863317	65535
3344.59856961346	65535
3346.53734939584	65535
3348.47561819344	65535
3350.41337621906	65535
3352.35062368513	65535
3354.28736080368	65535
3356.22358778637	65535
3358.15930484452	65535
3360.09451218904	65535
3362.02921003047	65535
3363.96339857898	65535
3365.89707804436	65535
3367.83024863602	65535
3369.76291056299	65535
3371.69506403389	65535
3373.62670925699	65535
3375.55784644016	65535
3377.4884757909	65535
3379.41859751629	65535
3381.34821182305	65535
3383.27731891749	65535
3385.20591900555	65535
3387.13401229276	65535
3389.06159898426	65535
3390.9886792848	65535
3392.91525339872	65535
3394.84132152998	65535
3396.76688388213	65535
3398.69194065833	65535
3400.61649206133	65535
3402.54053829348	65535
3404.46407955672	65535
3406.3871160526	65535
3408.30964798225	65535
3410.23167554639	65535
3412.15319894535	65535
3414.07421837904	65535
3415.99473404695	65535
3417.91474614817	65535
3419.83425488136	65535
3421.75326044479	65535
3423.67176303631	65535
3425.58976285332	65535
3427.50726009282	65535
3429.42425495143	65535
3431.34074762528	65535
3433.25673831012	65535
3435.17222720127	65535
3437.08721449362	65535
3439.00170038164	65535
3440.91568505936	65535
3442.82916872039	65535
3444.74215155791	65535
3446.65463376468	65535
3448.566615533	65535
3450.47809705476	65535
3452.3890785214	65535
3454.29956012393	65535
3456.20954205293	65535
3458.11902449853	65535
3460.02800765041	65535
3461.93649169784	65535
3463.84447682962	65535
3465.75196323412	65535
3467.65895109925	65535
3469.56544061249	65535
3471.47143196086	65535
3473.37692533093	65535
3475.28192090884	65535
3477.18641888026	65535
3479.09041943039	65535
3480.99392274402	65535
3482.89692900545	65535
3484.79943839853	65535
3486.70145110666	65535
3488.60296731277	65535
3490.50398719933	65535
3492.40451094836	65535
3494.30453874141	65535
3496.20407075956	65535
3498.10310718342	65535
3500.00164819315	65535