200.090469251518	1175
202.974751419362	1169
205.858021632263	1183
208.740280737522	1191
211.621529580443	1185
214.501769004371	1190
217.380999850626	1175
220.25922295859	1189
223.136439165646	1165
226.012649307235	1195
228.88785421682	1220
231.762054725918	1196
234.635251664113	1196
237.507445859021	1220
240.378638136346	1242
243.248829319855	1256
246.11802023137	1268
248.986211690826	1287
251.853404516227	1270
254.719599523654	1270
257.584797527335	1223
260.44899933954	1251
263.312205770682	1256
266.174417629303	1229
269.035635722015	1241
271.895860853609	1221
274.755093826978	1191
277.613335443144	1274
280.470586501309	1242
283.326847798766	1237
286.182120131019	1243
289.036404291684	1234
291.889701072574	1234
294.742011263643	1262
297.593335653048	1260
300.443675027094	1239
303.293030170295	1227
306.141401865367	1262
308.988790893174	1214
311.835198032837	1286
314.680624061635	1289
317.525069755113	1278
320.36853588697	1258
323.211023229178	1312
326.052532551923	1277
328.893064623604	1261
331.732620210885	1257
334.57120007867	1297
337.408804990093	1272
340.245435706565	1300
343.081092987733	1254
345.915777591523	1263
348.749490274145	1268
351.582231790049	1271
354.414002891997	1251
357.244804331021	1279
360.074636856443	1300
362.903501215886	1299
365.731398155265	1280
368.558328418814	1321
371.384292749062	1295
374.209291886869	1294
377.033326571407	1315
379.85639754017	1299
382.678505529009	1322
385.499651272065	1308
388.319835501872	1355
391.139058949258	1391
393.957322343453	1465
396.774626412011	1490
399.590971880847	1492
402.406359474258	1439
405.220789914893	1378
408.034263923801	1335
410.8467822204	1353
413.658345522483	1329
416.468954546242	1355
419.278610006277	1323
422.087312615557	1321
424.895063085503	1350
427.701862125901	1341
430.507710444981	1337
433.312608749366	1366
436.116557744146	1343
438.919558132791	1343
441.721610617238	1369
444.522715897856	1374
447.322874673457	1401
450.122087641299	1419
452.920355497092	1447
455.717678935009	1395
458.514058647681	1399
461.309495326219	1377
464.103989660191	1363
466.89754233765	1338
469.690154045114	1371
472.481825467625	1317
475.272557288674	1343
478.062350190281	1333
480.851204852952	1343
483.639121955683	1337
486.426102176007	1377
489.212146189955	1385
491.997254672093	1361
494.781428295471	1373
497.564667731716	1357
500.346973650958	1359
503.128346721878	1393
505.90878761169	1328
508.688296986151	1369
511.46687550957	1403
514.244523844831	1403
517.021242653354	1376
519.797032595132	1411
522.571894328732	1449
525.345828511279	1458
528.11883579849	1406
530.890916844655	1428
533.662072302668	1407
536.432302823985	1421
539.201609058684	1421
541.96999165542	1369
544.737451261473	1374
547.503988522723	1392
550.26960408366	1392
553.034298587394	1367
555.798072675669	1387
558.560926988819	1391
561.322862165849	1389
564.083878844369	1395
566.843977660654	1405
569.603159249604	1391
572.361424244769	1383
575.118773278369	1361
577.87520698124	1402
580.630725982905	1442
583.385330911566	1418
586.139022394076	1392
588.891801055954	1375
591.643667521406	1442
594.394622413318	1411
597.144666353273	1415
599.893799961512	1402
602.64202385701	1455
605.389338657413	1425
608.135744979089	1385
610.881243437092	1423
613.625834645191	1402
616.369519215881	1424
619.112297760374	1413
621.854170888604	1429
624.595139209225	1413
627.335203329614	1403
630.074363855914	1465
632.81262139299	1411
635.549976544436	1392
638.286429912612	1445
641.021982098635	1424
643.756633702364	1436
646.49038532241	1433
649.223237556176	1441
651.955190999808	1434
654.686246248224	1476
657.416403895135	1438
660.145664533011	1440
662.874028753133	1465
665.601497145537	1457
668.328070299071	1442
671.05374880138	1439
673.778533238885	1448
676.502424196839	1464
679.225422259297	1442
681.947528009099	1476
684.668742027927	1455
687.389064896281	1454
690.108497193465	1481
692.827039497621	1455
695.544692385724	1401
698.261456433585	1520
700.977332215847	1437
703.692320305981	1458
706.406421276337	1446
709.11963569808	1484
711.831964141256	1499
714.54340717474	1433
717.253965366304	1470
719.963639282552	1492
722.672429488961	1473
725.380336549904	1487
728.087361028596	1492
730.793503487166	1514
733.498764486594	1483
736.203144586758	1483
738.906644346447	1485
741.60926432331	1501
744.311005073912	1523
747.011867153727	1519
749.711851117121	1502
752.410957517375	1519
755.109186906677	1492
757.806539836132	1519
760.503016855779	1492
763.198618514551	1502
765.893345360346	1507
768.587197939964	1536
771.28017679914	1524
773.972282482566	1532
776.663515533859	1533
779.353876495581	1548
782.043365909241	1529
784.731984315327	1533
787.419732253235	1543
790.106610261366	1568
792.792618877058	1598
795.477758636618	1561
798.162030075313	1643
800.845433727423	1707
803.52797012615	1885
806.209639803714	2094
808.890443291304	2053
811.570381119098	1926
814.249453816265	1792
816.927661910959	1655
819.60500593036	1662
822.281486400603	1631
824.957103846864	1611
827.631858793316	1662
830.305751763135	1643
832.978783278519	1668
835.650953860677	1733
838.322264029848	1717
840.992714305292	1740
843.662305205289	1739
846.331037247157	1679
848.998910947241	1628
851.665926820933	1654
854.332085382674	1610
856.997387145915	1650
859.661832623191	1655
862.325422326066	1600
864.988156765172	1618
867.650036450181	1648
870.311061889846	1589
872.971233591961	1625
875.630552063409	1638
878.28901781013	1584
880.946631337138	1609
883.603393148533	1615
886.259303747484	1588
888.914363636246	1638
891.568573316155	1612
894.22193328767	1621
896.874444050281	1595
899.526106102625	1602
902.176919942416	1652
904.826886066483	1636
907.476004970747	1646
910.124277150255	1652
912.77170309913	1630
915.418283310642	1641
918.064018277175	1648
920.708908490222	1660
923.352954440405	1710
925.996156617486	1695
928.638515510334	1621
931.280031606966	1666
933.920705394521	1660
936.560537359303	1711
939.199527986737	1697
941.837677761392	1741
944.474987167006	1702
947.111456686438	1665
949.747086801734	1669
952.38187799407	1725
955.015830743792	1692
957.648945530418	1693
960.281222832633	1688
962.91266312826	1782
965.543266894336	1810
968.173034607058	1878
970.801966741779	1975
973.43006377307	1938
976.057326174661	1876
978.683754419471	1802
981.309348979623	1737
983.93411032642	1746
986.558038930361	1687
989.181135261144	1769
991.803399787692	1755
994.424832978086	1776
997.045435299653	1846
999.665207218906	1761
1002.2841492016	1802
1004.90226171266	1759
1007.51954521628	1785
1010.13600017584	1775
1012.75162705397	1761
1015.3664263125	1768
1017.9803984125	1725
1020.5935438143	1753
1023.20586297741	1760
1025.81735636063	1827
1028.42802442196	1776
1031.03786761869	1836
1033.64688640732	1815
1036.2550812436	1791
1038.86245258255	1842
1041.46900087844	1817
1044.07472658479	1830
1046.67963015438	1815
1049.28371203927	1758
1051.88697269075	1784
1054.48941255943	1792
1057.09103209513	1797
1059.691831747	1751
1062.29181196343	1783
1064.89097319211	1781
1067.48931587999	1783
1070.08684047333	1804
1072.68354741766	1775
1075.27943715779	1793
1077.87451013787	1812
1080.46876680127	1808
1083.06220759071	1775
1085.65483294822	1826
1088.24664331509	1806
1090.83763913194	1883
1093.42782083869	1876
1096.01718887459	1837
1098.60574367818	1850
1101.19348568732	1827
1103.78041533919	1848
1106.3665330703	1868
1108.95183931646	1845
1111.53633451284	1811
1114.12001909391	1887
1116.70289349349	1888
1119.2849581447	1820
1121.86621348005	1860
1124.44665993134	1876
1127.02629792973	1858
1129.60512790574	1880
1132.18315028919	1929
1134.76036550929	1888
1137.3367739946	1886
1139.912376173	1960
1142.48717247176	1928
1145.06116331748	2016
1147.63434913616	2113
1150.20673035312	2148
1152.77830739307	2189
1155.34908068007	2168
1157.91905063757	2139
1160.48821768838	2168
1163.05658225471	2217
1165.6241447581	2257
1168.19090561951	2272
1170.75686525927	2214
1173.32202409708	2105
1175.88638255206	2021
1178.44994104269	1927
1181.01269998684	1953
1183.57465980182	1941
1186.13582090427	1925
1188.69618371026	1928
1191.25574863529	1917
1193.8145160942	1927
1196.37248650129	1950
1198.92966027025	1924
1201.48603781416	1921
1204.04161954556	1966
1206.59640587635	1942
1209.15039721788	1994
1211.70359398092	1980
1214.25599657564	2004
1216.80760541166	2033
1219.35842089801	2064
1221.90844344314	2033
1224.45767345496	2032
1227.00611134077	2034
1229.55375750736	1992
1232.10061236092	1985
1234.64667630707	1966
1237.1919497509	1981
1239.73643309692	2007
1242.28012674912	2035
1244.82303111089	2031
1247.36514658511	1957
1249.9064735741	2082
1252.44701247964	2073
1254.98676370294	2119
1257.52572764469	2100
1260.06390470506	2060
1262.60129528365	2113
1265.13789977954	2118
1267.67371859128	2103
1270.20875211688	2099
1272.74300075384	2123
1275.2764648991	2146
1277.80914494911	2109
1280.34104129978	2124
1282.87215434652	2160
1285.40248448419	2150
1287.93203210715	2152
1290.46079760927	2148
1292.98878138385	2160
1295.51598382375	2230
1298.04240532127	2215
1300.56804626822	2228
1303.09290705593	2254
1305.6169880752	2230
1308.14028971632	2212
1310.66281236913	2247
1313.18455642292	2226
1315.70552226653	2232
1318.22571028829	2312
1320.74512087603	2331
1323.26375441711	2425
1325.7816112984	2470
1328.29869190629	2504
1330.81499662666	2482
1333.33052584497	2482
1335.84527994613	2418
1338.35925931464	2432
1340.87246433446	2341
1343.38489538916	2386
1345.89655286177	2424
1348.40743713487	2451
1350.91754859059	2485
1353.42688761059	2458
1355.93545457606	2537
1358.44324986772	2611
1360.95027386588	2548
1363.45652695032	2506
1365.96200950042	2527
1368.4667218951	2508
1370.97066451281	2486
1373.47383773156	2537
1375.97624192891	2511
1378.47787748199	2542
1380.97874476746	2528
1383.47884416157	2461
1385.97817604009	2558
1388.4767407784	2559
1390.9745387514	2464
1393.47157033358	2545
1395.96783589898	2590
1398.46333582124	2524
1400.95807047354	2520
1403.45204022864	2564
1405.94524545889	2584
1408.4376865362	2572
1410.92936383205	2557
1413.42027771752	2661
1415.91042856328	2644
1418.39981673955	2615
1420.88844261615	2656
1423.37630656249	2699
1425.86340894757	2684
1428.34975013999	2697
1430.83533050792	2769
1433.32015041912	2847
1435.80421024098	2882
1438.28751034045	2967
1440.77005108411	2930
1443.25183283812	2924
1445.73285596824	2969
1448.21312083984	2996
1450.69262781791	3098
1453.17137726702	3176
1455.64936955137	3224
1458.12660503477	3282
1460.60308408063	3294
1463.07880705197	3187
1465.55377431145	3142
1468.02798622133	3147
1470.50144314348	3026
1472.97414543941	3063
1475.44609347024	3075
1477.91728759673	3037
1480.38772817924	3042
1482.85741557777	3034
1485.32635015194	3044
1487.79453226103	3083
1490.26196226391	3061
1492.72864051911	3098
1495.1945673848	3124
1497.65974321874	3179
1500.1241683784	3132
1502.58784322083	3230
1505.05076810274	3180
1507.51294338049	3217
1509.97436941009	3230
1512.43504654717	3270
1514.89497514704	3226
1517.35415556462	3336
1519.81258815451	3255
1522.27027327095	3181
1524.72721126784	3203
1527.18340249874	3265
1529.63884731684	3187
1532.09354607502	3258
1534.5474991258	3272
1537.00070682136	3292
1539.45316951355	3308
1541.90488755388	3260
1544.35586129353	3321
1546.80609108336	3324
1549.25557727385	3345
1551.70432021519	3399
1554.15232025725	3343
1556.59957774953	3375
1559.04609304125	3450
1561.49186648127	3354
1563.93689841815	3393
1566.38118920011	3452
1568.82473917506	3468
1571.2675486906	3457
1573.70961809399	3443
1576.15094773219	3576
1578.59153795184	3476
1581.03138909928	3518
1583.47050152051	3542
1585.90887556123	3496
1588.34651156686	3558
1590.78340988246	3580
1593.21957085283	3527
1595.65499482245	3592
1598.08968213547	3605
1600.52363313578	3560
1602.95684816694	3541
1605.38932757224	3566
1607.82107169462	3536
1610.25208087677	3557
1612.68235546107	3583
1615.1118957896	3549
1617.54070220415	3583
1619.96877504621	3566
1622.39611465701	3567
1624.82272137746	3568
1627.24859554818	3557
1629.67373750953	3560
1632.09814760155	3606
1634.52182616404	3573
1636.94477353647	3595
1639.36699005806	3550
1641.78847606776	3727
1644.20923190418	3612
1646.62925790573	3601
1649.04855441048	3559
1651.46712175628	3672
1653.88496028066	3547
1656.3020703209	3668
1658.71845221401	3693
1661.13410629671	3634
1663.54903290547	3725
1665.96323237649	3728
1668.37670504571	3682
1670.78945124877	3781
1673.20147132109	3789
1675.61276559779	3754
1678.02333441377	3803
1680.43317810362	3752
1682.84229700171	3757
1685.25069144213	3762
1687.65836175872	3812
1690.06530828507	3795
1692.47153135451	3849
1694.87703130009	3805
1697.28180845467	3826
1699.6858631508	3859
1702.08919572081	3817
1704.49180649676	3821
1706.89369581049	3935
1709.29486399355	3902
1711.69531137731	3842
1714.09503829282	3845
1716.49404507095	3869
1718.89233204229	3824
1721.28989953721	3882
1723.68674788581	3806
1726.08287741798	3900
1728.47828846338	3913
1730.87298135139	3909
1733.26695641119	3893
1735.66021397173	3853
1738.05275436169	3911
1740.44457790954	3945
1742.83568494354	3952
1745.22607579168	3865
1747.61575078175	3867
1750.00471024128	3917
1752.39295449761	3964
1754.78048387783	3966
1757.16729870881	3894
1759.5533993172	3987
1761.93878602942	4003
1764.32345917168	3951
1766.70741906995	4003
1769.09066604999	3988
1771.47320043735	4010
1773.85502255735	4004
1776.2361327351	3949
1778.61653129548	4077
1780.99621856318	4028
1783.37519486264	4120
1785.75346051813	4159
1788.13101585368	4120
1790.5078611931	4117
1792.88399686002	4090
1795.25942317785	4123
1797.63414046977	4127
1800.00814905878	4164
1802.38144926766	4093
1804.75404141898	4159
1807.12592583514	4149
1809.49710283829	4204
1811.86757275039	4204
1814.23733589322	4171
1816.60639258834	4189
1818.97474315712	4161
1821.34238792073	4221
1823.70932720012	4154
1826.07556131608	4237
1828.44109058918	4148
1830.8059153398	4202
1833.17003588812	4173
1835.53345255413	4156
1837.89616565765	4151
1840.25817551827	4287
1842.61948245541	4302
1844.9800867883	4261
1847.33998883598	4310
1849.69918891729	4290
1852.05768735091	4358
1854.4154844553	4231
1856.77258054875	4318
1859.12897594938	4316
1861.4846709751	4239
1863.83966594366	4329
1866.19396117261	4296
1868.54755697932	4315
1870.90045368099	4435
1873.25265159463	4297
1875.60415103708	4387
1877.95495232501	4430
1880.30505577486	4333
1882.65446170299	4439
1885.00317042548	4525
1887.35118225832	4427
1889.69849751726	4494
1892.04511651792	4492
1894.39103957574	4513
1896.73626700596	4494
1899.08079912368	4584
1901.42463624384	4536
1903.76777868116	4505
1906.11022675025	4599
1908.4519807655	4551
1910.79304104117	4655
1913.13340789134	4614
1915.47308162992	4593
1917.81206257067	4678
1920.15035102718	4752
1922.48794731286	4657
1924.82485174096	4614
1927.16106462461	4718
1929.49658627672	4815
1931.83141701008	4733
1934.1655571373	4668
1936.49900697085	4625
1938.83176682301	4706
1941.16383700594	4729
1943.49521783161	4775
1945.82590961186	4674
1948.15591265835	4686
1950.48522728262	4734
1952.81385379602	4760
1955.14179250976	4757
1957.46904373489	4724
1959.79560778233	4832
1962.12148496284	4709
1964.44667558701	4712
1966.77117996529	4788
1969.09499840799	4729
1971.41813122527	4754
1973.74057872714	4798
1976.06234122345	4862
1978.38341902391	4805
1980.7038124381	4831
1983.02352177543	4818
1985.34254734518	4859
1987.66088945649	4898
1989.97854841833	5000
1992.29552453956	4893
1994.61181812887	4923
1996.92742949483	4909
1999.24235894586	4928
2001.55660679023	4947
2003.87017333608	4973
2006.18305889143	4959
2008.49526376413	4938
2010.80678826189	4954
2013.1176326923	5058
2015.42779736282	4964
2017.73728258075	5058
2020.04608865326	5004
2022.3542158874	5053
2024.66166459008	5126
2026.96843506807	5081
2029.274527628	5135
2031.57994257637	5146
2033.88468021957	5168
2036.18874086383	5052
2038.49212481526	5170
2040.79483237983	5150
2043.0968638634	5237
2045.39821957169	5158
2047.69889981028	5136
2049.99890488462	5189
2052.29823510006	5201
2054.59689076181	5161
2056.89487217492	5189
2059.19217964437	5235
2061.48881347497	5206
2063.7847739714	5213
2066.08006143826	5183
2068.37467618	5148
2070.66861850093	5165
2072.96188870527	5208
2075.25448709707	5258
2077.54641398031	5257
2079.83766965881	5189
2082.12825443629	5189
2084.41816861634	5134
2086.70741250242	5154
2088.99598639789	5196
2091.28389060597	5179
2093.57112542978	5193
2095.85769117232	5163
2098.14358813644	5297
2100.42881662491	5155
2102.71337694037	5243
2104.99726938532	5144
2107.28049426219	5204
2109.56305187325	5154
2111.84494252069	5204
2114.12616650655	5235
2116.40672413278	5193
2118.68661570121	5227
2120.96584151355	5299
2123.24440187138	5392
2125.52229707622	5257
2127.79952742943	5278
2130.07609323227	5237
2132.35199478588	5213
2134.62723239132	5343
2136.90180634949	5305
2139.17571696123	5367
2141.44896452723	5257
2143.72154934809	5305
2145.99347172429	5216
2148.26473195623	5360
2150.53533034415	5413
2152.80526718821	5336
2155.07454278848	5319
2157.3431574449	5341
2159.61111145728	5302
2161.87840512538	5349
2164.1450387488	5372
2166.41101262707	5296
2168.67632705959	5354
2170.94098234567	5305
2173.20497878451	5341
2175.46831667519	5338
2177.73099631672	5306
2179.99301800797	5253
2182.25438204772	5318
2184.51508873466	5398
2186.77513836735	5357
2189.03453124427	5292
2191.29326766378	5361
2193.55134792416	5292
2195.80877232355	5314
2198.06554116004	5315
2200.32165473157	5264
2202.577113336	5369
2204.83191727111	5340
2207.08606683453	5222
2209.33956232384	5335
2211.59240403648	5237
2213.84459226982	5285
2216.09612732112	5290
2218.34700948753	5221
2220.59723906612	5299
2222.84681635385	5276
2225.09574164758	5161
2227.34401524408	5235
2229.59163744002	5201
2231.83860853197	5200
2234.08492881639	5286
2236.33059858968	5201
2238.5756181481	5285
2240.81998778784	5228
2243.06370780499	5274
2245.30677849555	5279
2247.54920015539	5254
2249.79097308033	5239
2252.03209756607	5225
2254.27257390822	5182
2256.51240240228	5186
2258.75158334369	5182
2260.99011702777	5210
2263.22800374976	5217
2265.46524380477	5154
2267.70183748786	5229
2269.93778509399	5201
2272.17308691801	5163
2274.40774325467	5172
2276.64175439866	5158
2278.87512064454	5208
2281.10784228682	5240
2283.33991961987	5164
2285.571352938	5180
2287.80214253541	5157
2290.03228870623	5188
2292.26179174449	5089
2294.4906519441	5182
2296.71886959892	5231
2298.9464450027	5092
2301.1733784491	5205
2303.39967023169	5153
2305.62532064395	5095
2307.85032997926	5193
2310.07469853093	5188
2312.29842659216	5141
2314.52151445608	5057
2316.7439624157	5146
2318.96577076397	5094
2321.18693979374	5132
2323.40746979777	5090
2325.62736106873	5064
2327.8466138992	5175
2330.06522858166	5071
2332.28320540853	5015
2334.50054467212	5150
2336.71724666465	5025
2338.93331167827	5096
2341.14874000501	4970
2343.36353193685	5080
2345.57768776564	5064
2347.79120778319	5103
2350.00409228117	5000
2352.21634155121	4987
2354.42795588482	4988
2356.63893557342	4947
2358.84928090838	4960
2361.05899218094	4941
2363.26806968228	4943
2365.47651370347	4997
2367.68432453552	4949
2369.89150246933	4957
2372.09804779571	4987
2374.30396080541	4889
2376.50924178907	4826
2378.71389103725	4840
2380.91790884042	4876
2383.12129548897	4873
2385.3240512732	4869
2387.52617648332	4773
2389.72767140946	4801
2391.92853634165	4859
2394.12877156985	4784
2396.32837738392	4878
2398.52735407365	4798
2400.72570192873	4819
2402.92342123875	4745
2405.12051229325	4806
2407.31697538167	4777
2409.51281079333	4778
2411.70801881751	4846
2413.90259974339	4809
2416.09655386004	4703
2418.28988145648	4745
2420.48258282162	4714
2422.6746582443	4757
2424.86610801325	4786
2427.05693241713	4681
2429.24713174452	4709
2431.43670628389	4701
2433.62565632365	4671
2435.81398215212	4698
2438.00168405752	4668
2440.18876232799	4616
2442.37521725158	4675
2444.56104911628	4677
2446.74625820994	4691
2448.93084482038	4653
2451.1148092353	4632
2453.29815174233	4619
2455.480872629	4679
2457.66297218275	4608
2459.84445069097	4645
2462.02530844092	4539
2464.2055457198	4553
2466.38516281471	4535
2468.56416001267	4518
2470.74253760061	4560
2472.92029586537	4512
2475.09743509372	4466
2477.27395557232	4468
2479.44985758777	4553
2481.62514142655	4523
2483.79980737508	4491
2485.97385571969	4597
2488.14728674661	4480
2490.32010074198	4550
2492.49229799188	4566
2494.66387878228	4510
2496.83484339905	4517
2499.00519212802	4503
2501.17492525488	4563
2503.34404306528	4577
2505.51254584473	4540
2507.6804338787	4439
2509.84770745254	4494
2512.01436685153	4478
2514.18041236085	4427
2516.34584426561	4491
2518.51066285081	4479
2520.67486840138	4546
2522.83846120214	4527
2525.00144153784	4504
2527.16380969314	4490
2529.32556595261	4489
2531.48671060072	4510
2533.64724392186	4497
2535.80716620033	4460
2537.96647772034	4498
2540.12517876602	4479
2542.2832696214	4578
2544.44075057041	4450
2546.59762189691	4436
2548.75388388466	4413
2550.90953681735	4424
2553.06458097853	4480
2555.21901665172	4433
2557.37284412031	4439
2559.5260636676	4452
2561.67867557684	4386
2563.83068013113	4364
2565.98207761351	4411
2568.13286830695	4415
2570.28305249429	4452
2572.43263045829	4383
2574.58160248163	4347
2576.72996884689	4334
2578.87772983655	4333
2581.02488573303	4381
2583.1714368186	4349
2585.31738337549	4369
2587.46272568582	4359
2589.60746403161	4317
2591.75159869479	4375
2593.89512995722	4328
2596.03805810061	4317
2598.18038340665	4372
2600.32210615686	4285
2602.46322663274	4310
2604.60374511563	4286
2606.74366188683	4288
2608.88297722751	4304
2611.02169141875	4302
2613.15980474156	4336
2615.29731747681	4272
2617.43422990532	4325
2619.57054230779	4343
2621.70625496483	4375
2623.84136815694	4322
2625.97588216456	4313
2628.10979726799	4296
2630.24311374746	4392
2632.3758318831	4405
2634.50795195493	4320
2636.6394742429	4318
2638.77039902682	4376
2640.90072658645	4413
2643.0304572014	4366
2645.15959115123	4320
2647.28812871538	4450
2649.41607017319	4414
2651.5434158039	4409
2653.67016588665	4374
2655.79632070049	4326
2657.92188052436	4402
2660.04684563711	4405
2662.17121631749	4400
2664.29499284413	4416
2666.41817549558	4367
2668.54076455027	4326
2670.66276028656	4386
2672.78416298267	4405
2674.90497291675	4343
2677.02519036682	4358
2679.14481561082	4449
2681.26384892658	4456
2683.38229059182	4378
2685.50014088417	4318
2687.61740008114	4346
2689.73406846017	4432
2691.85014629854	4405
2693.96563387347	4445
2696.08053146206	4336
2698.1948393413	4414
2700.3085577881	4400
2702.42168707924	4439
2704.53422749139	4364
2706.64617930112	4471
2708.75754278492	4520
2710.86831821913	4512
2712.97850588002	4490
2715.08810604372	4487
2717.19711898628	4402
2719.30554498363	4551
2721.41338431158	4590
2723.52063724586	4525
2725.62730406206	4512
2727.73338503569	4499
2729.83888044213	4490
2731.94379055664	4491
2734.04811565441	4440
2736.15185601048	4444
2738.25501189979	4455
2740.35758359718	4506
2742.45957137738	4443
2744.56097551499	4501
2746.6617962845	4430
2748.7620339603	4476
2750.86168881666	4533
2752.96076112774	4451
2755.05925116758	4497
2757.15715921012	4494
2759.25448552917	4460
2761.35123039843	4442
2763.44739409148	4482
2765.5429768818	4460
2767.63797904275	4464
2769.73240084756	4517
2771.82624256934	4505
2773.91950448113	4503
2776.01218685579	4507
2778.10428996609	4529
2780.19581408469	4545
2782.28675948414	4508
2784.37712643683	4504
2786.46691521507	4563
2788.55612609104	4486
2790.64475933678	4509
2792.73281522425	4486
2794.82029402525	4547
2796.90719601149	4502
2798.99352145453	4436
2801.07927062583	4529
2803.16444379672	4472
2805.24904123841	4585
2807.33306322197	4582
2809.41651001838	4571
2811.49938189847	4591
2813.58167913296	4632
2815.66340199243	4541
2817.74455074734	4649
2819.82512566805	4609
2821.90512702475	4589
2823.98455508754	4689
2826.06341012637	4751
2828.14169241109	4816
2830.2194022114	4973
2832.29653979686	5063
2834.37310543694	5379
2836.44909940096	5521
2838.5245219581	5635
2840.59937337744	5575
2842.67365392791	5364
2844.74736387829	5158
2846.82050349727	5106
2848.8930730534	5103
2850.96507281506	5134
2853.03650305056	5112
2855.10736402802	5099
2857.17765601545	5184
2859.24737928074	5498
2861.31653409164	5611
2863.38512071574	5950
2865.45313942054	6159
2867.52059047335	6212
2869.58747414139	6270
2871.65379069173	6144
2873.7195403913	6201
2875.78472350688	6434
2877.84934030515	6560
2879.91339105262	6910
2881.97687601567	6922
2884.03979546053	6890
2886.10214965332	6706
2888.16393886	6491
2890.22516334639	6446
2892.28582337816	6283
2894.34591922087	6124
2896.40545113992	6117
2898.46441940054	6259
2900.52282426787	6307
2902.58066600687	6433
2904.63794488237	6537
2906.69466115906	6367
2908.75081510147	6320
2910.806406974	6111
2912.8614370409	5993
2914.91590556626	5961
2916.96981281404	6063
2919.02315904807	6092
2921.07594453199	6048
2923.12816952932	6046
2925.17983430343	6035
2927.23093911753	5898
2929.28148423469	5845
2931.33146991782	5680
2933.3808964297	5522
2935.42976403294	5477
2937.47807299	5347
2939.5258235632	5298
2941.57301601469	5321
2943.61965060648	5500
2945.66572760042	5587
2947.71124725823	5928
2949.75620984143	6060
2951.80061561143	6244
2953.84446482945	6181
2955.88775775656	6410
2957.9304946537	6626
2959.97267578162	6792
2962.01430140095	6796
2964.05537177211	6436
2966.09588715541	6181
2968.13584781097	6061
2970.17525399875	5795
2972.21410597859	5507
2974.25240401011	5377
2976.29014835283	5240
2978.32733926604	5180
2980.36397700892	5084
2982.40006184049	5113
2984.43559401955	5051
2986.4705738048	4982
2988.50500145473	5015
2990.53887722771	4995
2992.57220138189	4983
2994.6049741753	4984
2996.63719586576	5039
2998.66886671097	5061
3000.69998696843	5005
3002.73055689549	5004
3004.7605767493	5041
3006.79004678688	4997
3008.81896726505	5005
3010.84733844048	5009
3012.87516056966	5033
3014.9024339089	5079
3016.92915871433	5019
3018.95533524196	5097
3020.98096374756	5035
3023.00604448675	5102
3025.030577715	5059
3027.05456368757	5089
3029.07800265956	5163
3031.10089488589	5088
3033.12324062131	5093
3035.14504012038	5126
3037.16629363749	5076
3039.18700142685	5066
3041.20716374249	5137
3043.22678083826	5070
3045.24585296782	5037
3047.26438038468	5043
3049.28236334212	5176
3051.29980209329	5063
3053.31669689111	5026
3055.33304798835	5163
3057.34885563757	5115
3059.36412009117	5145
3061.37884160134	5030
3063.39302042011	5153
3065.40665679931	5120
3067.41975099058	5149
3069.43230324538	5080
3071.44431381495	4960
3073.45578295041	5130
3075.46671090261	5095
3077.47709792227	5110
3079.48694425989	5075
3081.49625016578	5013
3083.50501589008	5015
3085.5132416827	5116
3087.5209277934	5024
3089.52807447169	5087
3091.53468196695	5176
3093.54075052832	5065
3095.54628040476	5120
3097.55127184503	5099
3099.55572509769	5056
3101.55964041111	5053
3103.56301803346	5001
3105.5658582127	5138
3107.56816119661	5146
3109.56992723275	5168
3111.57115656849	5107
3113.571849451	5116
3115.57200612724	5203
3117.57162684397	5179
3119.57071184775	5168
3121.56926138493	5192
3123.56727570166	5136
3125.56475504389	5089
3127.56169965735	5110
3129.55810978757	5156
3131.55398567987	5214
3133.54932757937	5147
3135.54413573099	5236
3137.53841037939	5188
3139.53215176909	5068
3141.52536014435	5244
3143.51803574924	5249
3145.51017882762	5261
3147.50178962311	5340
3149.49286837916	5199
3151.48341533897	5299
3153.47343074553	5336
3155.46291484164	5154
3157.45186786985	5253
3159.44029007252	5248
3161.42818169179	5187
3163.41554296955	5174
3165.40237414753	5294
3167.38867546718	5247
3169.37444716975	5250
3171.35968949631	5184
3173.34440268764	5303
3175.32858698436	5244
3177.31224262682	5284
3179.29536985517	5324
3181.27796890934	5284
3183.26004002902	5190
3185.24158345368	5227
3187.22259942256	5248
3189.2030881747	5279
3191.18304994886	5261
3193.16248498363	5264
3195.14139351733	5258
3197.11977578807	5275
3199.09763203371	5347
3201.07496249191	5310
3203.05176740007	5290
3205.02804699537	5282
3207.00380151475	5324
3208.97903119493	5348
3210.95373627238	5260
3212.92791698335	5378
3214.90157356383	5197
3216.8747062496	5379
3218.84731527619	5369
3220.81940087889	5390
3222.79096329275	5371
3224.76200275259	5302
3226.73251949298	5486
3228.70251374825	5316
3230.67198575251	5292
3232.64093573959	5390
3234.6093639431	5425
3236.57727059641	5436
3238.54465593261	5506
3240.51152018461	5487
3242.47786358502	5394
3244.44368636621	5466
3246.40898876031	5480
3248.37377099923	5442
3250.33803331458	5503
3252.30177593775	5519
3254.26499909987	5540
3256.22770303184	5510
3258.18988796427	5434
3260.15155412755	5462
3262.1127017518	5512
3264.0733310669	5395
3266.03344230246	5514
3267.99303568784	5566
3269.95211145215	5465
3271.91066982422	5539
3273.86871103267	5459
3275.82623530581	5480
3277.7832428717	5528
3279.73973395818	5492
3281.69570879278	5529
3283.6511676028	5600
3285.60611061527	5565
3287.56053805694	5624
3289.51445015432	5548
3291.46784713364	5628
3293.42072922088	5526
3295.37309664173	5584
3297.32494962163	5498
3299.27628838575	5503
3301.227113159	5584
3303.17742416601	5489
3305.12722163114	5470
3307.07650577848	5589
3309.02527683185	5557
3310.9735350148	5567
3312.9212805506	5593
3314.86851366225	5553
3316.81523457249	5595
3318.76144350377	5607
3320.70714067825	5560
3322.65232631783	5592
3324.59700064415	5590
3326.54116387854	5528
3328.48481624207	5525
3330.42795795551	5592
3332.37058923938	5473
3334.31271031389	5620
3336.25432139898	5518
3338.19542271432	5452
3340.13601447927	5443
3342.07609691292	5565
3344.01567023407	5538
3345.95473466124	5543
3347.89329041266	5478
3349.83133770627	5544
3351.76887675973	5567
3353.70590779039	5568
3355.64243101534	5485
3357.57844665135	5490
3359.51395491492	5608
3361.44895602224	5533
3363.38345018922	5552
3365.31743763148	5504
3367.25091856432	5585
3369.18389320278	5511
3371.11636176156	5643
3373.0483244551	5454
3374.97978149754	5594
3376.91073310269	5564
3378.84117948409	5556
3380.77112085498	5578
3382.70055742826	5626
3384.62948941659	5600
3386.55791703227	5588
3388.48584048733	5613
3390.41325999348	5633
3392.34017576214	5601
3394.2665880044	5622
3396.19249693107	5515
3398.11790275263	5606
3400.04280567926	5650
3401.96720592084	5569
3403.89110368692	5579
3405.81449918675	5591
3407.73739262928	5567
3409.65978422311	5622
3411.58167417658	5611
3413.50306269768	5638
3415.42394999408	5550
3417.34433627316	5641
3419.26422174195	5600
3421.18360660721	5616
3423.10249107532	5537
3425.02087535239	5531
3426.93875964421	5644
3428.8561441562	5613
3430.77302909353	5642
3432.68941466097	5507
3434.60530106301	5527
3436.52068850383	5576
3438.43557718726	5489
3440.34996731681	5492
3442.26385909565	5558
3444.17725272664	5479
3446.09014841231	5539
3448.00254635486	5478
3449.91444675614	5436
3451.82584981771	5529
3453.73675574076	5479
3455.64716472616	5416
3457.55707697445	5434
3459.46649268584	5473
3461.37541206018	5487
3463.28383529703	5552
3465.19176259555	5450
3467.09919415464	5441
3469.00613017278	5450
3470.91257084817	5416
3472.81851637863	5383
3474.72396696168	5427
3476.62892279446	5443
3478.53338407379	5358
3480.43735099614	5358
3482.34082375764	5405
3484.24380255404	5429
3486.1462875808	5401
3488.048279033	5448
3489.94977710537	5315
3491.85078199231	5425
3493.75129388783	5367
3495.65131298566	5375
3497.5508394791	5310
3499.44987356115	5317