201.866871357051	1062.5
204.754250281454	1074.5
207.640596790938	1074
210.525911876299	1075.5
213.410196525689	1074.75
216.293451724508	1088.25
219.175678455485	1080
222.056877698662	1075
224.937050431388	1084
227.816197628363	1083.75
230.694320261602	1094.25
233.571419300504	1086.25
236.447495711764	1112.5
239.322550459507	1104.25
242.196584505182	1099.75
245.069598807626	1101
247.941594323078	1102
250.812572005154	1118
253.682532804884	1114.25
256.551477670699	1108.5
259.419407548456	1123.25
262.286323381439	1115
265.152226110364	1144.75
268.017116673389	1136.25
270.880996006115	1135.25
273.743865041622	1134
276.605724710436	1130
279.466575940562	1127.5
282.326419657496	1132.25
285.1852567842	1155
288.043088241157	1155
290.899914946349	1159.25
293.75573781526	1157
296.610557760898	1173.75
299.464375693817	1163.5
302.317192522078	1173.75
305.169009151297	1180
308.019826484655	1176.75
310.86964542287	1194
313.718466864233	1186.75
316.566291704614	1182.5
319.413120837457	1183.75
322.258955153804	1191.5
325.103795542291	1192.75
327.947642889128	1197
330.79049807819	1214.25
333.632361990927	1209
336.473235506444	1227
339.31311950145	1203
342.152014850322	1221
344.989922425062	1220
347.826843095354	1224.75
350.662777728528	1233.5
353.497727189577	1237.25
356.331692341195	1273.25
359.164674043732	1224
361.996673155267	1269.5
364.827690531536	1264.5
367.65772702602	1260.5
370.486783489887	1278.25
373.314860772047	1271.25
376.14195971912	1245.75
378.968081175466	1278.25
381.793225983212	1261.75
384.617394982201	1297.75
387.44058901005	1304.75
390.262808902131	1295
393.08405549161	1293.25
395.904329609395	1298.75
398.723632084213	1299.25
401.541963742569	1309
404.359325408779	1314
407.175717904938	1304.5
409.991142050982	1314.25
412.805598664665	1320.5
415.619088561551	1323.5
418.43161255505	1338
421.243171456415	1332.25
424.053766074758	1355.5
426.863397217017	1342.5
429.672065688024	1343.5
432.479772290455	1368
435.286517824879	1357
438.092303089736	1376.25
440.897128881359	1367.75
443.70099599399	1379.5
446.503905219761	1381.5
449.305857348711	1379
452.106853168796	1371.25
454.906893465919	1382.25
457.705979023885	1381.5
460.504110624439	1400.5
463.3012890473	1400.75
466.097515070087	1399
468.892789468424	1406.5
471.687113015869	1417.5
474.48048648395	1410.5
477.272910642198	1415.25
480.064386258109	1406.5
482.854914097159	1412.75
485.644494922839	1413.5
488.433129496636	1441
491.220818578047	1449.25
494.007562924584	1462.75
496.793363291785	1465.5
499.578220433217	1476
502.362135100473	1468.75
505.145108043209	1497
507.927140009098	1470
510.708231743909	1482.5
513.488383991433	1481.5
516.267597493556	1500
519.04587299022	1502
521.82321121946	1494.5
524.599612917398	1503.75
527.375078818233	1511.75
530.149609654287	1512.25
532.923206155967	1518.5
535.695869051804	1515.5
538.467599068448	1504.75
541.238396930665	1505.25
544.008263361364	1505
546.777199081578	1514.25
549.545204810493	1521.5
552.312281265436	1553.75
555.078429161898	1535.25
557.843649213533	1554.75
560.607942132156	1563.5
563.371308627753	1543.5
566.133749408495	1572.5
568.895265180756	1564
571.655856649064	1586.25
574.415524516189	1585.25
577.174269483075	1571.5
579.932092248884	1608
582.688993510994	1625.5
585.444973965023	1600.25
588.200034304795	1608.25
590.95417522237	1618.5
593.70739740807	1621
596.459701550433	1627.5
599.21108833628	1625
601.961558450668	1629.75
604.711112576933	1621.25
607.459751396673	1625
610.207475589748	1635.75
612.954285834338	1653.25
615.700182806879	1644
618.445167182101	1645.5
621.189239633055	1649.5
623.932400831087	1644
626.674651445839	1657.5
629.415992145303	1648
632.156423595745	1678.25
634.895946461813	1651.75
637.634561406449	1647
640.37226909096	1667.5
643.109070174978	1680.25
645.844965316508	1667
648.579955171888	1702.25
651.314040395846	1685
654.047221641456	1680.5
656.779499560176	1688.75
659.510874801828	1711.75
662.241348014642	1691
664.97091984524	1719.5
667.699590938606	1747.25
670.427361938164	1737
673.15423348573	1727.5
675.880206221526	1747.5
678.605280784206	1742.25
681.329457810829	1768.25
684.05273793692	1759.75
686.775121796389	1763
689.49661002163	1759.75
692.217203243454	1763.5
694.936902091144	1764
697.655707192425	1745.5
700.373619173493	1785
703.09063865901	1769.75
705.806766272093	1784
708.522002634378	1792
711.236348365946	1820.5
713.94980408538	1796.75
716.662370409762	1808
719.374047954676	1810.25
722.08483733419	1809.5
724.794739160909	1835.75
727.503754045949	1837
730.21188259892	1840.25
732.919125427998	1848
735.625483139855	1874.5
738.330956339723	1861.5
741.035545631374	1857
743.739251617106	1895
746.44207489779	1876
749.144016072852	1901.75
751.845075740272	1880.25
754.545254496603	1895.25
757.244552936976	1907.75
759.94297165508	1907.5
762.640511243222	1907.5
765.337172292249	1931.5
768.032955391649	1922.5
770.727861129482	1908.75
773.421890092413	1947.75
776.11504286572	1924.25
778.807320033298	1938.75
781.49872217765	1931.25
784.18924987991	1925.5
786.87890371984	1956
789.567684275826	1964.75
792.255592124908	1954.5
794.94262784276	1937.25
797.628792003703	1957.75
800.314085180715	1968.5
802.998507945427	1957.5
805.682060868145	1943.5
808.364744517821	1990.75
811.046559462105	1955.75
813.727506267311	1997.5
816.407585498422	2004.75
819.08679771913	1999.25
821.765143491822	2004.75
824.442623377563	2008.5
827.119237936127	2040.25
829.794987726003	2045.75
832.469873304377	2040
835.143895227167	2038.75
837.817054048985	2058.25
840.489350323205	2037
843.160784601892	2110.75
845.831357435894	2054.75
848.501069374739	2093.75
851.169920966753	2084.75
853.837912758987	2080.75
856.505045297232	2070.25
859.171319126071	2080.5
861.836734788823	2087.5
864.501292827579	2098.75
867.164993783208	2091
869.827838195361	2090.5
872.489826602454	2117.5
875.150959541701	2112.5
877.811237549104	2086.5
880.470661159456	2102.25
883.129230906357	2107.25
885.786947322205	2083
888.443810938206	2106.75
891.099822284385	2111.75
893.754981889586	2110.5
896.409290281452	2116.25
899.062747986485	2141.75
901.715355529999	2139
904.367113436154	2133.5
907.01802222793	2138.25
909.668082427172	2134.25
912.317294554574	2129.75
914.965659129659	2180
917.613176670835	2150.5
920.259847695364	2167.75
922.90567271936	2165.25
925.550652257825	2162
928.194786824621	2158.5
930.838076932512	2175
933.480523093109	2157.5
936.122125816953	2172.25
938.762885613447	2195.75
941.402802990899	2206.25
944.041878456523	2199.5
946.680112516428	2203.25
949.31750567563	2218.75
951.954058438081	2222
954.589771306633	2210.75
957.224644783048	2235.5
959.858679368044	2207
962.491875561238	2175
965.12423386121	2209.5
967.75575476545	2200.25
970.386438770423	2211.25
973.016286371501	2229
975.645298063046	2207.75
978.273474338355	2219.75
980.900815689674	2220
983.527322608243	2194.25
986.152995584245	2227.5
988.777835106834	2233.25
991.401841664148	2238.5
994.025015743307	2214.25
996.647357830407	2235.75
999.268868410534	2257.5
1001.88954796777	2226
1004.50939698518	2244.75
1007.12841594484	2260.75
1009.74660532783	2278.5
1012.36396561423	2277.25
1014.98049728314	2266.75
1017.59620081267	2282
1020.21107667995	2260.5
1022.82512536112	2293.5
1025.43834733138	2301.25
1028.05074306493	2317
1030.66231303501	2312.75
1033.27305771392	2320.75
1035.88297757299	2331.5
1038.49207308257	2293
1041.10034471211	2306.75
1043.70779293008	2338.5
1046.31441820402	2343
1048.92022100052	2360.25
1051.52520178525	2392.5
1054.12936102295	2440.25
1056.73269917742	2532.5
1059.33521671154	2660.5
1061.93691408729	2727.5
1064.53779176571	2664.75
1067.13785020694	2532.5
1069.73708987022	2446.5
1072.33551121386	2406
1074.93311469528	2383.25
1077.52990077103	2376.25
1080.12586989674	2361.25
1082.72102252714	2356.75
1085.31535911611	2409.75
1087.90888011663	2351
1090.50158598078	2372.75
1093.09347715979	2383.75
1095.68455410403	2364.25
1098.27481726296	2376.5
1100.86426708523	2390.75
1103.45290401857	2389.75
1106.04072850991	2371
1108.6277410053	2392
1111.21394194993	2424
1113.79933178816	2430.5
1116.3839109635	2437.25
1118.96767991862	2501.25
1121.55063909539	2546
1124.13278893477	2713.75
1126.71412987696	2917
1129.29466236132	2962.25
1131.87438682637	2844
1134.45330370982	2652.5
1137.03141344858	2527.25
1139.60871647872	2462
1142.18521323554	2427
1144.7609041535	2423.75
1147.33578966629	2452.75
1149.90987020676	2432.25
1152.48314620702	2448
1155.05561809835	2415.25
1157.62728631125	2435.75
1160.19815127545	2454
1162.76821341988	2480.75
1165.33747317271	2475.25
1167.90593096133	2458.25
1170.47358721235	2476.25
1173.04044235163	2432.75
1175.60649680425	2421
1178.17175099454	2404
1180.73620534607	2422
1183.29986028165	2415.5
1185.86271622336	2387.5
1188.42477359249	2401
1190.98603280964	2377.25
1193.54649429462	2412.5
1196.10615846653	2400.75
1198.66502574372	2394.75
1201.22309654385	2406
1203.78037128378	2400.25
1206.33685037971	2399.75
1208.89253424709	2436
1211.44742330063	2419.5
1214.00151795438	2416.25
1216.55481862163	2422.25
1219.10732571497	2428.75
1221.65903964631	2429.5
1224.20996082683	2430
1226.760089667	2430
1229.30942657664	2444.25
1231.85797196483	2451.5
1234.40572623998	2442.75
1236.95268980981	2444
1239.49886308136	2445
1242.04424646098	2426.5
1244.58884035435	2493.5
1247.13264516647	2450.25
1249.67566130166	2486.75
1252.21788916358	2450.5
1254.75932915524	2489.25
1257.29998167896	2530.25
1259.83984713639	2524.25
1262.37892592857	2537.25
1264.91721845586	2526.5
1267.45472511795	2535
1269.9914463139	2545.5
1272.52738244213	2537.25
1275.0625339004	2548.5
1277.59690108587	2571
1280.130484395	2583.75
1282.66328422367	2562.25
1285.19530096712	2577.75
1287.72653501993	2665.5
1290.25698677608	2854
1292.78665662894	3105.5
1295.31554497125	3144.5
1297.8436521951	2934.5
1300.37097869203	2762.5
1302.89752485292	2657
1305.42329106805	2598.5
1307.94827772713	2628.25
1310.47248521921	2626.5
1312.99591393279	2600.25
1315.51856425575	2608.5
1318.04043657536	2606.75
1320.56153127836	2578.25
1323.08184875083	2606
1325.6013893783	2617.25
1328.12015354572	2630
1330.63814163744	2607.75
1333.15535403727	2626.25
1335.67179112839	2641.75
1338.18745329347	2642.75
1340.70234091454	2642.5
1343.21645437314	2645
1345.72979405019	2652.25
1348.24236032607	2651.25
1350.75415358059	2671.5
1353.26517419303	2729.25
1355.7754225421	2710.75
1358.28489900594	2684.25
1360.79360396218	2724.25
1363.30153778787	2744.25
1365.80870085955	2700.75
1368.31509355319	2759
1370.82071624424	2753.5
1373.32556930762	2734.5
1375.8296531177	2723
1378.33296804832	2718.75
1380.83551447282	2720
1383.33729276399	2723.5
1385.83830329408	2718.75
1388.33854643489	2733.5
1390.83802255762	2700.25
1393.33673203301	2725.5
1395.83467523128	2698.5
1398.33185252211	2745
1400.82826427471	2733.75
1403.32391085777	2737
1405.81879263947	2777.75
1408.31290998752	2785.75
1410.80626326908	2856
1413.29885285087	2997.75
1415.79067909909	3108.75
1418.28174237944	3054.5
1420.77204305717	2939.75
1423.26158149702	2915.75
1425.75035806323	2921.5
1428.2383731196	2887.5
1430.72562702942	2957.5
1433.21212015554	3013.75
1435.69785286028	3077.75
1438.18282550555	3161.5
1440.66703845275	3149.75
1443.15049206284	3126.5
1445.6331866963	3067.25
1448.11512271316	3081
1450.59630047298	3099.25
1453.07672033486	3113.75
1455.55638265748	3103.75
1458.03528779902	3144
1460.51343611725	3148.25
1462.99082796946	3163.75
1465.46746371252	3157.25
1467.94334370285	3145.5
1470.41846829642	3095
1472.89283784878	3083.75
1475.36645271503	3063.25
1477.83931324983	3042.75
1480.31141980743	3074.75
1482.78277274164	3090.25
1485.25337240583	3054.25
1487.72321915297	3099.75
1490.19231333557	3075.25
1492.66065530578	3079.5
1495.12824541525	3097.5
1497.5950840153	3126.5
1500.06117145678	3116.5
1502.52650809014	3122.75
1504.99109426543	3117.25
1507.45493033227	3146.5
1509.91801663992	3130.75
1512.38035353717	3161.25
1514.84194137248	3185.75
1517.30278049386	3202.75
1519.76287124894	3200
1522.22221398497	3217.5
1524.68080904876	3243
1527.13865678681	3243.25
1529.59575754514	3275.5
1532.05211166945	3281.5
1534.50771950503	3304.5
1536.96258139678	3350
1539.41669768924	3345.25
1541.87006872656	3363.5
1544.32269485252	3394.75
1546.77457641051	3396.5
1549.22571374357	3473
1551.67610719434	3467.25
1554.12575710513	3438
1556.57466381785	3522
1559.02282767408	3499.25
1561.47024901499	3497
1563.91692818144	3545.5
1566.3628655139	3583.25
1568.80806135249	3592
1571.252516037	3638.25
1573.6962299068	3644
1576.13920330099	3673.75
1578.58143655828	3699.25
1581.02293001704	3717.25
1583.46368401528	3690.25
1585.90369889071	3750
1588.34297498065	3798.5
1590.7815126221	3757.25
1593.21931215173	3758.5
1595.65637390588	3801.75
1598.09269822053	3803
1600.52828543135	3845.25
1602.96313587367	3868.5
1605.3972498825	3856.75
1607.83062779252	3833
1610.26326993808	3861.25
1612.69517665322	3908
1615.12634827165	3887
1617.55678512676	3884.75
1619.98648755163	3918.25
1622.41545587902	3887
1624.84369044138	3863.5
1627.27119157085	3936.5
1629.69795959924	3966.25
1632.12399485808	3955.75
1634.54929767859	3963
1636.97386839165	3967
1639.39770732789	3991.75
1641.8208148176	3977
1644.24319119078	4011.5
1646.66483677715	4018.75
1649.0857519061	4080.5
1651.50593690677	4060.75
1653.92539210795	4087.5
1656.3441178382	4076.75
1658.76211442575	4111
1661.17938219855	4147
1663.59592148428	4158
1666.01173261032	4159.5
1668.42681590377	4179.75
1670.84117169145	4183
1673.25480029991	4187.5
1675.66770205541	4198.75
1678.07987728393	4268.25
1680.49132631119	4255.25
1682.90204946263	4251.25
1685.31204706342	4302.25
1687.72131943846	4341.5
1690.1298669124	4362.75
1692.53768980957	4353.5
1694.94478845411	4332
1697.35116316982	4377.5
1699.75681428031	4383.75
1702.16174210887	4369.5
1704.56594697858	4361.75
1706.96942921222	4413.25
1709.37218913235	4353
1711.77422706125	4408
1714.17554332098	4395
1716.5761382333	4445.5
1718.97601211977	4417.25
1721.37516530169	4391.75
1723.77359810006	4377.5
1726.17131083572	4393
1728.56830382922	4371.75
1730.96457740087	4410.75
1733.36013187075	4362
1735.75496755868	4404.5
1738.14908478428	4411.25
1740.54248386689	4413.5
1742.93516512565	4388
1745.32712887946	4397.75
1747.71837544697	4412
1750.10890514662	4449.5
1752.49871829661	4404.75
1754.88781521492	4474
1757.27619621929	4470
1759.66386162726	4469.25
1762.05081175612	4495
1764.43704692297	4510.5
1766.82256744465	4482.5
1769.20737363782	4519.5
1771.59146581887	4491.25
1773.97484430405	4546
1776.35750940932	4578.25
1778.73946145048	4564.25
1781.12070074309	4577
1783.50122760249	4587
1785.88104234385	4619.25
1788.26014528209	4624.25
1790.63853673196	4623.75
1793.01621700796	4643.5
1795.39318642443	4651
1797.76944529549	4692
1800.14499393503	4653.75
1802.51983265681	4689.75
1804.8939617743	4742.25
1807.26738160085	4787.75
1809.64009244957	4730.25
1812.01209463339	4754.25
1814.38338846504	4824.5
1816.75397425706	4777.25
1819.12385232181	4795.25
1821.49302297142	4746.5
1823.86148651789	4803.25
1826.22924327299	4783.5
1828.59629354831	4817
1830.96263765526	4828.75
1833.32827590507	4833.75
1835.69320860877	4830.75
1838.05743607724	4854
1840.42095862113	4828.75
1842.78377655097	4848.25
1845.14589017707	4848.5
1847.50729980956	4837.75
1849.86800575843	4876
1852.22800833346	4892.75
1854.58730784427	4880.75
1856.94590460032	4947.25
1859.30379891087	4922
1861.66099108503	4913
1864.01748143175	4997.75
1866.37327025978	4931.5
1868.72835787773	4952.5
1871.08274459403	5020.5
1873.43643071697	5006.25
1875.78941655464	5066.25
1878.14170241498	5037.75
1880.4932886058	5058.25
1882.84417543469	5075
1885.19436320915	5073.5
1887.54385223646	5116.25
1889.89264282378	5152.25
1892.24073527809	5176.5
1894.58812990625	5141.75
1896.93482701493	5215.5
1899.28082691067	5245.25
1901.62612989984	5291.5
1903.97073628868	5267
1906.31464638326	5298
1908.6578604895	5303
1911.00037891321	5324.5
1913.34220196	5341.75
1915.68332993537	5389.75
1918.02376314468	5339.25
1920.36350189311	5356.5
1922.70254648573	5319
1925.04089722744	5380.25
1927.37855442303	5381.5
1929.71551837715	5389.5
1932.05178939426	5385.25
1934.38736777876	5413.25
1936.72225383484	5361.25
1939.0564478666	5478.75
1941.38995017799	5405.75
1943.72276107283	5464.75
1946.05488085479	5402.5
1948.38630982744	5392.25
1950.71704829419	5457
1953.04709655832	5407.75
1955.376454923	5423
1957.70512369126	5430.25
1960.03310316599	5428.75
1962.36039364999	5361
1964.68699544589	5424.75
1967.01290885622	5469.5
1969.33813418338	5444
1971.66267172965	5460.25
1973.98652179718	5440.75
1976.309684688	5497.25
1978.63216070402	5467
1980.95395014705	5532
1983.27505331873	5480.75
1985.59547052063	5478.5
1987.9152020542	5530.25
1990.23424822074	5474.25
1992.55260932146	5504.25
1994.87028565746	5542.25
1997.18727752968	5573.25
1999.503585239	5541
2001.81920908618	5602.25
2004.13414937184	5611.75
2006.44840639651	5683.25
2008.7619804606	5674.75
2011.07487186442	5646
2013.38708090815	5751.75
2015.6986078919	5720.25
2018.00945311564	5757
2020.31961687923	5735
2022.62909948246	5778.5
2024.93790122498	5797.25
2027.24602240636	5833.25
2029.55346332604	5843
2031.86022428337	5847.75
2034.16630557761	5878.75
2036.47170750791	5913.5
2038.77643037331	5853
2041.08047447275	5951.5
2043.38384010509	5882.75
2045.68652756907	5918.25
2047.98853716335	5986
2050.28986918648	5899.5
2052.59052393692	5984
2054.89050171302	6038.5
2057.18980281306	6029.5
2059.4884275352	6002
2061.78637617753	5961.25
2064.08364903802	5971.25
2066.38024641457	6008
2068.67616860497	6044.5
2070.97141590694	6014.75
2073.26598861809	6022
2075.55988703595	6059.5
2077.85311145796	6008.75
2080.14566218145	6068.75
2082.43753950371	6116.5
2084.72874372188	6081
2087.01927513307	6127
2089.30913403428	6088.5
2091.59832072241	6064.25
2093.88683549429	6088.5
2096.17467864666	6137.5
2098.46185047619	6211.5
2100.74835127944	6217.5
2103.03418135292	6197.5
2105.31934099303	6169
2107.6038304961	6289.25
2109.88765015838	6235.5
2112.17080027602	6264
2114.45328114513	6346.25
2116.7350930617	6363
2119.01623632165	6377.25
2121.29671122085	6340
2123.57651805505	6375
2125.85565711996	6391.5
2128.13412871117	6441
2130.41193312424	6438.25
2132.68907065462	6489.25
2134.96554159771	6500.25
2137.24134624881	6533.25
2139.51648490317	6563.5
2141.79095785593	6577.75
2144.0647654022	6602
2146.33790783698	6555.5
2148.61038545524	6606.75
2150.88219855182	6743.75
2153.15334742154	6721
2155.42383235911	6756.75
2157.6936536592	6763.5
2159.9628116164	6733.25
2162.23130652522	6766.25
2164.49913868011	6737.25
2166.76630837544	6802.5
2169.03281590552	6812.25
2171.2986615646	6851
2173.56384564685	6818.25
2175.82836844637	6871.75
2178.0922302572	6922
2180.35543137332	6925.25
2182.61797208862	6913.5
2184.87985269695	6891.25
2187.14107349208	6912.75
2189.40163476773	6965.25
2191.66153681753	6953.25
2193.92077993507	6872.5
2196.17936441386	6908.25
2198.43729054735	6934
2200.69455862894	6976.75
2202.95116895194	7012
2205.20712180962	6968.5
2207.46241749519	7000.25
2209.71705630179	7006.25
2211.97103852248	7001.25
2214.2243644503	7091
2216.47703437819	7066
2218.72904859905	7054.25
2220.98040740571	7057
2223.23111109095	7127.75
2225.4811599475	7018.75
2227.73055426799	7090.75
2229.97929434504	7110
2232.22738047118	7105.75
2234.47481293889	7129.25
2236.72159204058	7242.75
2238.96771806864	7167.25
2241.21319131536	7144
2243.458012073	7098.75
2245.70218063374	7206.75
2247.94569728973	7270.75
2250.18856233304	7154.25
2252.4307760557	7133
2254.67233874967	7234
2256.91325070687	7231
2259.15351221915	7200.25
2261.39312357831	7238
2263.63208507611	7201
2265.87039700422	7248.5
2268.1080596543	7302.5
2270.34507331792	7295.75
2272.5814382866	7305.5
2274.81715485183	7323.5
2277.05222330502	7302.25
2279.28664393755	7293.5
2281.52041704072	7331.25
2283.75354290581	7357.25
2285.98602182401	7332
2288.21785408648	7304.75
2290.44903998434	7320.5
2292.67957980862	7396
2294.90947385033	7339.75
2297.1387224004	7419.25
2299.36732574975	7443.5
2301.59528418921	7414.25
2303.82259800958	7432.5
2306.04926750158	7397.25
2308.27529295593	7383.25
2310.50067466325	7421
2312.72541291412	7425
2314.9495079991	7449.75
2317.17296020866	7416
2319.39576983323	7433.25
2321.61793716322	7443
2323.83946248894	7393.5
2326.06034610069	7460.75
2328.28058828871	7424.75
2330.50018934317	7426.75
2332.7191495542	7484.25
2334.93746921192	7449.75
2337.15514860633	7418.5
2339.37218802743	7401.5
2341.58858776516	7412.25
2343.80434810941	7397.25
2346.01946935001	7487.25
2348.23395177675	7432.25
2350.44779567939	7424
2352.66100134759	7447
2354.87356907101	7419.25
2357.08549913925	7421.75
2359.29679184185	7436.5
2361.50744746829	7450.5
2363.71746630804	7473.25
2365.92684865048	7408.75
2368.13559478499	7419.75
2370.34370500083	7456.25
2372.55117958727	7443.75
2374.75801883352	7409
2376.96422302874	7403.25
2379.16979246202	7384.5
2381.37472742243	7354.5
2383.57902819898	7393.75
2385.78269508063	7321.5
2387.98572835629	7339.5
2390.18812831482	7380.5
2392.38989524505	7415.75
2394.59102943573	7328.5
2396.79153117559	7379.75
2398.9914007533	7337
2401.19063845748	7378.5
2403.38924457672	7367.25
2405.58721939951	7349.75
2407.78456321435	7337.5
2409.98127630966	7324.75
2412.17735897382	7331
2414.37281149517	7371.75
2416.56763416198	7373
2418.76182726249	7428
2420.95539108487	7351.5
2423.14832591726	7362
2425.34063204776	7370.25
2427.53230976439	7293.75
2429.72335935513	7392
2431.91378110795	7344.25
2434.10357531071	7271
2436.29274225125	7357
2438.48128221739	7300
2440.66919549683	7334
2442.8564823773	7317.75
2445.04314314641	7271.75
2447.22917809176	7224.75
2449.4145875009	7332
2451.59937166131	7275.5
2453.78353086044	7255.25
2455.96706538568	7223
2458.14997552436	7250.5
2460.33226156379	7230.75
2462.51392379119	7219.25
2464.69496249376	7137.5
2466.87537795862	7199.75
2469.05517047288	7077
2471.23434032357	7124.5
2473.41288779767	7200.5
2475.59081318211	7134.75
2477.76811676378	7135
2479.9447988295	7117.25
2482.12085966605	7087.25
2484.29629956016	7079.75
2486.4711187985	7135
2488.64531766769	7137.75
2490.8188964543	7081.5
2492.99185544484	7077.5
2495.16419492579	7137.75
2497.33591518353	7067
2499.50701650444	7078.25
2501.67749917482	7067
2503.84736348091	7125
2506.01660970891	7030.75
2508.18523814496	7086.25
2510.35324907514	7084
2512.52064278551	7020
2514.68741956201	7072
2516.85357969058	7113.25
2519.01912345709	7128
2521.18405114735	7083.75
2523.34836304711	7084.25
2525.51205944208	7063.75
2527.6751406179	7088.75
2529.83760686016	7079.25
2531.99945845439	7093.25
2534.16069568606	7100.25
2536.3213188406	7106.25
2538.48132820336	7012.25
2540.64072405965	7056
2542.79950669471	7024.75
2544.95767639373	7100.75
2547.11523344184	6996
2549.27217812411	7023.25
2551.42851072555	7026.25
2553.58423153111	7023
2555.73934082569	6974
2557.89383889412	6958
2560.04772602118	7008.5
2562.20100249158	6938.5
2564.35366858996	6906.25
2566.50572460093	6915.25
2568.65717080901	6875
2570.80800749867	6913
2572.95823495433	6870.25
2575.10785346031	6780.25
2577.25686330093	6858
2579.40526476038	6819.75
2581.55305812282	6825
2583.70024367237	6793
2585.84682169303	6769.25
2587.99279246879	6764.75
2590.13815628354	6741.75
2592.28291342112	6758.25
2594.42706416531	6696.5
2596.5706087998	6702.25
2598.71354760826	6724.5
2600.85588087425	6713.5
2602.99760888127	6714.25
2605.13873191278	6700.25
2607.27925025214	6636.75
2609.41916418269	6707.5
2611.55847398764	6643
2613.69717995017	6664.75
2615.83528235339	6698.5
2617.97278148034	6699.25
2620.10967761398	6648.5
2622.2459710372	6659
2624.38166203284	6688.25
2626.51675088365	6669.75
2628.65123787231	6621
2630.78512328145	6644.75
2632.9184073936	6585.75
2635.05109049124	6659.25
2637.18317285676	6626.25
2639.31465477248	6663.75
2641.44553652067	6610.25
2643.5758183835	6611.25
2645.70550064309	6627.5
2647.83458358144	6655
2649.96306748053	6669.25
2652.09095262223	6633.25
2654.21823928836	6652.75
2656.34492776063	6582
2658.47101832071	6578.25
2660.59651125015	6665
2662.72140683047	6667.5
2664.84570534309	6547.5
2666.96940706934	6560.75
2669.0925122905	6565.75
2671.21502128773	6586.25
2673.33693434215	6571.5
2675.45825173479	6615
2677.57897374658	6551.5
2679.69910065839	6621.75
2681.818632751	6577.25
2683.93757030511	6561.5
2686.05591360133	6530.25
2688.17366292021	6559.5
2690.29081854218	6533.75
2692.40738074762	6516.5
2694.52334981681	6493.5
2696.63872602995	6520.75
2698.75350966713	6558.5
2700.86770100841	6578.5
2702.98130033371	6502
2705.09430792289	6537
2707.20672405571	6581
2709.31854901185	6607.75
2711.42978307091	6573.25
2713.54042651238	6606.75
2715.65047961567	6668
2717.7599426601	6614
2719.86881592491	6634.25
2721.97709968924	6637.25
2724.08479423213	6646.5
2726.19189983255	6625.25
2728.29841676934	6581
2730.4043453213	6601.25
2732.5096857671	6577.25
2734.61443838532	6586
2736.71860345444	6528
2738.82218125286	6496.25
2740.92517205889	6544.25
2743.02757615072	6494.75
2745.12939380646	6468.5
2747.23062530411	6488.25
2749.33127092159	6475.75
2751.4313309367	6434.75
2753.53080562716	6486.75
2755.62969527058	6514.75
2757.72800014448	6446
2759.82572052625	6512.25
2761.92285669323	6436.75
2764.0194089226	6490.25
2766.11537749147	6460
2768.21076267686	6502.25
2770.30556475566	6441.75
2772.39978400465	6439.75
2774.49342070054	6395.75
2776.58647511991	6502.5
2778.67894753923	6442
2780.77083823487	6488.75
2782.8621474831	6395.25
2784.95287556007	6426.25
2787.04302274184	6451.25
2789.13258930433	6447.5
2791.22157552338	6363.25
2793.30998167471	6424
2795.39780803392	6475.25
2797.4850548765	6445.75
2799.57172247786	6423.5
2801.65781111324	6406.25
2803.74332105781	6418
2805.82825258661	6436.25
2807.91260597457	6435.75
2809.9963814965	6396
2812.07957942711	6436
2814.16220004096	6409
2816.24424361252	6430.5
2818.32571041614	6482.25
2820.40660072604	6460.25
2822.48691481631	6546.25
2824.56665296098	6578.5
2826.64581543388	6633.25
2828.72440250876	6665
2830.80241445925	6833.5
2832.87985155885	7000.25
2834.95671408093	7260
2837.03300229875	7582.25
2839.10871648544	7925
2841.18385691399	8520.25
2843.25842385729	8998.25
2845.33241758808	9346.75
2847.40583837898	9589.75
2849.4786865025	9420.5
2851.550962231	9177
2853.6226658367	8937.5
2855.69379759173	8661.5
2857.76435776806	8480.25
2859.83434663753	8293.75
2861.90376447184	8151.25
2863.97261154259	8104.5
2866.0408881212	8034.25
2868.10859447901	8017.25
2870.17573088717	8055
2872.24229761673	8110
2874.30829493859	8321
2876.37372312352	8679
2878.43858244215	9507.25
2880.50287316496	10183.25
2882.56659556231	10068
2884.62974990439	9466.75
2886.69233646129	8880
2888.75435550293	8565.25
2890.81580729909	8524.75
2892.87669211941	8442.75
2894.93701023339	8356
2896.99676191039	8330.5
2899.05594741961	8274.25
2901.1145670301	8181
2903.1726210108	7983.75
2905.23010963045	8017.5
2907.28703315768	7878.75
2909.34339186096	7795
2911.39918600861	7794.25
2913.45441586879	7608
2915.50908170952	7626.25
2917.56318379867	7554.25
2919.61672240395	7607.75
2921.66969779291	7587.5
2923.72211023295	7618.25
2925.77395999134	7568.5
2927.82524733515	7597.75
2929.87597253132	7549.25
2931.92613584663	7465.75
2933.97573754769	7381
2936.02477790097	7320.5
2938.07325717276	7196.5
2940.1211756292	7136.5
2942.16853353626	6989
2944.21533115976	6979
2946.26156876536	6820.5
2948.30724661853	6762.25
2950.3523649846	6773.25
2952.39692412872	6734
2954.44092431587	6732.5
2956.48436581089	6720.5
2958.52724887843	6654
2960.56957378296	6687.25
2962.6113407888	6705.75
2964.65255016011	6690.75
2966.69320216083	6698.5
2968.73329705479	6590.5
2970.77283510559	6659.75
2972.81181657671	6629
2974.8502417314	6703.25
2976.88811083279	6669.25
2978.92542414378	6684.25
2980.96218192713	6633
2982.99838444541	6649.75
2985.034031961	6677.75
2987.06912473612	6697
2989.1036630328	6678
2991.13764711288	6666
2993.17107723804	6648.75
2995.20395366974	6739.5
2997.23627666931	6753
2999.26804649782	6794.75
3001.29926341624	6828.75
3003.32992768528	6759.25
3005.3600395655	6835.25
3007.38959931726	6812.5
3009.41860720076	6765.25
3011.44706347595	6870.25
3013.47496840263	6893
3015.50232224041	6894.5
3017.5291252487	6901.25
3019.5553776867	6844.75
3021.58107981344	6918.25
3023.60623188773	6894.75
3025.63083416822	6933.25
3027.65488691331	6979
3029.67839038125	6950.25
3031.70134483007	6917
3033.72375051759	6951.5
3035.74560770144	6973.25
3037.76691663907	6956.5
3039.78767758768	7024.25
3041.80789080431	6980.75
3043.82755654577	7005.75
3045.84667506867	6961.25
3047.8652466294	6958.25
3049.88327148418	6963.25
3051.90074988899	6987.5
3053.91768209961	6987.75
3055.9340683716	6969.25
3057.94990896033	6986
3059.96520412095	6997.75
3061.97995410838	7012.5
3063.99415917734	6955
3066.00781958234	7012.75
3068.02093557766	6947.25
3070.03350741738	6915.75
3072.04553535535	7007.25
3074.05701964521	6967.5
3076.06796054036	6953
3078.078358294	6984.5
3080.08821315912	6964.5
3082.09752538846	7012.5
3084.10629523454	6886.25
3086.11452294967	7005.25
3088.12220878592	6973.5
3090.12935299515	6977.75
3092.13595582898	6992
3094.1420175388	6923.75
3096.14753837579	6998.25
3098.15251859088	6945.25
3100.15695843477	6970.25
3102.16085815793	6978
3104.16421801061	6970.75
3106.16703824282	6979.5
3108.16931910432	7037.25
3110.17106084464	6949.25
3112.17226371308	7006.25
3114.17292795872	6983.5
3116.17305383034	7028
3118.17264157657	7010.75
3120.17169144571	6994.25
3122.17020368587	7000.5
3124.16817854492	7066.75
3126.16561627044	7029.25
3128.16251710982	7108
3130.15888131017	7038
3132.15470911837	7054.25
3134.15000078104	7048
3136.14475654455	7088.75
3138.13897665502	7129.5
3140.13266135835	7065
3142.12581090014	7091.75
3144.11842552577	7152.75
3146.11050548036	7148.25
3148.10205100875	7139.75
3150.09306235557	7163.25
3152.08353976515	7116.5
3154.07348348158	7061.75
3156.06289374869	7124.75
3158.05177081006	7107.75
3160.04011490899	7159.25
3162.02792628852	7179.25
3164.01520519145	7099
3166.00195186029	7126.75
3167.98816653728	7157.25
3169.97384946442	7133.75
3171.95900088344	7132.5
3173.94362103577	7120.25
3175.92771016259	7151
3177.91126850484	7195.25
3179.89429630312	7179.5
3181.87679379782	7112.5
3183.85876122903	7239.25
3185.84019883657	7213.75
3187.82110685997	7169.25
3189.80148553851	7145.5
3191.78133511116	7195.5
3193.76065581664	7175.5
3195.73944789337	7178.75
3197.7177115795	7157
3199.6954471129	7197.5
3201.67265473114	7144.5
3203.64933467153	7155
3205.62548717107	7188.75
3207.60111246648	7223.75
3209.57621079421	7184.25
3211.55078239041	7272.5
3213.52482749093	7232.5
3215.49834633133	7274.25
3217.4713391469	7270.25
3219.44380617262	7238
3221.41574764317	7366.5
3223.38716379296	7310.5
3225.35805485607	7324.25
3227.32842106631	7296.75
3229.29826265718	7375
3231.26757986187	7342.5
3233.2363729133	7376
3235.20464204405	7376.5
3237.17238748643	7407.5
3239.13960947243	7405.5
3241.10630823374	7397.5
3243.07248400174	7342.75
3245.03813700748	7489.75
3247.00326748177	7450
3248.96787565503	7486.25
3250.93196175742	7447
3252.89552601877	7463.5
3254.8585686686	7429
3256.82108993612	7489
3258.78309005022	7531.75
3260.74456923948	7488.5
3262.70552773215	7484.5
3264.66596575617	7458
3266.62588353916	7511.25
3268.58528130843	7452.25
3270.54415929094	7482.5
3272.50251771336	7453
3274.46035680201	7524
3276.4176767829	7531.75
3278.37447788171	7479
3280.33076032379	7544.75
3282.28652433416	7516.5
3284.24177013751	7489.75
3286.1964979582	7565
3288.15070802027	7560.25
3290.10440054741	7520.5
3292.05757576298	7481.5
3294.01023389001	7486
3295.96237515119	7589.5
3297.91399976887	7502.25
3299.86510796506	7580.25
3301.81569996142	7591.75
3303.76577597932	7510.75
3305.7153362397	7582.25
3307.66438096324	7587.75
3309.61291037024	7597.75
3311.56092468064	7541.25
3313.50842411404	7503
3315.45540888971	7588
3317.40187922656	7509.5
3319.34783534315	7539.25
3321.29327745768	7528.75
3323.23820578801	7476
3325.18262055164	7548.25
3327.1265219657	7544.25
3329.06991024699	7550.25
3331.01278561194	7519.5
3332.95514827662	7447
3334.89699845674	7539.75
3336.83833636766	7504
3338.77916222434	7456.25
3340.71947624143	7514
3342.65927863317	7512
3344.59856961346	7512.75
3346.53734939584	7564.5
3348.47561819344	7525.75
3350.41337621906	7456.75
3352.35062368513	7513.5
3354.28736080368	7529.5
3356.22358778637	7551.5
3358.15930484452	7523
3360.09451218904	7555.25
3362.02921003047	7577.5
3363.96339857898	7569.25
3365.89707804436	7555.5
3367.83024863602	7476
3369.76291056299	7482.25
3371.69506403389	7533.75
3373.62670925699	7536.75
3375.55784644016	7573
3377.4884757909	7607.5
3379.41859751629	7611.25
3381.34821182305	7562.75
3383.27731891749	7649.25
3385.20591900555	7631
3387.13401229276	7619.25
3389.06159898426	7652.5
3390.9886792848	7664.5
3392.91525339872	7712.25
3394.84132152998	7714.75
3396.76688388213	7683.5
3398.69194065833	7635
3400.61649206133	7706.5
3402.54053829348	7688.75
3404.46407955672	7663.5
3406.3871160526	7625
3408.30964798225	7664
3410.23167554639	7701.25
3412.15319894535	7717.75
3414.07421837904	7689.5
3415.99473404695	7656
3417.91474614817	7702
3419.83425488136	7785.25
3421.75326044479	7754.25
3423.67176303631	7719.5
3425.58976285332	7766
3427.50726009282	7692
3429.42425495143	7711
3431.34074762528	7706
3433.25673831012	7679.25
3435.17222720127	7673.5
3437.08721449362	7697.75
3439.00170038164	7667.25
3440.91568505936	7736.5
3442.82916872039	7586
3444.74215155791	7682.5
3446.65463376468	7679
3448.566615533	7716
3450.47809705476	7648.5
3452.3890785214	7606.25
3454.29956012393	7741
3456.20954205293	7662.75
3458.11902449853	7618.75
3460.02800765041	7683
3461.93649169784	7641
3463.84447682962	7611.5
3465.75196323412	7628.5
3467.65895109925	7569.75
3469.56544061249	7659.5
3471.47143196086	7605
3473.37692533093	7665.75
3475.28192090884	7616
3477.18641888026	7687.5
3479.09041943039	7662.25
3480.99392274402	7696.75
3482.89692900545	7639.5
3484.79943839853	7647.75
3486.70145110666	7729
3488.60296731277	7656.75
3490.50398719933	7682.25
3492.40451094836	7580
3494.30453874141	7590.75
3496.20407075956	7659.75
3498.10310718342	7749.75
3500.00164819315	7670.75