200.090469251518	1226.30004882812
202.974751419362	1221.30004882812
205.858021632263	1222.59997558594
208.740280737522	1212.90002441406
211.621529580443	1209.19995117188
214.501769004371	1209.69995117188
217.380999850626	1216
220.25922295859	1212.5
223.136439165646	1209.09997558594
226.012649307235	1215.09997558594
228.88785421682	1199.19995117188
231.762054725918	1216.90002441406
234.635251664113	1218.80004882812
237.507445859021	1203.40002441406
240.378638136346	1215.59997558594
243.248829319855	1212.09997558594
246.11802023137	1223.30004882812
248.986211690826	1214.30004882812
251.853404516227	1218.59997558594
254.719599523654	1223.30004882812
257.584797527335	1223
260.44899933954	1228.59997558594
263.312205770682	1225.09997558594
266.174417629303	1222.40002441406
269.035635722015	1230.80004882812
271.895860853609	1225
274.755093826978	1218.30004882812
277.613335443144	1223.5
280.470586501309	1235.69995117188
283.326847798766	1220.59997558594
286.182120131019	1222.59997558594
289.036404291684	1228.90002441406
291.889701072574	1232
294.742011263643	1227
297.593335653048	1228.5
300.443675027094	1216.30004882812
303.293030170295	1232.59997558594
306.141401865367	1230.80004882812
308.988790893174	1231.90002441406
311.835198032837	1224.69995117188
314.680624061635	1228.19995117188
317.525069755113	1215.19995117188
320.36853588697	1216.40002441406
323.211023229178	1223.90002441406
326.052532551923	1221.09997558594
328.893064623604	1229.5
331.732620210885	1232.30004882812
334.57120007867	1229.80004882812
337.408804990093	1237
340.245435706565	1234.19995117188
343.081092987733	1249.69995117188
345.915777591523	1247.19995117188
348.749490274145	1247.59997558594
351.582231790049	1251.5
354.414002891997	1261.90002441406
357.244804331021	1250.59997558594
360.074636856443	1264.19995117188
362.903501215886	1267.30004882812
365.731398155265	1267.09997558594
368.558328418814	1261.80004882812
371.384292749062	1271
374.209291886869	1274.19995117188
377.033326571407	1293.19995117188
379.85639754017	1291.30004882812
382.678505529009	1296.69995117188
385.499651272065	1291.5
388.319835501872	1289.30004882812
391.139058949258	1281.5
393.957322343453	1286.40002441406
396.774626412011	1279.69995117188
399.590971880847	1285.19995117188
402.406359474258	1292.19995117188
405.220789914893	1292.69995117188
408.034263923801	1293.19995117188
410.8467822204	1300.19995117188
413.658345522483	1308.40002441406
416.468954546242	1314.90002441406
419.278610006277	1322.30004882812
422.087312615557	1334.80004882812
424.895063085503	1333.5
427.701862125901	1346.90002441406
430.507710444981	1331.19995117188
433.312608749366	1346.80004882812
436.116557744146	1351.09997558594
438.919558132791	1348.30004882812
441.721610617238	1350.69995117188
444.522715897856	1364.19995117188
447.322874673457	1355.30004882812
450.122087641299	1334.90002441406
452.920355497092	1332
455.717678935009	1333.69995117188
458.514058647681	1320.19995117188
461.309495326219	1319.59997558594
464.103989660191	1309.59997558594
466.89754233765	1310.09997558594
469.690154045114	1297.90002441406
472.481825467625	1300.90002441406
475.272557288674	1293.90002441406
478.062350190281	1298.5
480.851204852952	1299
483.639121955683	1299.5
486.426102176007	1309.80004882812
489.212146189955	1306.80004882812
491.997254672093	1314.80004882812
494.781428295471	1340.40002441406
497.564667731716	1345.69995117188
500.346973650958	1333.40002441406
503.128346721878	1328.80004882812
505.90878761169	1332.69995117188
508.688296986151	1313.09997558594
511.46687550957	1307.19995117188
514.244523844831	1316.40002441406
517.021242653354	1314.5
519.797032595132	1312.30004882812
522.571894328732	1314.69995117188
525.345828511279	1316.30004882812
528.11883579849	1333.40002441406
530.890916844655	1336.09997558594
533.662072302668	1328.30004882812
536.432302823985	1324.30004882812
539.201609058684	1310.19995117188
541.96999165542	1321.80004882812
544.737451261473	1314.40002441406
547.503988522723	1314.80004882812
550.26960408366	1316.09997558594
553.034298587394	1315
555.798072675669	1328.90002441406
558.560926988819	1339.30004882812
561.322862165849	1333.80004882812
564.083878844369	1342.19995117188
566.843977660654	1345.80004882812
569.603159249604	1342.69995117188
572.361424244769	1359.30004882812
575.118773278369	1356.09997558594
577.87520698124	1355.40002441406
580.630725982905	1379.09997558594
583.385330911566	1382.59997558594
586.139022394076	1383.59997558594
588.891801055954	1385.19995117188
591.643667521406	1405
594.394622413318	1395.59997558594
597.144666353273	1392.40002441406
599.893799961512	1401.59997558594
602.64202385701	1403.09997558594
605.389338657413	1397.80004882812
608.135744979089	1407
610.881243437092	1393.30004882812
613.625834645191	1384.19995117188
616.369519215881	1382.19995117188
619.112297760374	1387.19995117188
621.854170888604	1380.19995117188
624.595139209225	1390.90002441406
627.335203329614	1405.19995117188
630.074363855914	1419
632.81262139299	1400.80004882812
635.549976544436	1365.19995117188
638.286429912612	1354.80004882812
641.021982098635	1353.09997558594
643.756633702364	1360.40002441406
646.49038532241	1349.30004882812
649.223237556176	1346.09997558594
651.955190999808	1344.30004882812
654.686246248224	1356.5
657.416403895135	1343.40002441406
660.145664533011	1359.90002441406
662.874028753133	1354.09997558594
665.601497145537	1363.19995117188
668.328070299071	1356.59997558594
671.05374880138	1358.19995117188
673.778533238885	1365.59997558594
676.502424196839	1374.59997558594
679.225422259297	1368.69995117188
681.947528009099	1364.59997558594
684.668742027927	1371.5
687.389064896281	1374
690.108497193465	1374.19995117188
692.827039497621	1374
695.544692385724	1407.19995117188
698.261456433585	1400.69995117188
700.977332215847	1405.59997558594
703.692320305981	1387.40002441406
706.406421276337	1381.90002441406
709.11963569808	1382.40002441406
711.831964141256	1384.90002441406
714.54340717474	1360.40002441406
717.253965366304	1360.09997558594
719.963639282552	1364.5
722.672429488961	1357.90002441406
725.380336549904	1358.69995117188
728.087361028596	1365.69995117188
730.793503487166	1365
733.498764486594	1373.80004882812
736.203144586758	1359.90002441406
738.906644346447	1372.19995117188
741.60926432331	1368.59997558594
744.311005073912	1376.69995117188
747.011867153727	1378.59997558594
749.711851117121	1377.5
752.410957517375	1385.69995117188
755.109186906677	1386.90002441406
757.806539836132	1362.80004882812
760.503016855779	1384.09997558594
763.198618514551	1375.80004882812
765.893345360346	1383
768.587197939964	1380.5
771.28017679914	1392
773.972282482566	1386.59997558594
776.663515533859	1390.19995117188
779.353876495581	1378.90002441406
782.043365909241	1376.69995117188
784.731984315327	1387.19995117188
787.419732253235	1381.5
790.106610261366	1393.09997558594
792.792618877058	1398.09997558594
795.477758636618	1398.09997558594
798.162030075313	1394.19995117188
800.845433727423	1399.09997558594
803.52797012615	1382.09997558594
806.209639803714	1396
808.890443291304	1393.09997558594
811.570381119098	1404
814.249453816265	1398.09997558594
816.927661910959	1404.69995117188
819.60500593036	1396.40002441406
822.281486400603	1401.80004882812
824.957103846864	1404.09997558594
827.631858793316	1413.90002441406
830.305751763135	1412.80004882812
832.978783278519	1411.19995117188
835.650953860677	1433
838.322264029848	1420.5
840.992714305292	1437.90002441406
843.662305205289	1445.59997558594
846.331037247157	1453.5
848.998910947241	1469.5
851.665926820933	1488.80004882813
854.332085382674	1515.69995117187
856.997387145915	1502
859.661832623191	1508.09997558594
862.325422326066	1463.80004882813
864.988156765172	1455.80004882813
867.650036450181	1462.5
870.311061889846	1446.59997558594
872.971233591961	1432
875.630552063409	1433.59997558594
878.28901781013	1435.09997558594
880.946631337138	1426.90002441406
883.603393148533	1432
886.259303747484	1433.69995117188
888.914363636246	1435.09997558594
891.568573316155	1441.69995117187
894.22193328767	1436.30004882812
896.874444050281	1437.19995117188
899.526106102625	1433.5
902.176919942416	1446.19995117187
904.826886066483	1443.80004882813
907.476004970747	1458.59997558594
910.124277150255	1470
912.77170309913	1474.90002441406
915.418283310642	1482.30004882813
918.064018277175	1455.90002441406
920.708908490222	1470.80004882813
923.352954440405	1469.90002441406
925.996156617486	1452.30004882813
928.638515510334	1462.80004882813
931.280031606966	1468.69995117187
933.920705394521	1465.09997558594
936.560537359303	1452.69995117187
939.199527986737	1479.19995117187
941.837677761392	1485.09997558594
944.474987167006	1489
947.111456686438	1501.09997558594
949.747086801734	1511.40002441406
952.38187799407	1511.80004882813
955.015830743792	1519.19995117187
957.648945530418	1511.69995117187
960.281222832633	1502.09997558594
962.91266312826	1484.19995117187
965.543266894336	1491.5
968.173034607058	1487
970.801966741779	1488.19995117187
973.43006377307	1491
976.057326174661	1486.69995117187
978.683754419471	1488.19995117187
981.309348979623	1488.80004882813
983.93411032642	1489.69995117187
986.558038930361	1499.5
989.181135261144	1490.59997558594
991.803399787692	1504.40002441406
994.424832978086	1498.80004882813
997.045435299653	1502.19995117187
999.665207218906	1509.30004882813
1002.2841492016	1504.09997558594
1004.90226171266	1507.09997558594
1007.51954521628	1520.69995117187
1010.13600017584	1513.40002441406
1012.75162705397	1511.59997558594
1015.3664263125	1521.69995117187
1017.9803984125	1529.30004882813
1020.5935438143	1523.5
1023.20586297741	1523.5
1025.81735636063	1535.5
1028.42802442196	1519.59997558594
1031.03786761869	1542.5
1033.64688640732	1539.30004882813
1036.2550812436	1541.09997558594
1038.86245258255	1543.19995117187
1041.46900087844	1538.90002441406
1044.07472658479	1553.59997558594
1046.67963015438	1547.40002441406
1049.28371203927	1540.80004882813
1051.88697269075	1552.09997558594
1054.48941255943	1546.80004882813
1057.09103209513	1544.90002441406
1059.691831747	1532.5
1062.29181196343	1558.69995117187
1064.89097319211	1548.30004882813
1067.48931587999	1550.19995117187
1070.08684047333	1556.69995117187
1072.68354741766	1557.19995117187
1075.27943715779	1550.19995117187
1077.87451013787	1567.5
1080.46876680127	1569.19995117187
1083.06220759071	1571.40002441406
1085.65483294822	1570.59997558594
1088.24664331509	1584
1090.83763913194	1602.59997558594
1093.42782083869	1605.30004882813
1096.01718887459	1595
1098.60574367818	1590
1101.19348568732	1597.59997558594
1103.78041533919	1606.80004882813
1106.3665330703	1608.30004882813
1108.95183931646	1605.19995117187
1111.53633451284	1597.59997558594
1114.12001909391	1619.90002441406
1116.70289349349	1635.90002441406
1119.2849581447	1628.40002441406
1121.86621348005	1621.80004882813
1124.44665993134	1611.69995117187
1127.02629792973	1617
1129.60512790574	1603.40002441406
1132.18315028919	1627.90002441406
1134.76036550929	1614.5
1137.3367739946	1616.59997558594
1139.912376173	1625
1142.48717247176	1612.09997558594
1145.06116331748	1605.09997558594
1147.63434913616	1624
1150.20673035312	1628.09997558594
1152.77830739307	1647
1155.34908068007	1644
1157.91905063757	1646.5
1160.48821768838	1656.40002441406
1163.05658225471	1643.69995117187
1165.6241447581	1632.80004882813
1168.19090561951	1641.40002441406
1170.75686525927	1641.5
1173.32202409708	1652.19995117187
1175.88638255206	1647.19995117187
1178.44994104269	1638.59997558594
1181.01269998684	1649.59997558594
1183.57465980182	1654.19995117187
1186.13582090427	1647.59997558594
1188.69618371026	1649.40002441406
1191.25574863529	1649.30004882813
1193.8145160942	1641.5
1196.37248650129	1647.5
1198.92966027025	1640.5
1201.48603781416	1628.19995117187
1204.04161954556	1652.59997558594
1206.59640587635	1641
1209.15039721788	1637.40002441406
1211.70359398092	1645.5
1214.25599657564	1655.09997558594
1216.80760541166	1645.30004882813
1219.35842089801	1660.5
1221.90844344314	1661.40002441406
1224.45767345496	1660.90002441406
1227.00611134077	1668.80004882813
1229.55375750736	1682.90002441406
1232.10061236092	1667.40002441406
1234.64667630707	1693
1237.1919497509	1678
1239.73643309692	1690.90002441406
1242.28012674912	1691.5
1244.82303111089	1702
1247.36514658511	1708.19995117187
1249.9064735741	1729
1252.44701247964	1732.90002441406
1254.98676370294	1749.19995117187
1257.52572764469	1758.80004882813
1260.06390470506	1764.5
1262.60129528365	1763.90002441406
1265.13789977954	1786.5
1267.67371859128	1783.69995117187
1270.20875211688	1808.09997558594
1272.74300075384	1793.09997558594
1275.2764648991	1820.90002441406
1277.80914494911	1816.90002441406
1280.34104129978	1829.69995117187
1282.87215434652	1841.59997558594
1285.40248448419	1838
1287.93203210715	1837.30004882813
1290.46079760927	1846.59997558594
1292.98878138385	1827.19995117187
1295.51598382375	1827
1298.04240532127	1815.80004882813
1300.56804626822	1820
1303.09290705593	1809.69995117187
1305.6169880752	1815.59997558594
1308.14028971632	1835.69995117187
1310.66281236913	1853.80004882813
1313.18455642292	1854.40002441406
1315.70552226653	1863.80004882813
1318.22571028829	1875.59997558594
1320.74512087603	1892.30004882813
1323.26375441711	1909.30004882813
1325.7816112984	1921.59997558594
1328.29869190629	1903.5
1330.81499662666	1912.59997558594
1333.33052584497	1892
1335.84527994613	1899.19995117187
1338.35925931464	1887.30004882813
1340.87246433446	1903.09997558594
1343.38489538916	1906.69995117187
1345.89655286177	1910.90002441406
1348.40743713487	1909.59997558594
1350.91754859059	1924.59997558594
1353.42688761059	1924.40002441406
1355.93545457606	1953.30004882813
1358.44324986772	1957.40002441406
1360.95027386588	1957.19995117187
1363.45652695032	1961.40002441406
1365.96200950042	1968.69995117187
1368.4667218951	1974.80004882813
1370.97066451281	1993.5
1373.47383773156	1966.40002441406
1375.97624192891	1979.69995117187
1378.47787748199	1984.5
1380.97874476746	2003.80004882813
1383.47884416157	1984.09997558594
1385.97817604009	1968.59997558594
1388.4767407784	1966
1390.9745387514	1930.69995117187
1393.47157033358	1923.69995117187
1395.96783589898	1944
1398.46333582124	1917.30004882813
1400.95807047354	1922.90002441406
1403.45204022864	1922.90002441406
1405.94524545889	1918.09997558594
1408.4376865362	1918.09997558594
1410.92936383205	1912.5
1413.42027771752	1923.30004882813
1415.91042856328	1913.90002441406
1418.39981673955	1926.69995117187
1420.88844261615	1925.09997558594
1423.37630656249	1917.40002441406
1425.86340894757	1904.80004882813
1428.34975013999	1921.19995117187
1430.83533050792	1935.90002441406
1433.32015041912	1931.69995117187
1435.80421024098	1946.5
1438.28751034045	1961.80004882813
1440.77005108411	1966.5
1443.25183283812	1965.80004882813
1445.73285596824	1972.09997558594
1448.21312083984	1976.40002441406
1450.69262781791	1978.90002441406
1453.17137726702	2002.80004882813
1455.64936955137	2006.40002441406
1458.12660503477	1996.19995117187
1460.60308408063	2022.59997558594
1463.07880705197	2012.19995117187
1465.55377431145	2034.69995117187
1468.02798622133	2019
1470.50144314348	2027.69995117187
1472.97414543941	1998.90002441406
1475.44609347024	2035.80004882813
1477.91728759673	2052.39990234375
1480.38772817924	2076.5
1482.85741557777	2086.10009765625
1485.32635015194	2086.30004882813
1487.79453226103	2088.60009765625
1490.26196226391	2093.10009765625
1492.72864051911	2078.80004882813
1495.1945673848	2066.39990234375
1497.65974321874	2052.10009765625
1500.1241683784	2048.5
1502.58784322083	2031.59997558594
1505.05076810274	2029.90002441406
1507.51294338049	2022.90002441406
1509.97436941009	2039.09997558594
1512.43504654717	2043.90002441406
1514.89497514704	2045.5
1517.35415556462	2053.60009765625
1519.81258815451	2044.59997558594
1522.27027327095	2041.80004882813
1524.72721126784	2051.89990234375
1527.18340249874	2057.80004882813
1529.63884731684	2088.5
1532.09354607502	2082
1534.5474991258	2083.5
1537.00070682136	2074
1539.45316951355	2083.60009765625
1541.90488755388	2073.39990234375
1544.35586129353	2084.39990234375
1546.80609108336	2095.80004882813
1549.25557727385	2103.69995117187
1551.70432021519	2109.5
1554.15232025725	2151.5
1556.59957774953	2156.89990234375
1559.04609304125	2194
1561.49186648127	2187.69995117187
1563.93689841815	2201
1566.38118920011	2217
1568.82473917506	2202.5
1571.2675486906	2201.60009765625
1573.70961809399	2220.30004882813
1576.15094773219	2206.69995117187
1578.59153795184	2197.19995117187
1581.03138909928	2214
1583.47050152051	2269.30004882813
1585.90887556123	2268.30004882813
1588.34651156686	2284.80004882813
1590.78340988246	2283
1593.21957085283	2297.60009765625
1595.65499482245	2287
1598.08968213547	2303
1600.52363313578	2319.19995117187
1602.95684816694	2338.60009765625
1605.38932757224	2368.10009765625
1607.82107169462	2409.5
1610.25208087677	2453.39990234375
1612.68235546107	2469.10009765625
1615.1118957896	2395.69995117187
1617.54070220415	2340.5
1619.96877504621	2266.19995117187
1622.39611465701	2233.19995117187
1624.82272137746	2235.30004882813
1627.24859554818	2200.89990234375
1629.67373750953	2192.30004882813
1632.09814760155	2191.89990234375
1634.52182616404	2191.39990234375
1636.94477353647	2188.30004882813
1639.36699005806	2183.5
1641.78847606776	2206.60009765625
1644.20923190418	2192
1646.62925790573	2193.89990234375
1649.04855441048	2194.69995117187
1651.46712175628	2210.10009765625
1653.88496028066	2204.30004882813
1656.3020703209	2216.60009765625
1658.71845221401	2201.19995117187
1661.13410629671	2225.39990234375
1663.54903290547	2227.19995117187
1665.96323237649	2234
1668.37670504571	2236.5
1670.78945124877	2255
1673.20147132109	2269.30004882813
1675.61276559779	2286.5
1678.02333441377	2274.30004882813
1680.43317810362	2264.69995117187
1682.84229700171	2293.69995117187
1685.25069144213	2289.39990234375
1687.65836175872	2309.30004882813
1690.06530828507	2320.80004882813
1692.47153135451	2321.89990234375
1694.87703130009	2306.89990234375
1697.28180845467	2328.80004882813
1699.6858631508	2316.39990234375
1702.08919572081	2340.69995117187
1704.49180649676	2342
1706.89369581049	2351.5
1709.29486399355	2348
1711.69531137731	2348.19995117187
1714.09503829282	2375
1716.49404507095	2402.10009765625
1718.89233204229	2445
1721.28989953721	2466.39990234375
1723.68674788581	2530.89990234375
1726.08287741798	2547.5
1728.47828846338	2527.60009765625
1730.87298135139	2494.39990234375
1733.26695641119	2466
1735.66021397173	2443.80004882813
1738.05275436169	2411.30004882813
1740.44457790954	2408.80004882813
1742.83568494354	2400.60009765625
1745.22607579168	2379
1747.61575078175	2359.5
1750.00471024128	2376.19995117187
1752.39295449761	2364.60009765625
1754.78048387783	2372.5
1757.16729870881	2370.80004882813
1759.5533993172	2375.39990234375
1761.93878602942	2373.89990234375
1764.32345917168	2365.10009765625
1766.70741906995	2394.39990234375
1769.09066604999	2389.5
1771.47320043735	2391.39990234375
1773.85502255735	2393.30004882813
1776.2361327351	2385.80004882813
1778.61653129548	2389.30004882813
1780.99621856318	2415.39990234375
1783.37519486264	2423.5
1785.75346051813	2432.5
1788.13101585368	2431.10009765625
1790.5078611931	2414.60009765625
1792.88399686002	2422.80004882813
1795.25942317785	2441
1797.63414046977	2456.89990234375
1800.00814905878	2443.30004882813
1802.38144926766	2450.89990234375
1804.75404141898	2455.89990234375
1807.12592583514	2446.89990234375
1809.49710283829	2486.89990234375
1811.86757275039	2481.69995117187
1814.23733589322	2471.60009765625
1816.60639258834	2481.80004882813
1818.97474315712	2464.30004882813
1821.34238792073	2482.80004882813
1823.70932720012	2474.5
1826.07556131608	2478.10009765625
1828.44109058918	2469.5
1830.8059153398	2493.80004882813
1833.17003588812	2469
1835.53345255413	2487
1837.89616565765	2483.69995117187
1840.25817551827	2490.69995117187
1842.61948245541	2498.19995117187
1844.9800867883	2488.5
1847.33998883598	2501.69995117187
1849.69918891729	2516.10009765625
1852.05768735091	2524.60009765625
1854.4154844553	2503.19995117187
1856.77258054875	2507.30004882813
1859.12897594938	2504.80004882813
1861.4846709751	2505.80004882813
1863.83966594366	2508.10009765625
1866.19396117261	2514.60009765625
1868.54755697932	2516.39990234375
1870.90045368099	2543
1873.25265159463	2533.39990234375
1875.60415103708	2537.69995117187
1877.95495232501	2557.39990234375
1880.30505577486	2544.19995117187
1882.65446170299	2572.69995117187
1885.00317042548	2580.60009765625
1887.35118225832	2579.80004882813
1889.69849751726	2582.89990234375
1892.04511651792	2587.80004882813
1894.39103957574	2621.30004882813
1896.73626700596	2615.30004882813
1899.08079912368	2629.80004882813
1901.42463624384	2628.80004882813
1903.76777868116	2642.80004882813
1906.11022675025	2636.10009765625
1908.4519807655	2644.10009765625
1910.79304104117	2654.5
1913.13340789134	2654.69995117187
1915.47308162992	2646.69995117187
1917.81206257067	2654
1920.15035102718	2678.80004882813
1922.48794731286	2671.80004882813
1924.82485174096	2706.69995117187
1927.16106462461	2664.30004882813
1929.49658627672	2710.80004882813
1931.83141701008	2693.30004882813
1934.1655571373	2692.60009765625
1936.49900697085	2679.69995117187
1938.83176682301	2684.19995117187
1941.16383700594	2710.89990234375
1943.49521783161	2699
1945.82590961186	2704.69995117187
1948.15591265835	2676.30004882813
1950.48522728262	2696.10009765625
1952.81385379602	2673.10009765625
1955.14179250976	2689.10009765625
1957.46904373489	2701
1959.79560778233	2704.69995117187
1962.12148496284	2717.10009765625
1964.44667558701	2713.5
1966.77117996529	2737.10009765625
1969.09499840799	2707.89990234375
1971.41813122527	2718.80004882813
1973.74057872714	2735.19995117187
1976.06234122345	2748.30004882813
1978.38341902391	2753.19995117187
1980.7038124381	2740.89990234375
1983.02352177543	2750
1985.34254734518	2749
1987.66088945649	2739
1989.97854841833	2786.10009765625
1992.29552453956	2765.19995117187
1994.61181812887	2760.60009765625
1996.92742949483	2786.60009765625
1999.24235894586	2822
2001.55660679023	2820.19995117187
2003.87017333608	2825.5
2006.18305889143	2818.39990234375
2008.49526376413	2846.30004882813
2010.80678826189	2823.89990234375
2013.1176326923	2826.80004882813
2015.42779736282	2849.10009765625
2017.73728258075	2846.60009765625
2020.04608865326	2852.80004882813
2022.3542158874	2853.39990234375
2024.66166459008	2900.89990234375
2026.96843506807	2871.39990234375
2029.274527628	2891.39990234375
2031.57994257637	2910.80004882812
2033.88468021957	2911.69995117188
2036.18874086383	2915.39990234375
2038.49212481526	2911.19995117188
2040.79483237983	2932.19995117188
2043.0968638634	2943.60009765625
2045.39821957169	2930.19995117188
2047.69889981028	2929.10009765625
2049.99890488462	2936.30004882812
2052.29823510006	2958.30004882812
2054.59689076181	2941.10009765625
2056.89487217492	2950.10009765625
2059.19217964437	2961.39990234375
2061.48881347497	2949
2063.7847739714	2967.5
2066.08006143826	2961.19995117188
2068.37467618	2959.5
2070.66861850093	2965
2072.96188870527	2957.5
2075.25448709707	2964.69995117188
2077.54641398031	2992.89990234375
2079.83766965881	2973.10009765625
2082.12825443629	2973
2084.41816861634	2970.89990234375
2086.70741250242	3001.60009765625
2088.99598639789	3010.89990234375
2091.28389060597	2981.19995117188
2093.57112542978	2969.80004882812
2095.85769117232	2988.5
2098.14358813644	2996.89990234375
2100.42881662491	3003.69995117188
2102.71337694037	3029.5
2104.99726938532	3029.10009765625
2107.28049426219	3015.80004882812
2109.56305187325	3029.89990234375
2111.84494252069	3039.30004882812
2114.12616650655	3031.19995117188
2116.40672413278	3034.39990234375
2118.68661570121	3017.19995117188
2120.96584151355	3074.5
2123.24440187138	3095.5
2125.52229707622	3100.30004882812
2127.79952742943	3082.80004882812
2130.07609323227	3100.19995117188
2132.35199478588	3104.39990234375
2134.62723239132	3111.10009765625
2136.90180634949	3113.39990234375
2139.17571696123	3091.39990234375
2141.44896452723	3134.69995117188
2143.72154934809	3155.30004882812
2145.99347172429	3155
2148.26473195623	3154.10009765625
2150.53533034415	3172.30004882812
2152.80526718821	3174.89990234375
2155.07454278848	3164.69995117188
2157.3431574449	3172.19995117188
2159.61111145728	3173.39990234375
2161.87840512538	3198.60009765625
2164.1450387488	3190
2166.41101262707	3208.19995117188
2168.67632705959	3226.19995117188
2170.94098234567	3221.39990234375
2173.20497878451	3218.10009765625
2175.46831667519	3232.30004882812
2177.73099631672	3247.69995117188
2179.99301800797	3247.19995117188
2182.25438204772	3254.89990234375
2184.51508873466	3258.5
2186.77513836735	3246.19995117188
2189.03453124427	3262.19995117188
2191.29326766378	3241.5
2193.55134792416	3265.5
2195.80877232355	3277.80004882812
2198.06554116004	3270.80004882812
2200.32165473157	3247.60009765625
2202.577113336	3282
2204.83191727111	3285.39990234375
2207.08606683453	3277.19995117188
2209.33956232384	3287.69995117188
2211.59240403648	3283
2213.84459226982	3287.60009765625
2216.09612732112	3302.19995117188
2218.34700948753	3287.10009765625
2220.59723906612	3295.80004882812
2222.84681635385	3314.69995117188
2225.09574164758	3306.10009765625
2227.34401524408	3322.89990234375
2229.59163744002	3298.10009765625
2231.83860853197	3316.60009765625
2234.08492881639	3308
2236.33059858968	3301.39990234375
2238.5756181481	3356.30004882812
2240.81998778784	3342.80004882812
2243.06370780499	3322.5
2245.30677849555	3361.5
2247.54920015539	3341.60009765625
2249.79097308033	3367.30004882812
2252.03209756607	3352.30004882812
2254.27257390822	3341.30004882812
2256.51240240228	3329.30004882812
2258.75158334369	3340.30004882812
2260.99011702777	3354.5
2263.22800374976	3388.80004882812
2265.46524380477	3379.60009765625
2267.70183748786	3360.39990234375
2269.93778509399	3383.19995117188
2272.17308691801	3380.89990234375
2274.40774325467	3390.60009765625
2276.64175439866	3385.80004882812
2278.87512064454	3391.19995117188
2281.10784228682	3396.89990234375
2283.33991961987	3403.60009765625
2285.571352938	3403.80004882812
2287.80214253541	3394.39990234375
2290.03228870623	3415.30004882812
2292.26179174449	3392.19995117188
2294.4906519441	3405.10009765625
2296.71886959892	3434.39990234375
2298.9464450027	3392.60009765625
2301.1733784491	3431.5
2303.39967023169	3407.80004882812
2305.62532064395	3410.19995117188
2307.85032997926	3432.80004882812
2310.07469853093	3433.5
2312.29842659216	3436.89990234375
2314.52151445608	3462.19995117188
2316.7439624157	3435
2318.96577076397	3474
2321.18693979374	3457.80004882812
2323.40746979777	3478.60009765625
2325.62736106873	3477.89990234375
2327.8466138992	3463.10009765625
2330.06522858166	3485.60009765625
2332.28320540853	3477.5
2334.50054467212	3463.19995117188
2336.71724666465	3468.5
2338.93331167827	3487.89990234375
2341.14874000501	3485.39990234375
2343.36353193685	3471
2345.57768776564	3488.60009765625
2347.79120778319	3486.5
2350.00409228117	3482.89990234375
2352.21634155121	3496.5
2354.42795588482	3493.5
2356.63893557342	3504.89990234375
2358.84928090838	3491.19995117188
2361.05899218094	3502.30004882812
2363.26806968228	3474.19995117188
2365.47651370347	3498.39990234375
2367.68432453552	3478.19995117188
2369.89150246933	3501.39990234375
2372.09804779571	3499.10009765625
2374.30396080541	3488.89990234375
2376.50924178907	3493
2378.71389103725	3506.30004882812
2380.91790884042	3516.39990234375
2383.12129548897	3488.69995117188
2385.3240512732	3492.89990234375
2387.52617648332	3471.89990234375
2389.72767140946	3474.39990234375
2391.92853634165	3478
2394.12877156985	3481.39990234375
2396.32837738392	3522.89990234375
2398.52735407365	3494.69995117188
2400.72570192873	3459.39990234375
2402.92342123875	3460.30004882812
2405.12051229325	3471.19995117188
2407.31697538167	3472.89990234375
2409.51281079333	3480.69995117188
2411.70801881751	3472.89990234375
2413.90259974339	3507.80004882812
2416.09655386004	3498.19995117188
2418.28988145648	3452.80004882812
2420.48258282162	3490.10009765625
2422.6746582443	3472.10009765625
2424.86610801325	3542.39990234375
2427.05693241713	3489
2429.24713174452	3506.39990234375
2431.43670628389	3496.10009765625
2433.62565632365	3493.60009765625
2435.81398215212	3489.10009765625
2438.00168405752	3468.30004882812
2440.18876232799	3492.10009765625
2442.37521725158	3474.80004882812
2444.56104911628	3478.60009765625
2446.74625820994	3483.80004882812
2448.93084482038	3461.69995117188
2451.1148092353	3501.30004882812
2453.29815174233	3493.30004882812
2455.480872629	3488.60009765625
2457.66297218275	3454.80004882812
2459.84445069097	3431.39990234375
2462.02530844092	3457.5
2464.2055457198	3434.10009765625
2466.38516281471	3448
2468.56416001267	3449
2470.74253760061	3463.60009765625
2472.92029586537	3435.80004882812
2475.09743509372	3453.10009765625
2477.27395557232	3432.30004882812
2479.44985758777	3465.30004882812
2481.62514142655	3451.39990234375
2483.79980737508	3434.10009765625
2485.97385571969	3455.80004882812
2488.14728674661	3424.89990234375
2490.32010074198	3437.69995117188
2492.49229799188	3441.19995117188
2494.66387878228	3431.39990234375
2496.83484339905	3469.5
2499.00519212802	3471.5
2501.17492525488	3437.10009765625
2503.34404306528	3484
2505.51254584473	3473.60009765625
2507.6804338787	3474.39990234375
2509.84770745254	3468.80004882812
2512.01436685153	3447.5
2514.18041236085	3448.80004882812
2516.34584426561	3489.19995117188
2518.51066285081	3481.19995117188
2520.67486840138	3491.5
2522.83846120214	3488.89990234375
2525.00144153784	3472.39990234375
2527.16380969314	3487.69995117188
2529.32556595261	3510.89990234375
2531.48671060072	3504.80004882812
2533.64724392186	3493.19995117188
2535.80716620033	3511.5
2537.96647772034	3478.60009765625
2540.12517876602	3500
2542.2832696214	3503.30004882812
2544.44075057041	3503.69995117188
2546.59762189691	3486.80004882812
2548.75388388466	3488.80004882812
2550.90953681735	3485.60009765625
2553.06458097853	3496.89990234375
2555.21901665172	3489.5
2557.37284412031	3511.80004882812
2559.5260636676	3482.39990234375
2561.67867557684	3503.69995117188
2563.83068013113	3490.80004882812
2565.98207761351	3499.19995117188
2568.13286830695	3483.39990234375
2570.28305249429	3459.69995117188
2572.43263045829	3454.5
2574.58160248163	3454.69995117188
2576.72996884689	3417.80004882812
2578.87772983655	3435.30004882812
2581.02488573303	3485.60009765625
2583.1714368186	3434.80004882812
2585.31738337549	3424.69995117188
2587.46272568582	3440.19995117188
2589.60746403161	3450.89990234375
2591.75159869479	3453.19995117188
2593.89512995722	3433
2596.03805810061	3442.10009765625
2598.18038340665	3462.10009765625
2600.32210615686	3421.30004882812
2602.46322663274	3453.60009765625
2604.60374511563	3463.69995117188
2606.74366188683	3437.5
2608.88297722751	3423.69995117188
2611.02169141875	3457.89990234375
2613.15980474156	3468.80004882812
2615.29731747681	3444.69995117188
2617.43422990532	3472.5
2619.57054230779	3460.5
2621.70625496483	3432.5
2623.84136815694	3451
2625.97588216456	3472.39990234375
2628.10979726799	3448
2630.24311374746	3465.30004882812
2632.3758318831	3495.89990234375
2634.50795195493	3430.69995117188
2636.6394742429	3475.80004882812
2638.77039902682	3473.80004882812
2640.90072658645	3473.30004882812
2643.0304572014	3481.89990234375
2645.15959115123	3462.60009765625
2647.28812871538	3483.89990234375
2649.41607017319	3500.19995117188
2651.5434158039	3505.5
2653.67016588665	3475.30004882812
2655.79632070049	3470.10009765625
2657.92188052436	3465.89990234375
2660.04684563711	3487.5
2662.17121631749	3476.19995117188
2664.29499284413	3512.89990234375
2666.41817549558	3484.10009765625
2668.54076455027	3476.10009765625
2670.66276028656	3469.60009765625
2672.78416298267	3500.39990234375
2674.90497291675	3486
2677.02519036682	3488.60009765625
2679.14481561082	3516.10009765625
2681.26384892658	3511
2683.38229059182	3484.39990234375
2685.50014088417	3484.39990234375
2687.61740008114	3492.89990234375
2689.73406846017	3490.30004882812
2691.85014629854	3516.89990234375
2693.96563387347	3498.5
2696.08053146206	3502.30004882812
2698.1948393413	3480.89990234375
2700.3085577881	3502.39990234375
2702.42168707924	3504.39990234375
2704.53422749139	3487.69995117188
2706.64617930112	3488.19995117188
2708.75754278492	3500.89990234375
2710.86831821913	3524.60009765625
2712.97850588002	3508.80004882812
2715.08810604372	3501.60009765625
2717.19711898628	3500.60009765625
2719.30554498363	3497.30004882812
2721.41338431158	3507.30004882812
2723.52063724586	3489.80004882812
2725.62730406206	3511.19995117188
2727.73338503569	3502.10009765625
2729.83888044213	3482.19995117188
2731.94379055664	3507.39990234375
2734.04811565441	3515.10009765625
2736.15185601048	3512.10009765625
2738.25501189979	3500.69995117188
2740.35758359718	3504.39990234375
2742.45957137738	3521.5
2744.56097551499	3523.69995117188
2746.6617962845	3519
2748.7620339603	3540.5
2750.86168881666	3535.5
2752.96076112774	3512.60009765625
2755.05925116758	3512.30004882812
2757.15715921012	3516.19995117188
2759.25448552917	3504.89990234375
2761.35123039843	3523.5
2763.44739409148	3551.5
2765.5429768818	3510.5
2767.63797904275	3544.80004882812
2769.73240084756	3520.80004882812
2771.82624256934	3539.60009765625
2773.91950448113	3523.30004882812
2776.01218685579	3567.69995117188
2778.10428996609	3565.5
2780.19581408469	3544.89990234375
2782.28675948414	3595.10009765625
2784.37712643683	3553.60009765625
2786.46691521507	3556.80004882812
2788.55612609104	3544.39990234375
2790.64475933678	3554.39990234375
2792.73281522425	3533.30004882812
2794.82029402525	3549.5
2796.90719601149	3567.5
2798.99352145453	3550.19995117188
2801.07927062583	3525.39990234375
2803.16444379672	3553.19995117188
2805.24904123841	3541.69995117188
2807.33306322197	3570.5
2809.41651001838	3582.10009765625
2811.49938189847	3561.5
2813.58167913296	3581.39990234375
2815.66340199243	3580.69995117188
2817.74455074734	3569.10009765625
2819.82512566805	3586.69995117188
2821.90512702475	3554.60009765625
2823.98455508754	3541.89990234375
2826.06341012637	3573.39990234375
2828.14169241109	3587.5
2830.2194022114	3594.5
2832.29653979686	3582.69995117188
2834.37310543694	3568.19995117188
2836.44909940096	3592.89990234375
2838.5245219581	3591.30004882812
2840.59937337744	3606.80004882812
2842.67365392791	3595.89990234375
2844.74736387829	3594.39990234375
2846.82050349727	3601.10009765625
2848.8930730534	3647.30004882812
2850.96507281506	3626
2853.03650305056	3637.80004882812
2855.10736402802	3642.10009765625
2857.17765601545	3627.19995117188
2859.24737928074	3641.80004882812
2861.31653409164	3649.19995117188
2863.38512071574	3656.80004882812
2865.45313942054	3664.60009765625
2867.52059047335	3660.89990234375
2869.58747414139	3678.5
2871.65379069173	3677
2873.7195403913	3651.69995117188
2875.78472350688	3680
2877.84934030515	3678.19995117188
2879.91339105262	3711.69995117188
2881.97687601567	3688.30004882812
2884.03979546053	3689.80004882812
2886.10214965332	3701.69995117188
2888.16393886	3704.10009765625
2890.22516334639	3713
2892.28582337816	3714.10009765625
2894.34591922087	3706.80004882812
2896.40545113992	3692.5
2898.46441940054	3731.80004882812
2900.52282426787	3713
2902.58066600687	3744
2904.63794488237	3760.60009765625
2906.69466115906	3696.60009765625
2908.75081510147	3746.5
2910.806406974	3750.30004882812
2912.8614370409	3744.39990234375
2914.91590556626	3746.39990234375
2916.96981281404	3737.39990234375
2919.02315904807	3728.30004882812
2921.07594453199	3743.39990234375
2923.12816952932	3722.89990234375
2925.17983430343	3730.69995117188
2927.23093911753	3735.80004882812
2929.28148423469	3728.39990234375
2931.33146991782	3708.80004882812
2933.3808964297	3728.5
2935.42976403294	3704.19995117188
2937.47807299	3733.80004882812
2939.5258235632	3703.5
2941.57301601469	3716.19995117188
2943.61965060648	3698.5
2945.66572760042	3707.69995117188
2947.71124725823	3727.80004882812
2949.75620984143	3738.30004882812
2951.80061561143	3730.39990234375
2953.84446482945	3708
2955.88775775656	3741.89990234375
2957.9304946537	3722.60009765625
2959.97267578162	3734
2962.01430140095	3745
2964.05537177211	3744.60009765625
2966.09588715541	3722.89990234375
2968.13584781097	3772.19995117188
2970.17525399875	3791.30004882812
2972.21410597859	3723.19995117188
2974.25240401011	3736.39990234375
2976.29014835283	3738
2978.32733926604	3748.30004882812
2980.36397700892	3766.89990234375
2982.40006184049	3758.10009765625
2984.43559401955	3771.39990234375
2986.4705738048	3755.69995117188
2988.50500145473	3763.19995117188
2990.53887722771	3778.5
2992.57220138189	3778.5
2994.6049741753	3774.10009765625
2996.63719586576	3817.30004882812
2998.66886671097	3819.30004882812
3000.69998696843	3838.80004882812
3002.73055689549	3836.30004882812
3004.7605767493	3854.69995117188
3006.79004678688	3810.39990234375
3008.81896726505	3825.5
3010.84733844048	3810.30004882812
3012.87516056966	3863.69995117188
3014.9024339089	3846.5
3016.92915871433	3851.19995117188
3018.95533524196	3864.69995117188
3020.98096374756	3875.19995117188
3023.00604448675	3889.80004882812
3025.030577715	3877
3027.05456368757	3892.19995117188
3029.07800265956	3890.5
3031.10089488589	3862.69995117188
3033.12324062131	3881.10009765625
3035.14504012038	3904.60009765625
3037.16629363749	3905.30004882812
3039.18700142685	3923.19995117188
3041.20716374249	3887.30004882812
3043.22678083826	3862.69995117188
3045.24585296782	3902.30004882812
3047.26438038468	3905.69995117188
3049.28236334212	3904.19995117188
3051.29980209329	3921.69995117188
3053.31669689111	3873.69995117188
3055.33304798835	3895.19995117188
3057.34885563757	3926.5
3059.36412009117	3943.69995117188
3061.37884160134	3916
3063.39302042011	3920.10009765625
3065.40665679931	3950.10009765625
3067.41975099058	3972.10009765625
3069.43230324538	3957
3071.44431381495	3982.69995117188
3073.45578295041	4007.89990234375
3075.46671090261	4045.10009765625
3077.47709792227	4082.69995117188
3079.48694425989	4089.39990234375
3081.49625016578	4119.7001953125
3083.50501589008	4053.60009765625
3085.5132416827	3987.69995117188
3087.5209277934	4006.60009765625
3089.52807447169	3957.69995117188
3091.53468196695	3954.10009765625
3093.54075052832	3914.69995117188
3095.54628040476	3918.89990234375
3097.55127184503	3902
3099.55572509769	3926.89990234375
3101.55964041111	3910.39990234375
3103.56301803346	3923
3105.5658582127	3900.60009765625
3107.56816119661	3949.69995117188
3109.56992723275	3933.19995117188
3111.57115656849	3946.60009765625
3113.571849451	3911.39990234375
3115.57200612724	3938
3117.57162684397	3907.19995117188
3119.57071184775	3945.69995117188
3121.56926138493	3924.60009765625
3123.56727570166	3957.89990234375
3125.56475504389	3982.30004882812
3127.56169965735	3963.80004882812
3129.55810978757	3965.89990234375
3131.55398567987	3966.10009765625
3133.54932757937	3971.19995117188
3135.54413573099	4015.69995117188
3137.53841037939	3965.69995117188
3139.53215176909	3953.69995117188
3141.52536014435	3957
3143.51803574924	3967.89990234375
3145.51017882762	3959.60009765625
3147.50178962311	3990.80004882812
3149.49286837916	4003.60009765625
3151.48341533897	3959.39990234375
3153.47343074553	4017
3155.46291484164	3987.69995117188
3157.45186786985	3959.60009765625
3159.44029007252	3964.69995117188
3161.42818169179	3998.39990234375
3163.41554296955	4001.39990234375
3165.40237414753	3987.89990234375
3167.38867546718	3993.5
3169.37444716975	3961.89990234375
3171.35968949631	4016.5
3173.34440268764	3980.89990234375
3175.32858698436	4002.30004882812
3177.31224262682	3996.19995117188
3179.29536985517	4006.10009765625
3181.27796890934	3993.10009765625
3183.26004002902	3987.39990234375
3185.24158345368	3978.10009765625
3187.22259942256	3989.80004882812
3189.2030881747	4002.30004882812
3191.18304994886	3989
3193.16248498363	3999.80004882812
3195.14139351733	3987.80004882812
3197.11977578807	3986.39990234375
3199.09763203371	3999
3201.07496249191	4004.60009765625
3203.05176740007	3995.69995117188
3205.02804699537	3987.69995117188
3207.00380151475	3993.39990234375
3208.97903119493	4010.39990234375
3210.95373627238	4027.5
3212.92791698335	4013.69995117188
3214.90157356383	3997.60009765625
3216.8747062496	4065.80004882812
3218.84731527619	4054
3220.81940087889	4073.5
3222.79096329275	4050.60009765625
3224.76200275259	4030.39990234375
3226.73251949298	4068.30004882812
3228.70251374825	4066.10009765625
3230.67198575251	4042.89990234375
3232.64093573959	4104.7998046875
3234.6093639431	4110.39990234375
3236.57727059641	4078.5
3238.54465593261	4121.2998046875
3240.51152018461	4104
3242.47786358502	4096.89990234375
3244.44368636621	4101.60009765625
3246.40898876031	4105
3248.37377099923	4121.5
3250.33803331458	4122.39990234375
3252.30177593775	4144.89990234375
3254.26499909987	4130
3256.22770303184	4182.2998046875
3258.18988796427	4153.2001953125
3260.15155412755	4143.39990234375
3262.1127017518	4139.89990234375
3264.0733310669	4138.5
3266.03344230246	4126.2998046875
3267.99303568784	4152.89990234375
3269.95211145215	4135.39990234375
3271.91066982422	4166.39990234375
3273.86871103267	4137.10009765625
3275.82623530581	4180.7001953125
3277.7832428717	4171.2998046875
3279.73973395818	4176.2998046875
3281.69570879278	4183.10009765625
3283.6511676028	4210.89990234375
3285.60611061527	4181.10009765625
3287.56053805694	4197.60009765625
3289.51445015432	4170.2001953125
3291.46784713364	4183
3293.42072922088	4176.60009765625
3295.37309664173	4164.5
3297.32494962163	4183
3299.27628838575	4151.10009765625
3301.227113159	4160
3303.17742416601	4174
3305.12722163114	4170
3307.07650577848	4161.5
3309.02527683185	4184.60009765625
3310.9735350148	4179.2001953125
3312.9212805506	4184.89990234375
3314.86851366225	4196.7001953125
3316.81523457249	4181.2998046875
3318.76144350377	4185.60009765625
3320.70714067825	4176.89990234375
3322.65232631783	4149.7001953125
3324.59700064415	4187
3326.54116387854	4154.60009765625
3328.48481624207	4139.2001953125
3330.42795795551	4177.10009765625
3332.37058923938	4126.5
3334.31271031389	4180.7001953125
3336.25432139898	4151.2001953125
3338.19542271432	4172.5
3340.13601447927	4153.39990234375
3342.07609691292	4159.7998046875
3344.01567023407	4171.7998046875
3345.95473466124	4147.10009765625
3347.89329041266	4169.2001953125
3349.83133770627	4167.60009765625
3351.76887675973	4153.60009765625
3353.70590779039	4141.89990234375
3355.64243101534	4151.2001953125
3357.57844665135	4163.2998046875
3359.51395491492	4130.7998046875
3361.44895602224	4141.7001953125
3363.38345018922	4149.10009765625
3365.31743763148	4170.7998046875
3367.25091856432	4165.5
3369.18389320278	4137.7001953125
3371.11636176156	4173.7001953125
3373.0483244551	4176.5
3374.97978149754	4187.2001953125
3376.91073310269	4178.39990234375
3378.84117948409	4182.7001953125
3380.77112085498	4179
3382.70055742826	4184.2998046875
3384.62948941659	4184.2001953125
3386.55791703227	4168.2001953125
3388.48584048733	4202.7998046875
3390.41325999348	4196.60009765625
3392.34017576214	4221.7998046875
3394.2665880044	4198
3396.19249693107	4217
3398.11790275263	4195.89990234375
3400.04280567926	4194.5
3401.96720592084	4222.7001953125
3403.89110368692	4209.2998046875
3405.81449918675	4236.2998046875
3407.73739262928	4206.7001953125
3409.65978422311	4207.2998046875
3411.58167417658	4228.7998046875
3413.50306269768	4212.2001953125
3415.42394999408	4246.89990234375
3417.34433627316	4222.89990234375
3419.26422174195	4226.10009765625
3421.18360660721	4234.5
3423.10249107532	4194.2001953125
3425.02087535239	4208.10009765625
3426.93875964421	4233.89990234375
3428.8561441562	4242.2001953125
3430.77302909353	4191.10009765625
3432.68941466097	4191.2998046875
3434.60530106301	4233.7998046875
3436.52068850383	4259.7001953125
3438.43557718726	4218.7001953125
3440.34996731681	4219
3442.26385909565	4238
3444.17725272664	4203.7998046875
3446.09014841231	4228.7998046875
3448.00254635486	4215.7001953125
3449.91444675614	4225.2998046875
3451.82584981771	4224.7001953125
3453.73675574076	4195.2001953125
3455.64716472616	4202
3457.55707697445	4171.5
3459.46649268584	4205.5
3461.37541206018	4209.5
3463.28383529703	4210.7998046875
3465.19176259555	4199.2001953125
3467.09919415464	4176.89990234375
3469.00613017278	4161.7001953125
3470.91257084817	4182.89990234375
3472.81851637863	4175
3474.72396696168	4166.10009765625
3476.62892279446	4185.2001953125
3478.53338407379	4168.60009765625
3480.43735099614	4156.5
3482.34082375764	4175
3484.24380255404	4181.2001953125
3486.1462875808	4174
3488.048279033	4185.89990234375
3489.94977710537	4164.39990234375
3491.85078199231	4172.10009765625
3493.75129388783	4160.5
3495.65131298566	4143.39990234375
3497.5508394791	4160.60009765625
3499.44987356115	4159.7001953125