201.866871357051	943.75
204.754250281454	928
207.640596790938	941.25
210.525911876299	927
213.410196525689	928.25
216.293451724508	928
219.175678455485	945.25
222.056877698662	935.25
224.937050431388	922
227.816197628363	927.25
230.694320261602	932.75
233.571419300504	932
236.447495711764	929
239.322550459507	924.5
242.196584505182	927.5
245.069598807626	923.5
247.941594323078	933
250.812572005154	938.75
253.682532804884	932.25
256.551477670699	920
259.419407548456	933.25
262.286323381439	930
265.152226110364	939.75
268.017116673389	940
270.880996006115	934.25
273.743865041622	942.5
276.605724710436	949.5
279.466575940562	949
282.326419657496	937.25
285.1852567842	949.75
288.043088241157	953.75
290.899914946349	936.75
293.75573781526	959.75
296.610557760898	961.25
299.464375693817	946.5
302.317192522078	943.5
305.169009151297	966
308.019826484655	940.25
310.86964542287	949.75
313.718466864233	945.75
316.566291704614	945.25
319.413120837457	960
322.258955153804	951
325.103795542291	948.75
327.947642889128	948.25
330.79049807819	946.25
333.632361990927	945.25
336.473235506444	960.75
339.31311950145	950.25
342.152014850322	961
344.989922425062	969.5
347.826843095354	967.5
350.662777728528	948.75
353.497727189577	956.75
356.331692341195	970.25
359.164674043732	974.75
361.996673155267	964.75
364.827690531536	985.75
367.65772702602	976.5
370.486783489887	984
373.314860772047	983.75
376.14195971912	980.25
378.968081175466	1003.75
381.793225983212	1010.75
384.617394982201	1010.75
387.44058901005	1028
390.262808902131	1046.5
393.08405549161	1041.5
395.904329609395	1051.25
398.723632084213	1038
401.541963742569	1027.25
404.359325408779	1023.75
407.175717904938	1018.75
409.991142050982	977.5
412.805598664665	1003.25
415.619088561551	992.25
418.43161255505	990
421.243171456415	985.75
424.053766074758	1001
426.863397217017	1001.5
429.672065688024	979.75
432.479772290455	985.75
435.286517824879	982.75
438.092303089736	996.75
440.897128881359	1005.5
443.70099599399	995.5
446.503905219761	1001.25
449.305857348711	994.25
452.106853168796	995.75
454.906893465919	995.75
457.705979023885	1002.75
460.504110624439	989
463.3012890473	1004.5
466.097515070087	984.5
468.892789468424	982.25
471.687113015869	978.5
474.48048648395	987.25
477.272910642198	1000.5
480.064386258109	1001
482.854914097159	993.75
485.644494922839	1011.75
488.433129496636	1000
491.220818578047	1002.25
494.007562924584	1007
496.793363291785	1011.5
499.578220433217	1022.25
502.362135100473	1035.75
505.145108043209	1042
507.927140009098	1042.5
510.708231743909	1070.25
513.488383991433	1071.5
516.267597493556	1064
519.04587299022	1073.75
521.82321121946	1050.5
524.599612917398	1046.75
527.375078818233	1046.25
530.149609654287	1040.25
532.923206155967	1050.5
535.695869051804	1018
538.467599068448	1018.5
541.238396930665	1024.5
544.008263361364	1031.5
546.777199081578	1014.5
549.545204810493	1016.25
552.312281265436	1008.75
555.078429161898	1018.75
557.843649213533	1006.25
560.607942132156	1000.25
563.371308627753	1012.5
566.133749408495	1010
568.895265180756	1027.25
571.655856649064	1014.75
574.415524516189	1031.5
577.174269483075	1018.5
579.932092248884	1018.75
582.688993510994	1024.75
585.444973965023	1028.75
588.200034304795	1024.75
590.95417522237	1025
593.70739740807	1025.5
596.459701550433	1041.5
599.21108833628	1044
601.961558450668	1040
604.711112576933	1046.75
607.459751396673	1048.25
610.207475589748	1032
612.954285834338	1044.5
615.700182806879	1040.5
618.445167182101	1045.25
621.189239633055	1044
623.932400831087	1057.25
626.674651445839	1064
629.415992145303	1105
632.156423595745	1103.25
634.895946461813	1131.5
637.634561406449	1136.75
640.37226909096	1125.5
643.109070174978	1130.25
645.844965316508	1109.5
648.579955171888	1095
651.314040395846	1091
654.047221641456	1064
656.779499560176	1054
659.510874801828	1053.75
662.241348014642	1032.25
664.97091984524	1037.75
667.699590938606	1056.25
670.427361938164	1031
673.15423348573	1039.75
675.880206221526	1038
678.605280784206	1045.5
681.329457810829	1050.25
684.05273793692	1032.75
686.775121796389	1035
689.49661002163	1036
692.217203243454	1036.5
694.936902091144	1011.75
697.655707192425	1048
700.373619173493	1030.25
703.09063865901	1035.75
705.806766272093	1031.75
708.522002634378	1027
711.236348365946	1041.75
713.94980408538	1032.75
716.662370409762	1034.75
719.374047954676	1035.25
722.08483733419	1037
724.794739160909	1039.5
727.503754045949	1047.5
730.21188259892	1049.5
732.919125427998	1042.5
735.625483139855	1032.25
738.330956339723	1037.75
741.035545631374	1038
743.739251617106	1040.5
746.44207489779	1055.75
749.144016072852	1046.5
751.845075740272	1042.75
754.545254496603	1031.75
757.244552936976	1036.75
759.94297165508	1049.75
762.640511243222	1045
765.337172292249	1047.5
768.032955391649	1051.5
770.727861129482	1042
773.421890092413	1045
776.11504286572	1056.75
778.807320033298	1048.25
781.49872217765	1049.5
784.18924987991	1060.25
786.87890371984	1037.75
789.567684275826	1045.25
792.255592124908	1051
794.94262784276	1054.75
797.628792003703	1054.25
800.314085180715	1028.75
802.998507945427	1043.25
805.682060868145	1045.75
808.364744517821	1046.75
811.046559462105	1044.75
813.727506267311	1038.75
816.407585498422	1057.5
819.08679771913	1056.75
821.765143491822	1059.5
824.442623377563	1063.75
827.119237936127	1061
829.794987726003	1057
832.469873304377	1058.5
835.143895227167	1063.75
837.817054048985	1064
840.489350323205	1076.75
843.160784601892	1068.25
845.831357435894	1072.5
848.501069374739	1066
851.169920966753	1069
853.837912758987	1093
856.505045297232	1071.75
859.171319126071	1086
861.836734788823	1088.5
864.501292827579	1077.25
867.164993783208	1074.5
869.827838195361	1073.75
872.489826602454	1079
875.150959541701	1088.75
877.811237549104	1078.75
880.470661159456	1076.25
883.129230906357	1080
885.786947322205	1076.5
888.443810938206	1082.25
891.099822284385	1089.5
893.754981889586	1076
896.409290281452	1082
899.062747986485	1087.25
901.715355529999	1077.75
904.367113436154	1077.5
907.01802222793	1078.75
909.668082427172	1082.5
912.317294554574	1080.25
914.965659129659	1096
917.613176670835	1087
920.259847695364	1082.5
922.90567271936	1090.5
925.550652257825	1092.5
928.194786824621	1100.75
930.838076932512	1087.75
933.480523093109	1084.25
936.122125816953	1102.75
938.762885613447	1073.25
941.402802990899	1083
944.041878456523	1094
946.680112516428	1074.5
949.31750567563	1076.75
951.954058438081	1099
954.589771306633	1088.5
957.224644783048	1096.75
959.858679368044	1106
962.491875561238	1095
965.12423386121	1092.75
967.75575476545	1098.5
970.386438770423	1100.25
973.016286371501	1098
975.645298063046	1107
978.273474338355	1102.25
980.900815689674	1100
983.527322608243	1089
986.152995584245	1095
988.777835106834	1116.5
991.401841664148	1111
994.025015743307	1098.75
996.647357830407	1094.75
999.268868410534	1103.25
1001.88954796777	1115.25
1004.50939698518	1106
1007.12841594484	1121
1009.74660532783	1114.75
1012.36396561423	1119.5
1014.98049728314	1113.5
1017.59620081267	1115.5
1020.21107667995	1114.25
1022.82512536112	1126.5
1025.43834733138	1123.75
1028.05074306493	1124.5
1030.66231303501	1136.5
1033.27305771392	1122.25
1035.88297757299	1137.5
1038.49207308257	1134.75
1041.10034471211	1148
1043.70779293008	1146
1046.31441820402	1157
1048.92022100052	1164.75
1051.52520178525	1196.75
1054.12936102295	1227.75
1056.73269917742	1307.5
1059.33521671154	1423.25
1061.93691408729	1443.5
1064.53779176571	1409.25
1067.13785020694	1299.25
1069.73708987022	1239
1072.33551121386	1198
1074.93311469528	1196.75
1077.52990077103	1193.5
1080.12586989674	1207
1082.72102252714	1205.25
1085.31535911611	1213.25
1087.90888011663	1216.75
1090.50158598078	1186.25
1093.09347715979	1171.25
1095.68455410403	1189.75
1098.27481726296	1183
1100.86426708523	1190.75
1103.45290401857	1169.75
1106.04072850991	1180.25
1108.6277410053	1166
1111.21394194993	1183
1113.79933178816	1190.25
1116.3839109635	1222.25
1118.96767991862	1247.25
1121.55063909539	1294.75
1124.13278893477	1414.5
1126.71412987696	1524
1129.29466236132	1580.75
1131.87438682637	1466.25
1134.45330370982	1345.25
1137.03141344858	1258.25
1139.60871647872	1226.75
1142.18521323554	1197.25
1144.7609041535	1201.25
1147.33578966629	1201
1149.90987020676	1210.25
1152.48314620702	1187.5
1155.05561809835	1176.25
1157.62728631125	1203.25
1160.19815127545	1209.5
1162.76821341988	1222.75
1165.33747317271	1224.25
1167.90593096133	1229.5
1170.47358721235	1246
1173.04044235163	1247.5
1175.60649680425	1240.25
1178.17175099454	1247
1180.73620534607	1241.75
1183.29986028165	1215.5
1185.86271622336	1214.75
1188.42477359249	1213.75
1190.98603280964	1221.75
1193.54649429462	1225
1196.10615846653	1210
1198.66502574372	1209.75
1201.22309654385	1216.5
1203.78037128378	1203
1206.33685037971	1213.25
1208.89253424709	1191.75
1211.44742330063	1227.5
1214.00151795438	1203.5
1216.55481862163	1212.25
1219.10732571497	1224.75
1221.65903964631	1217.75
1224.20996082683	1225
1226.760089667	1224
1229.30942657664	1213
1231.85797196483	1244.5
1234.40572623998	1238.25
1236.95268980981	1261.25
1239.49886308136	1250.5
1242.04424646098	1253
1244.58884035435	1261.75
1247.13264516647	1270.5
1249.67566130166	1257
1252.21788916358	1256
1254.75932915524	1278.25
1257.29998167896	1286.75
1259.83984713639	1287.5
1262.37892592857	1298.5
1264.91721845586	1305.75
1267.45472511795	1310
1269.9914463139	1299
1272.52738244213	1310.75
1275.0625339004	1317
1277.59690108587	1328.25
1280.130484395	1350.5
1282.66328422367	1336
1285.19530096712	1363.75
1287.72653501993	1454.5
1290.25698677608	1612.75
1292.78665662894	1831.5
1295.31554497125	1874.25
1297.8436521951	1710.75
1300.37097869203	1526.5
1302.89752485292	1448.5
1305.42329106805	1411.5
1307.94827772713	1426
1310.47248521921	1398.25
1312.99591393279	1425.5
1315.51856425575	1405
1318.04043657536	1409.25
1320.56153127836	1399.25
1323.08184875083	1405.25
1325.6013893783	1407.25
1328.12015354572	1387.5
1330.63814163744	1404.75
1333.15535403727	1402.75
1335.67179112839	1413
1338.18745329347	1416
1340.70234091454	1418.25
1343.21645437314	1418.5
1345.72979405019	1440.75
1348.24236032607	1438.5
1350.75415358059	1467.5
1353.26517419303	1464
1355.7754225421	1484.5
1358.28489900594	1479.75
1360.79360396218	1485
1363.30153778787	1515.25
1365.80870085955	1507.5
1368.31509355319	1532
1370.82071624424	1542
1373.32556930762	1512.75
1375.8296531177	1536.25
1378.33296804832	1500
1380.83551447282	1517.5
1383.33729276399	1505.75
1385.83830329408	1539.75
1388.33854643489	1515
1390.83802255762	1523
1393.33673203301	1550.75
1395.83467523128	1529.5
1398.33185252211	1548.75
1400.82826427471	1574.25
1403.32391085777	1570.5
1405.81879263947	1580.5
1408.31290998752	1630.5
1410.80626326908	1654.25
1413.29885285087	1763.75
1415.79067909909	1820
1418.28174237944	1813.75
1420.77204305717	1742
1423.26158149702	1730.75
1425.75035806323	1759.5
1428.2383731196	1768.5
1430.72562702942	1865
1433.21212015554	1929.25
1435.69785286028	2032.75
1438.18282550555	2112.5
1440.66703845275	2126.25
1443.15049206284	2044
1445.6331866963	2003.25
1448.11512271316	2004
1450.59630047298	1994.5
1453.07672033486	2039
1455.55638265748	2009.75
1458.03528779902	2039.25
1460.51343611725	2061
1462.99082796946	2064
1465.46746371252	2037.5
1467.94334370285	2047
1470.41846829642	1989.25
1472.89283784878	2011.25
1475.36645271503	1997.25
1477.83931324983	1957.25
1480.31141980743	2007.5
1482.78277274164	2006.5
1485.25337240583	1994.75
1487.72321915297	2010.5
1490.19231333557	2030.5
1492.66065530578	2035.75
1495.12824541525	2050.75
1497.5950840153	2062.25
1500.06117145678	2044
1502.52650809014	2104
1504.99109426543	2096.25
1507.45493033227	2085.25
1509.91801663992	2139
1512.38035353717	2127.25
1514.84194137248	2140
1517.30278049386	2193.5
1519.76287124894	2204.5
1522.22221398497	2181
1524.68080904876	2229.25
1527.13865678681	2233.75
1529.59575754514	2268.25
1532.05211166945	2306
1534.50771950503	2315.75
1536.96258139678	2341
1539.41669768924	2337.75
1541.87006872656	2352.5
1544.32269485252	2413.5
1546.77457641051	2429
1549.22571374357	2460.25
1551.67610719434	2465
1554.12575710513	2516.5
1556.57466381785	2530
1559.02282767408	2526.25
1561.47024901499	2577.75
1563.91692818144	2583.25
1566.3628655139	2633.5
1568.80806135249	2631
1571.252516037	2703
1573.6962299068	2711.75
1576.13920330099	2719
1578.58143655828	2731
1581.02293001704	2735.25
1583.46368401528	2776
1585.90369889071	2807.5
1588.34297498065	2820.25
1590.7815126221	2836
1593.21931215173	2862.25
1595.65637390588	2899.5
1598.09269822053	2913.25
1600.52828543135	2966.5
1602.96313587367	2999.5
1605.3972498825	2966
1607.83062779252	2957.5
1610.26326993808	2993.25
1612.69517665322	3003
1615.12634827165	3025.75
1617.55678512676	3003.75
1619.98648755163	3011.25
1622.41545587902	3010.5
1624.84369044138	3041.25
1627.27119157085	3043
1629.69795959924	3070.5
1632.12399485808	3045.25
1634.54929767859	3103.75
1636.97386839165	3108.75
1639.39770732789	3104
1641.8208148176	3140
1644.24319119078	3108.25
1646.66483677715	3162.75
1649.0857519061	3173.75
1651.50593690677	3197.5
1653.92539210795	3215.5
1656.3441178382	3204.75
1658.76211442575	3227
1661.17938219855	3233
1663.59592148428	3290
1666.01173261032	3304.5
1668.42681590377	3329
1670.84117169145	3341
1673.25480029991	3309.5
1675.66770205541	3367.25
1678.07987728393	3336.75
1680.49132631119	3350.25
1682.90204946263	3405
1685.31204706342	3429.5
1687.72131943846	3469.25
1690.1298669124	3455.75
1692.53768980957	3436.75
1694.94478845411	3465.75
1697.35116316982	3458.75
1699.75681428031	3462
1702.16174210887	3483.5
1704.56594697858	3503.25
1706.96942921222	3495.5
1709.37218913235	3542
1711.77422706125	3514
1714.17554332098	3532
1716.5761382333	3566.5
1718.97601211977	3521.25
1721.37516530169	3554.75
1723.77359810006	3542
1726.17131083572	3546.75
1728.56830382922	3581
1730.96457740087	3577
1733.36013187075	3527
1735.75496755868	3580.5
1738.14908478428	3538.75
1740.54248386689	3601
1742.93516512565	3557.25
1745.32712887946	3579.75
1747.71837544697	3598.5
1750.10890514662	3614.5
1752.49871829661	3579
1754.88781521492	3598.5
1757.27619621929	3642.75
1759.66386162726	3639.5
1762.05081175612	3672.5
1764.43704692297	3646.25
1766.82256744465	3651
1769.20737363782	3665.25
1771.59146581887	3688.5
1773.97484430405	3712
1776.35750940932	3707
1778.73946145048	3735
1781.12070074309	3752.25
1783.50122760249	3773
1785.88104234385	3759.75
1788.26014528209	3751.75
1790.63853673196	3827.75
1793.01621700796	3798.25
1795.39318642443	3839.75
1797.76944529549	3790.75
1800.14499393503	3848
1802.51983265681	3836.5
1804.8939617743	3899.25
1807.26738160085	3910.75
1809.64009244957	3886.75
1812.01209463339	3860.5
1814.38338846504	3912.25
1816.75397425706	3915.25
1819.12385232181	3937.75
1821.49302297142	3950.5
1823.86148651789	3967
1826.22924327299	3946.25
1828.59629354831	3988.75
1830.96263765526	3994.5
1833.32827590507	3967
1835.69320860877	4005.5
1838.05743607724	4039.25
1840.42095862113	4008.25
1842.78377655097	4028.25
1845.14589017707	4012.5
1847.50729980956	4035.5
1849.86800575843	4072
1852.22800833346	4079.75
1854.58730784427	4125.25
1856.94590460032	4143.25
1859.30379891087	4121.75
1861.66099108503	4088.75
1864.01748143175	4156.75
1866.37327025978	4156.25
1868.72835787773	4169
1871.08274459403	4149.25
1873.43643071697	4182.25
1875.78941655464	4206.75
1878.14170241498	4225.25
1880.4932886058	4262.75
1882.84417543469	4273.5
1885.19436320915	4301
1887.54385223646	4295.25
1889.89264282378	4373.75
1892.24073527809	4316.75
1894.58812990625	4360.75
1896.93482701493	4359.25
1899.28082691067	4387.5
1901.62612989984	4421
1903.97073628868	4387
1906.31464638326	4472.75
1908.6578604895	4472
1911.00037891321	4487.25
1913.34220196	4496.25
1915.68332993537	4514
1918.02376314468	4516
1920.36350189311	4517.25
1922.70254648573	4482
1925.04089722744	4528.25
1927.37855442303	4543.75
1929.71551837715	4531.75
1932.05178939426	4488.75
1934.38736777876	4498.5
1936.72225383484	4471
1939.0564478666	4538.75
1941.38995017799	4533.75
1943.72276107283	4589.25
1946.05488085479	4530.75
1948.38630982744	4515.75
1950.71704829419	4569.5
1953.04709655832	4504
1955.376454923	4504.75
1957.70512369126	4509
1960.03310316599	4583.5
1962.36039364999	4502
1964.68699544589	4530.5
1967.01290885622	4586.25
1969.33813418338	4578.5
1971.66267172965	4570.5
1973.98652179718	4548.5
1976.309684688	4588.25
1978.63216070402	4578.25
1980.95395014705	4655.5
1983.27505331873	4600.25
1985.59547052063	4627.75
1987.9152020542	4587.5
1990.23424822074	4612.75
1992.55260932146	4592
1994.87028565746	4641.5
1997.18727752968	4605.25
1999.503585239	4686.75
2001.81920908618	4656.25
2004.13414937184	4657.25
2006.44840639651	4732.75
2008.7619804606	4686.75
2011.07487186442	4733.5
2013.38708090815	4763
2015.6986078919	4748
2018.00945311564	4754
2020.31961687923	4789.75
2022.62909948246	4778
2024.93790122498	4801.75
2027.24602240636	4840.5
2029.55346332604	4836
2031.86022428337	4825.75
2034.16630557761	4842
2036.47170750791	4846.5
2038.77643037331	4872
2041.08047447275	4867
2043.38384010509	4844.5
2045.68652756907	4881.25
2047.98853716335	4870.5
2050.28986918648	4826.75
2052.59052393692	4903.25
2054.89050171302	4924
2057.18980281306	4893.5
2059.4884275352	4947.5
2061.78637617753	4895
2064.08364903802	4866.75
2066.38024641457	4941
2068.67616860497	4923.5
2070.97141590694	4921
2073.26598861809	4943.5
2075.55988703595	4938.75
2077.85311145796	4952.5
2080.14566218145	4950.25
2082.43753950371	4947.5
2084.72874372188	4943.5
2087.01927513307	4940.25
2089.30913403428	4924.25
2091.59832072241	4960.25
2093.88683549429	4951
2096.17467864666	4981.5
2098.46185047619	4994.25
2100.74835127944	5005.5
2103.03418135292	5006.5
2105.31934099303	4993.25
2107.6038304961	5033.5
2109.88765015838	5067.75
2112.17080027602	5046.25
2114.45328114513	5108
2116.7350930617	5106.75
2119.01623632165	5108
2121.29671122085	5026.5
2123.57651805505	5133.25
2125.85565711996	5118.75
2128.13412871117	5132
2130.41193312424	5140.75
2132.68907065462	5162.75
2134.96554159771	5165.75
2137.24134624881	5157
2139.51648490317	5181.5
2141.79095785593	5179.75
2144.0647654022	5142.25
2146.33790783698	5169.75
2148.61038545524	5162.25
2150.88219855182	5230.75
2153.15334742154	5190
2155.42383235911	5238.25
2157.6936536592	5219.75
2159.9628116164	5169.75
2162.23130652522	5240.25
2164.49913868011	5255
2166.76630837544	5216.25
2169.03281590552	5263.75
2171.2986615646	5256.25
2173.56384564685	5227.5
2175.82836844637	5242.5
2178.0922302572	5290
2180.35543137332	5238.5
2182.61797208862	5230
2184.87985269695	5175.5
2187.14107349208	5235.25
2189.40163476773	5241.25
2191.66153681753	5232.75
2193.92077993507	5181.75
2196.17936441386	5244.25
2198.43729054735	5198
2200.69455862894	5193.5
2202.95116895194	5201.25
2205.20712180962	5172.75
2207.46241749519	5139
2209.71705630179	5150
2211.97103852248	5148.5
2214.2243644503	5146.5
2216.47703437819	5147.75
2218.72904859905	5119.25
2220.98040740571	5146
2223.23111109095	5101
2225.4811599475	5131.25
2227.73055426799	5078.75
2229.97929434504	5069
2232.22738047118	5030
2234.47481293889	5103
2236.72159204058	5097.5
2238.96771806864	5072.75
2241.21319131536	5001.25
2243.458012073	5002.25
2245.70218063374	5037.25
2247.94569728973	5039.75
2250.18856233304	4994.75
2252.4307760557	4938
2254.67233874967	4977
2256.91325070687	4969
2259.15351221915	4918
2261.39312357831	4900.5
2263.63208507611	4927.75
2265.87039700422	4929
2268.1080596543	4849.5
2270.34507331792	4865.5
2272.5814382866	4867
2274.81715485183	4861.75
2277.05222330502	4866.25
2279.28664393755	4822.25
2281.52041704072	4775.25
2283.75354290581	4814.25
2285.98602182401	4771.5
2288.21785408648	4780.5
2290.44903998434	4761.25
2292.67957980862	4757
2294.90947385033	4710.25
2297.1387224004	4697.75
2299.36732574975	4731.5
2301.59528418921	4680.5
2303.82259800958	4706
2306.04926750158	4668.25
2308.27529295593	4634.5
2310.50067466325	4632.25
2312.72541291412	4629.75
2314.9495079991	4636.5
2317.17296020866	4528.25
2319.39576983323	4564
2321.61793716322	4575
2323.83946248894	4548.75
2326.06034610069	4542
2328.28058828871	4527
2330.50018934317	4520
2332.7191495542	4482.25
2334.93746921192	4469
2337.15514860633	4447.25
2339.37218802743	4410.75
2341.58858776516	4453.75
2343.80434810941	4432.75
2346.01946935001	4396
2348.23395177675	4378.5
2350.44779567939	4385.5
2352.66100134759	4349.5
2354.87356907101	4344.75
2357.08549913925	4294.25
2359.29679184185	4305.75
2361.50744746829	4342.25
2363.71746630804	4287.5
2365.92684865048	4282
2368.13559478499	4261.5
2370.34370500083	4244
2372.55117958727	4227.5
2374.75801883352	4222.25
2376.96422302874	4146.25
2379.16979246202	4168.5
2381.37472742243	4195.5
2383.57902819898	4145.25
2385.78269508063	4159.5
2387.98572835629	4107.75
2390.18812831482	4121
2392.38989524505	4079.25
2394.59102943573	4080
2396.79153117559	4119.25
2398.9914007533	4036.25
2401.19063845748	4038.25
2403.38924457672	4046.5
2405.58721939951	4025.5
2407.78456321435	3990.5
2409.98127630966	4010.5
2412.17735897382	4016.25
2414.37281149517	3998.75
2416.56763416198	4000.75
2418.76182726249	3969.25
2420.95539108487	3979.75
2423.14832591726	3955.75
2425.34063204776	3941.75
2427.53230976439	3921
2429.72335935513	3941.25
2431.91378110795	3910
2434.10357531071	3864.75
2436.29274225125	3884.25
2438.48128221739	3841.75
2440.66919549683	3834
2442.8564823773	3863.5
2445.04314314641	3835.25
2447.22917809176	3824.25
2449.4145875009	3823.25
2451.59937166131	3819.5
2453.78353086044	3792.25
2455.96706538568	3810.25
2458.14997552436	3766.25
2460.33226156379	3744
2462.51392379119	3742.25
2464.69496249376	3724
2466.87537795862	3696.25
2469.05517047288	3678.5
2471.23434032357	3684.75
2473.41288779767	3712.5
2475.59081318211	3667.25
2477.76811676378	3680.5
2479.9447988295	3634.5
2482.12085966605	3640.25
2484.29629956016	3607.25
2486.4711187985	3634.5
2488.64531766769	3635.75
2490.8188964543	3612.5
2492.99185544484	3587.25
2495.16419492579	3581.75
2497.33591518353	3549.25
2499.50701650444	3583.25
2501.67749917482	3570.25
2503.84736348091	3555
2506.01660970891	3538.25
2508.18523814496	3533
2510.35324907514	3541.25
2512.52064278551	3541.75
2514.68741956201	3524
2516.85357969058	3551
2519.01912345709	3526.5
2521.18405114735	3524.25
2523.34836304711	3518
2525.51205944208	3497
2527.6751406179	3496.75
2529.83760686016	3500.5
2531.99945845439	3501.5
2534.16069568606	3513.75
2536.3213188406	3543
2538.48132820336	3454
2540.64072405965	3522.25
2542.79950669471	3496.75
2544.95767639373	3499
2547.11523344184	3455.5
2549.27217812411	3433
2551.42851072555	3467
2553.58423153111	3450
2555.73934082569	3422.25
2557.89383889412	3416
2560.04772602118	3414
2562.20100249158	3402.75
2564.35366858996	3428.75
2566.50572460093	3421
2568.65717080901	3419.75
2570.80800749867	3385.5
2572.95823495433	3369.75
2575.10785346031	3331
2577.25686330093	3355.75
2579.40526476038	3318.75
2581.55305812282	3323.5
2583.70024367237	3312.75
2585.84682169303	3327
2587.99279246879	3323.25
2590.13815628354	3305.25
2592.28291342112	3275
2594.42706416531	3272.5
2596.5706087998	3284.75
2598.71354760826	3279
2600.85588087425	3291.75
2602.99760888127	3294.5
2605.13873191278	3262
2607.27925025214	3266
2609.41916418269	3252.5
2611.55847398764	3278
2613.69717995017	3247.5
2615.83528235339	3258.25
2617.97278148034	3244.75
2620.10967761398	3236.75
2622.2459710372	3246
2624.38166203284	3243.75
2626.51675088365	3220.5
2628.65123787231	3211.75
2630.78512328145	3213.25
2632.9184073936	3219.25
2635.05109049124	3217.75
2637.18317285676	3211.25
2639.31465477248	3230.5
2641.44553652067	3203
2643.5758183835	3224.75
2645.70550064309	3227.5
2647.83458358144	3222.5
2649.96306748053	3241.75
2652.09095262223	3228.25
2654.21823928836	3222.75
2656.34492776063	3230.5
2658.47101832071	3225.25
2660.59651125015	3231.5
2662.72140683047	3235.5
2664.84570534309	3219.5
2666.96940706934	3200
2669.0925122905	3187
2671.21502128773	3220.75
2673.33693434215	3207.25
2675.45825173479	3197.75
2677.57897374658	3211.75
2679.69910065839	3227.5
2681.818632751	3234.5
2683.93757030511	3235.75
2686.05591360133	3182
2688.17366292021	3203
2690.29081854218	3232.75
2692.40738074762	3204.75
2694.52334981681	3237.25
2696.63872602995	3239.75
2698.75350966713	3232.75
2700.86770100841	3274
2702.98130033371	3286.5
2705.09430792289	3268.75
2707.20672405571	3303.75
2709.31854901185	3374.5
2711.42978307091	3349.75
2713.54042651238	3341
2715.65047961567	3373.5
2717.7599426601	3345
2719.86881592491	3407.75
2721.97709968924	3399
2724.08479423213	3374.25
2726.19189983255	3340.5
2728.29841676934	3346.75
2730.4043453213	3345.75
2732.5096857671	3295.5
2734.61443838532	3298.5
2736.71860345444	3242.75
2738.82218125286	3275
2740.92517205889	3236.25
2743.02757615072	3227
2745.12939380646	3214.75
2747.23062530411	3237
2749.33127092159	3256.75
2751.4313309367	3230.5
2753.53080562716	3225
2755.62969527058	3269
2757.72800014448	3226.5
2759.82572052625	3224.75
2761.92285669323	3228
2764.0194089226	3269.75
2766.11537749147	3227
2768.21076267686	3238
2770.30556475566	3235.25
2772.39978400465	3240.25
2774.49342070054	3214
2776.58647511991	3262.75
2778.67894753923	3263.25
2780.77083823487	3272.75
2782.8621474831	3247
2784.95287556007	3211.75
2787.04302274184	3286
2789.13258930433	3259.5
2791.22157552338	3278.5
2793.30998167471	3262
2795.39780803392	3280.25
2797.4850548765	3307.25
2799.57172247786	3268.25
2801.65781111324	3260.75
2803.74332105781	3286.25
2805.82825258661	3318.25
2807.91260597457	3310
2809.9963814965	3333.75
2812.07957942711	3321.75
2814.16220004096	3329.75
2816.24424361252	3381.25
2818.32571041614	3371.25
2820.40660072604	3410.5
2822.48691481631	3458
2824.56665296098	3519
2826.64581543388	3577
2828.72440250876	3686
2830.80241445925	3808
2832.87985155885	4060.75
2834.95671408093	4339.75
2837.03300229875	4705
2839.10871648544	5215.25
2841.18385691399	5814.25
2843.25842385729	6356
2845.33241758808	6714.25
2847.40583837898	6895.75
2849.4786865025	6741.5
2851.550962231	6484.5
2853.6226658367	6145.5
2855.69379759173	5906.5
2857.76435776806	5685.5
2859.83434663753	5490.75
2861.90376447184	5389.75
2863.97261154259	5236.5
2866.0408881212	5230
2868.10859447901	5239
2870.17573088717	5266.5
2872.24229761673	5400.75
2874.30829493859	5692.25
2876.37372312352	6242.75
2878.43858244215	7120.75
2880.50287316496	7836.5
2882.56659556231	7505.25
2884.62974990439	6698.75
2886.69233646129	5990.25
2888.75435550293	5649.5
2890.81580729909	5548
2892.87669211941	5471.75
2894.93701023339	5442.5
2896.99676191039	5382.25
2899.05594741961	5352
2901.1145670301	5244
2903.1726210108	5101.75
2905.23010963045	5081.75
2907.28703315768	4931.5
2909.34339186096	4889
2911.39918600861	4826
2913.45441586879	4683
2915.50908170952	4686.5
2917.56318379867	4667.5
2919.61672240395	4685.75
2921.66969779291	4609.25
2923.72211023295	4657.75
2925.77395999134	4649.5
2927.82524733515	4632.25
2929.87597253132	4654.25
2931.92613584663	4581.25
2933.97573754769	4503.5
2936.02477790097	4378
2938.07325717276	4310.75
2940.1211756292	4204
2942.16853353626	4128.25
2944.21533115976	4045.5
2946.26156876536	3976.5
2948.30724661853	3866
2950.3523649846	3889.75
2952.39692412872	3820
2954.44092431587	3831.5
2956.48436581089	3794
2958.52724887843	3790
2960.56957378296	3760.75
2962.6113407888	3789.75
2964.65255016011	3789.75
2966.69320216083	3816.75
2968.73329705479	3745.25
2970.77283510559	3802.25
2972.81181657671	3804
2974.8502417314	3794.75
2976.88811083279	3821.5
2978.92542414378	3828.75
2980.96218192713	3830
2982.99838444541	3839
2985.034031961	3852.75
2987.06912473612	3838.5
2989.1036630328	3802
2991.13764711288	3886
2993.17107723804	3852.25
2995.20395366974	3889
2997.23627666931	3882
2999.26804649782	3902.25
3001.29926341624	3924.25
3003.32992768528	3946
3005.3600395655	3899.5
3007.38959931726	3926.25
3009.41860720076	3978.5
3011.44706347595	3965.5
3013.47496840263	3981.25
3015.50232224041	3975
3017.5291252487	4008.5
3019.5553776867	3972.5
3021.58107981344	4048.75
3023.60623188773	4002.25
3025.63083416822	4026.75
3027.65488691331	4038.75
3029.67839038125	4044.75
3031.70134483007	4018.75
3033.72375051759	4060
3035.74560770144	4070.75
3037.76691663907	4054.25
3039.78767758768	4105.5
3041.80789080431	4103.75
3043.82755654577	4084.75
3045.84667506867	4088.25
3047.8652466294	4077
3049.88327148418	4143.75
3051.90074988899	4096
3053.91768209961	4068.25
3055.9340683716	4101.25
3057.94990896033	4097.25
3059.96520412095	4136.5
3061.97995410838	4090.25
3063.99415917734	4119.75
3066.00781958234	4142.5
3068.02093557766	4132.25
3070.03350741738	4129
3072.04553535535	4130.25
3074.05701964521	4108.5
3076.06796054036	4139.25
3078.078358294	4145.5
3080.08821315912	4147.25
3082.09752538846	4163.25
3084.10629523454	4120.25
3086.11452294967	4132.75
3088.12220878592	4150
3090.12935299515	4164.25
3092.13595582898	4150.75
3094.1420175388	4118.25
3096.14753837579	4114
3098.15251859088	4120
3100.15695843477	4141.25
3102.16085815793	4153.5
3104.16421801061	4152.5
3106.16703824282	4142
3108.16931910432	4170.25
3110.17106084464	4146.75
3112.17226371308	4194.25
3114.17292795872	4176.75
3116.17305383034	4214.75
3118.17264157657	4175.25
3120.17169144571	4191.25
3122.17020368587	4171.75
3124.16817854492	4194.5
3126.16561627044	4176.5
3128.16251710982	4215.5
3130.15888131017	4232.75
3132.15470911837	4237.75
3134.15000078104	4238
3136.14475654455	4211.25
3138.13897665502	4225.5
3140.13266135835	4213.5
3142.12581090014	4282.75
3144.11842552577	4317.75
3146.11050548036	4280.25
3148.10205100875	4292.75
3150.09306235557	4307.75
3152.08353976515	4277.5
3154.07348348158	4251.75
3156.06289374869	4285.75
3158.05177081006	4220
3160.04011490899	4261.75
3162.02792628852	4283.75
3164.01520519145	4287.25
3166.00195186029	4313.5
3167.98816653728	4319.75
3169.97384946442	4302.75
3171.95900088344	4283.5
3173.94362103577	4305.75
3175.92771016259	4308.75
3177.91126850484	4273.5
3179.89429630312	4319
3181.87679379782	4298.75
3183.85876122903	4314.5
3185.84019883657	4279.25
3187.82110685997	4328
3189.80148553851	4302.25
3191.78133511116	4327.25
3193.76065581664	4339.25
3195.73944789337	4330.25
3197.7177115795	4325.75
3199.6954471129	4361.25
3201.67265473114	4351.25
3203.64933467153	4378.5
3205.62548717107	4366
3207.60111246648	4361.5
3209.57621079421	4385.25
3211.55078239041	4402.5
3213.52482749093	4334.25
3215.49834633133	4421.25
3217.4713391469	4401.5
3219.44380617262	4420.75
3221.41574764317	4449.25
3223.38716379296	4417.25
3225.35805485607	4434
3227.32842106631	4443.5
3229.29826265718	4498.75
3231.26757986187	4481.25
3233.2363729133	4460
3235.20464204405	4472.25
3237.17238748643	4498
3239.13960947243	4545.25
3241.10630823374	4508.25
3243.07248400174	4505
3245.03813700748	4585.75
3247.00326748177	4517.25
3248.96787565503	4551.5
3250.93196175742	4570
3252.89552601877	4564.25
3254.8585686686	4573.25
3256.82108993612	4589.75
3258.78309005022	4568.75
3260.74456923948	4521.5
3262.70552773215	4564.25
3264.66596575617	4585
3266.62588353916	4594.5
3268.58528130843	4554
3270.54415929094	4561.75
3272.50251771336	4578.25
3274.46035680201	4595.75
3276.4176767829	4595.5
3278.37447788171	4572.25
3280.33076032379	4569.5
3282.28652433416	4589.5
3284.24177013751	4614.5
3286.1964979582	4582.75
3288.15070802027	4636
3290.10440054741	4620.75
3292.05757576298	4573.75
3294.01023389001	4576.5
3295.96237515119	4599.5
3297.91399976887	4614.75
3299.86510796506	4599.75
3301.81569996142	4627
3303.76577597932	4602.75
3305.7153362397	4637.5
3307.66438096324	4592.75
3309.61291037024	4613
3311.56092468064	4599
3313.50842411404	4588.25
3315.45540888971	4637.25
3317.40187922656	4596.25
3319.34783534315	4616.5
3321.29327745768	4603.75
3323.23820578801	4567.5
3325.18262055164	4611.75
3327.1265219657	4585
3329.06991024699	4597.75
3331.01278561194	4574
3332.95514827662	4575.5
3334.89699845674	4603.75
3336.83833636766	4570.5
3338.77916222434	4524.75
3340.71947624143	4549.25
3342.65927863317	4591.75
3344.59856961346	4597.75
3346.53734939584	4568.5
3348.47561819344	4520.75
3350.41337621906	4591.5
3352.35062368513	4558
3354.28736080368	4573.75
3356.22358778637	4595
3358.15930484452	4554
3360.09451218904	4583.5
3362.02921003047	4606.25
3363.96339857898	4578.75
3365.89707804436	4592
3367.83024863602	4574.75
3369.76291056299	4547.5
3371.69506403389	4532
3373.62670925699	4528.75
3375.55784644016	4560.75
3377.4884757909	4571.25
3379.41859751629	4596.25
3381.34821182305	4607.5
3383.27731891749	4530.75
3385.20591900555	4574.5
3387.13401229276	4523
3389.06159898426	4565.25
3390.9886792848	4595.5
3392.91525339872	4613.5
3394.84132152998	4558.5
3396.76688388213	4597.25
3398.69194065833	4568.25
3400.61649206133	4611.5
3402.54053829348	4640.25
3404.46407955672	4541
3406.3871160526	4595
3408.30964798225	4623
3410.23167554639	4605.25
3412.15319894535	4608.5
3414.07421837904	4604.25
3415.99473404695	4590.5
3417.91474614817	4620
3419.83425488136	4603.75
3421.75326044479	4585
3423.67176303631	4596.75
3425.58976285332	4545.25
3427.50726009282	4571.25
3429.42425495143	4554.25
3431.34074762528	4593
3433.25673831012	4546
3435.17222720127	4568.25
3437.08721449362	4574
3439.00170038164	4548.25
3440.91568505936	4519.75
3442.82916872039	4523.25
3444.74215155791	4546.75
3446.65463376468	4524.5
3448.566615533	4525.75
3450.47809705476	4531
3452.3890785214	4506
3454.29956012393	4562.25
3456.20954205293	4531.25
3458.11902449853	4518.75
3460.02800765041	4495.75
3461.93649169784	4522.25
3463.84447682962	4506
3465.75196323412	4482.75
3467.65895109925	4480.75
3469.56544061249	4506.75
3471.47143196086	4489.5
3473.37692533093	4487.75
3475.28192090884	4494
3477.18641888026	4493
3479.09041943039	4530.25
3480.99392274402	4481.75
3482.89692900545	4450.25
3484.79943839853	4430.75
3486.70145110666	4471.75
3488.60296731277	4424.5
3490.50398719933	4430.5
3492.40451094836	4424
3494.30453874141	4442.75
3496.20407075956	4457
3498.10310718342	4467
3500.00164819315	4426