201.866871357051	6431.5
204.754250281454	6488.25
207.640596790938	6484.25
210.525911876299	6520
213.410196525689	6507
216.293451724508	6528.25
219.175678455485	6494.5
222.056877698662	6556
224.937050431388	6492.75
227.816197628363	6571
230.694320261602	6594.25
233.571419300504	6609.75
236.447495711764	6671.75
239.322550459507	6673
242.196584505182	6769
245.069598807626	6745.75
247.941594323078	6724
250.812572005154	6787.75
253.682532804884	6811.75
256.551477670699	6799
259.419407548456	6849
262.286323381439	6881.5
265.152226110364	6905.5
268.017116673389	6920.75
270.880996006115	6905
273.743865041622	6943.25
276.605724710436	6958.5
279.466575940562	6982.5
282.326419657496	6980.5
285.1852567842	6975
288.043088241157	7034.75
290.899914946349	7022
293.75573781526	7031.75
296.610557760898	7034.25
299.464375693817	7058.25
302.317192522078	7044
305.169009151297	7074.5
308.019826484655	7077.5
310.86964542287	7102.5
313.718466864233	7097.25
316.566291704614	7091
319.413120837457	7124.5
322.258955153804	7113.75
325.103795542291	7097.75
327.947642889128	7120
330.79049807819	7142
333.632361990927	7172
336.473235506444	7158
339.31311950145	7153
342.152014850322	7258.75
344.989922425062	7326.75
347.826843095354	7296.75
350.662777728528	7335.5
353.497727189577	7318
356.331692341195	7363
359.164674043732	7426.75
361.996673155267	7381.5
364.827690531536	7493.5
367.65772702602	7502.25
370.486783489887	7477.75
373.314860772047	7485.75
376.14195971912	7497.75
378.968081175466	7486
381.793225983212	7429
384.617394982201	7474
387.44058901005	7553.5
390.262808902131	7581.5
393.08405549161	7599
395.904329609395	7635.5
398.723632084213	7699.5
401.541963742569	7691.75
404.359325408779	7719.5
407.175717904938	7599.25
409.991142050982	7692
412.805598664665	7673.5
415.619088561551	7638.25
418.43161255505	7724.25
421.243171456415	7687.25
424.053766074758	7732.5
426.863397217017	7771.75
429.672065688024	7805.25
432.479772290455	7835
435.286517824879	7834.5
438.092303089736	7822.75
440.897128881359	7873.5
443.70099599399	7890.75
446.503905219761	7834.25
449.305857348711	7847.5
452.106853168796	7834.5
454.906893465919	7868.75
457.705979023885	7856.75
460.504110624439	7876
463.3012890473	7816.75
466.097515070087	7785
468.892789468424	7794
471.687113015869	7774
474.48048648395	7754.75
477.272910642198	7791.5
480.064386258109	7849
482.854914097159	7822.5
485.644494922839	7930.75
488.433129496636	7933
491.220818578047	7974.75
494.007562924584	7973.5
496.793363291785	7988
499.578220433217	8010
502.362135100473	8008.25
505.145108043209	8099.75
507.927140009098	8108.5
510.708231743909	8042.75
513.488383991433	8081.25
516.267597493556	8128.75
519.04587299022	8085
521.82321121946	8104.5
524.599612917398	8130.25
527.375078818233	8135.5
530.149609654287	8028.75
532.923206155967	8177.25
535.695869051804	8158.5
538.467599068448	8082.75
541.238396930665	8101
544.008263361364	8080.5
546.777199081578	8056.5
549.545204810493	8023.75
552.312281265436	8074.25
555.078429161898	8113.75
557.843649213533	8100.75
560.607942132156	8035
563.371308627753	8121.25
566.133749408495	8131
568.895265180756	8215.25
571.655856649064	8157
574.415524516189	8179.75
577.174269483075	8200.75
579.932092248884	8249.5
582.688993510994	8243.5
585.444973965023	8221.25
588.200034304795	8319.75
590.95417522237	8284.75
593.70739740807	8321.75
596.459701550433	8276
599.21108833628	8256
601.961558450668	8267.75
604.711112576933	8260
607.459751396673	8197
610.207475589748	8245.75
612.954285834338	8231.5
615.700182806879	8192.75
618.445167182101	8160.5
621.189239633055	8131.25
623.932400831087	8130.5
626.674651445839	8080.5
629.415992145303	8058.25
632.156423595745	8047.75
634.895946461813	7992.5
637.634561406449	8034.25
640.37226909096	8032.75
643.109070174978	8008
645.844965316508	8107.5
648.579955171888	8144
651.314040395846	8176.25
654.047221641456	8194
656.779499560176	8257.5
659.510874801828	8250.75
662.241348014642	8208.75
664.97091984524	8226.25
667.699590938606	8238.25
670.427361938164	8209.5
673.15423348573	8230.25
675.880206221526	8257.25
678.605280784206	8232
681.329457810829	8258.5
684.05273793692	8165.5
686.775121796389	8229
689.49661002163	8186.5
692.217203243454	8165
694.936902091144	8112
697.655707192425	8106
700.373619173493	8075
703.09063865901	8020
705.806766272093	8065.75
708.522002634378	8086.25
711.236348365946	8055.25
713.94980408538	8006.25
716.662370409762	8076.5
719.374047954676	8010.25
722.08483733419	7953.5
724.794739160909	7973.5
727.503754045949	8041
730.21188259892	8034.5
732.919125427998	8045.75
735.625483139855	8090.5
738.330956339723	8028
741.035545631374	8003.5
743.739251617106	8054.75
746.44207489779	8132.75
749.144016072852	8107.5
751.845075740272	8134.75
754.545254496603	8172.5
757.244552936976	8143
759.94297165508	8141.5
762.640511243222	8170.75
765.337172292249	8134
768.032955391649	8160
770.727861129482	8117.75
773.421890092413	8139.25
776.11504286572	8159.25
778.807320033298	8116.25
781.49872217765	8106
784.18924987991	8027.75
786.87890371984	8038.25
789.567684275826	8070.25
792.255592124908	8045.75
794.94262784276	7955.25
797.628792003703	8004.75
800.314085180715	7930
802.998507945427	8012
805.682060868145	8067.75
808.364744517821	8211
811.046559462105	8200.25
813.727506267311	8148.75
816.407585498422	8077.25
819.08679771913	8041
821.765143491822	7982.25
824.442623377563	8093.5
827.119237936127	8136.75
829.794987726003	8096
832.469873304377	8130.25
835.143895227167	8196.75
837.817054048985	8165.75
840.489350323205	8238
843.160784601892	8220
845.831357435894	8222.75
848.501069374739	8206.5
851.169920966753	8136.25
853.837912758987	8129
856.505045297232	8138
859.171319126071	8148.5
861.836734788823	8142.5
864.501292827579	8089.75
867.164993783208	8057
869.827838195361	7987.75
872.489826602454	8026.25
875.150959541701	8087.25
877.811237549104	7985.5
880.470661159456	8007
883.129230906357	7984.25
885.786947322205	7877.75
888.443810938206	7987.75
891.099822284385	7990.75
893.754981889586	8053.75
896.409290281452	8001.5
899.062747986485	8175.25
901.715355529999	8148.75
904.367113436154	8101.25
907.01802222793	8179
909.668082427172	8094.75
912.317294554574	8084.5
914.965659129659	8150.25
917.613176670835	8108
920.259847695364	8170.75
922.90567271936	8114.75
925.550652257825	8125.75
928.194786824621	8091
930.838076932512	8153.75
933.480523093109	8144.5
936.122125816953	8149
938.762885613447	8245.25
941.402802990899	8189
944.041878456523	8182
946.680112516428	8134.25
949.31750567563	8147.25
951.954058438081	8143
954.589771306633	8113
957.224644783048	8105.5
959.858679368044	8048.75
962.491875561238	8068
965.12423386121	8023.5
967.75575476545	8072
970.386438770423	8074.25
973.016286371501	8091
975.645298063046	8092
978.273474338355	8092.5
980.900815689674	8017.25
983.527322608243	7897.75
986.152995584245	7973.75
988.777835106834	8058.25
991.401841664148	8041.75
994.025015743307	8011.75
996.647357830407	8010.5
999.268868410534	8074.5
1001.88954796777	8057
1004.50939698518	8010.25
1007.12841594484	8013.5
1009.74660532783	8008
1012.36396561423	8121.75
1014.98049728314	7998
1017.59620081267	8027
1020.21107667995	8028.25
1022.82512536112	8086.75
1025.43834733138	8095
1028.05074306493	8095
1030.66231303501	8130.75
1033.27305771392	8192.75
1035.88297757299	8168.5
1038.49207308257	8101.5
1041.10034471211	8125
1043.70779293008	8178.25
1046.31441820402	8144.75
1048.92022100052	8106.25
1051.52520178525	8205.5
1054.12936102295	8228.75
1056.73269917742	8150
1059.33521671154	8207.75
1061.93691408729	8145
1064.53779176571	8150.75
1067.13785020694	8142.25
1069.73708987022	8114.5
1072.33551121386	8106.5
1074.93311469528	8026.25
1077.52990077103	8080
1080.12586989674	8030.5
1082.72102252714	8091.5
1085.31535911611	8125
1087.90888011663	8162.25
1090.50158598078	8058.5
1093.09347715979	8064.5
1095.68455410403	8076.25
1098.27481726296	7983.5
1100.86426708523	8048
1103.45290401857	8070.25
1106.04072850991	7993
1108.6277410053	8016.25
1111.21394194993	8000.25
1113.79933178816	8086.75
1116.3839109635	8090.5
1118.96767991862	8098.25
1121.55063909539	8134.75
1124.13278893477	8174.5
1126.71412987696	8163.25
1129.29466236132	8137.75
1131.87438682637	8212.75
1134.45330370982	8220.25
1137.03141344858	8250.75
1139.60871647872	8285.75
1142.18521323554	8308.25
1144.7609041535	8346.25
1147.33578966629	8348.75
1149.90987020676	8449
1152.48314620702	8410.25
1155.05561809835	8369.25
1157.62728631125	8358
1160.19815127545	8371.75
1162.76821341988	8357.5
1165.33747317271	8401.5
1167.90593096133	8401
1170.47358721235	8389.25
1173.04044235163	8310.25
1175.60649680425	8272
1178.17175099454	8264.75
1180.73620534607	8350.75
1183.29986028165	8211.5
1185.86271622336	8219
1188.42477359249	8291
1190.98603280964	8200.75
1193.54649429462	8181.5
1196.10615846653	8182.75
1198.66502574372	8234.25
1201.22309654385	8167.25
1203.78037128378	8175.25
1206.33685037971	8138.25
1208.89253424709	8092.5
1211.44742330063	8138.25
1214.00151795438	8113.75
1216.55481862163	8136.5
1219.10732571497	8186
1221.65903964631	8218.5
1224.20996082683	8188.75
1226.760089667	8259.5
1229.30942657664	8276.75
1231.85797196483	8415.25
1234.40572623998	8362.75
1236.95268980981	8545
1239.49886308136	8583
1242.04424646098	8759.75
1244.58884035435	8982.75
1247.13264516647	9040.25
1249.67566130166	9002.75
1252.21788916358	9077.25
1254.75932915524	9137.25
1257.29998167896	9126.5
1259.83984713639	8981.75
1262.37892592857	8857.25
1264.91721845586	8801.5
1267.45472511795	8723.5
1269.9914463139	8711.25
1272.52738244213	8712.75
1275.0625339004	8660
1277.59690108587	8669.25
1280.130484395	8796.5
1282.66328422367	8858.25
1285.19530096712	9000.5
1287.72653501993	9029.5
1290.25698677608	9002
1292.78665662894	9045.5
1295.31554497125	8953.5
1297.8436521951	8953
1300.37097869203	8874
1302.89752485292	8789.75
1305.42329106805	8848.25
1307.94827772713	8873
1310.47248521921	8880.5
1312.99591393279	8911
1315.51856425575	8941
1318.04043657536	8879
1320.56153127836	8960
1323.08184875083	9010.5
1325.6013893783	9023
1328.12015354572	9093.25
1330.63814163744	9144.25
1333.15535403727	9024
1335.67179112839	9160
1338.18745329347	9142.25
1340.70234091454	9119.25
1343.21645437314	9154.75
1345.72979405019	9193.25
1348.24236032607	9203.5
1350.75415358059	9287.5
1353.26517419303	9301.25
1355.7754225421	9309.75
1358.28489900594	9426.75
1360.79360396218	9429
1363.30153778787	9390
1365.80870085955	9353.25
1368.31509355319	9475.25
1370.82071624424	9450.75
1373.32556930762	9429.75
1375.8296531177	9405.25
1378.33296804832	9467
1380.83551447282	9515.25
1383.33729276399	9489.5
1385.83830329408	9553.75
1388.33854643489	9635.75
1390.83802255762	9742.25
1393.33673203301	9824
1395.83467523128	9949
1398.33185252211	9966
1400.82826427471	9947
1403.32391085777	9783.5
1405.81879263947	9736.25
1408.31290998752	9605
1410.80626326908	9446.25
1413.29885285087	9373.25
1415.79067909909	9381.25
1418.28174237944	9395.5
1420.77204305717	9436
1423.26158149702	9355.75
1425.75035806323	9437.75
1428.2383731196	9400.25
1430.72562702942	9464.5
1433.21212015554	9608.5
1435.69785286028	9601.5
1438.18282550555	9769.5
1440.66703845275	9783.75
1443.15049206284	9779
1445.6331866963	9819.5
1448.11512271316	9882
1450.59630047298	9941.25
1453.07672033486	9940.25
1455.55638265748	10011.25
1458.03528779902	10135.75
1460.51343611725	10060.25
1462.99082796946	10097.75
1465.46746371252	10014.75
1467.94334370285	10022.75
1470.41846829642	9917.25
1472.89283784878	10076.75
1475.36645271503	10005.75
1477.83931324983	10019.5
1480.31141980743	10052.75
1482.78277274164	10045.5
1485.25337240583	10020
1487.72321915297	10071.75
1490.19231333557	10066
1492.66065530578	10193.5
1495.12824541525	10137.75
1497.5950840153	10115.5
1500.06117145678	10066.75
1502.52650809014	10105.5
1504.99109426543	10115.75
1507.45493033227	10144.75
1509.91801663992	10136.5
1512.38035353717	10251.5
1514.84194137248	10239
1517.30278049386	10285
1519.76287124894	10403.5
1522.22221398497	10326.25
1524.68080904876	10341
1527.13865678681	10302.25
1529.59575754514	10364.5
1532.05211166945	10421.25
1534.50771950503	10363.5
1536.96258139678	10453.25
1539.41669768924	10509.75
1541.87006872656	10504.75
1544.32269485252	10559.75
1546.77457641051	10563
1549.22571374357	10678
1551.67610719434	10752.75
1554.12575710513	10769.75
1556.57466381785	10773.25
1559.02282767408	10776.5
1561.47024901499	10855
1563.91692818144	10902
1566.3628655139	10944.75
1568.80806135249	10994
1571.252516037	10993.25
1573.6962299068	11218.5
1576.13920330099	11080.5
1578.58143655828	11239.75
1581.02293001704	11485.25
1583.46368401528	11668.75
1585.90369889071	11950.5
1588.34297498065	12439.25
1590.7815126221	13065
1593.21931215173	13931.25
1595.65637390588	14474.5
1598.09269822053	14471.25
1600.52828543135	13972.25
1602.96313587367	13042
1605.3972498825	12366.5
1607.83062779252	11957.25
1610.26326993808	11775
1612.69517665322	11641.75
1615.12634827165	11614
1617.55678512676	11458.25
1619.98648755163	11434.25
1622.41545587902	11451.75
1624.84369044138	11481.25
1627.27119157085	11482.25
1629.69795959924	11498.25
1632.12399485808	11558
1634.54929767859	11501.75
1636.97386839165	11620.75
1639.39770732789	11527
1641.8208148176	11595.5
1644.24319119078	11588.75
1646.66483677715	11606
1649.0857519061	11660.25
1651.50593690677	11764.75
1653.92539210795	11775.25
1656.3441178382	11713
1658.76211442575	11759.25
1661.17938219855	11864.75
1663.59592148428	12059.5
1666.01173261032	12056.75
1668.42681590377	12194.5
1670.84117169145	12174
1673.25480029991	12141.25
1675.66770205541	12169
1678.07987728393	12208.75
1680.49132631119	12194.75
1682.90204946263	12227
1685.31204706342	12254.75
1687.72131943846	12389.5
1690.1298669124	12376
1692.53768980957	12538.75
1694.94478845411	12509.5
1697.35116316982	12403.75
1699.75681428031	12512.5
1702.16174210887	12553.75
1704.56594697858	12515.5
1706.96942921222	12653
1709.37218913235	12636
1711.77422706125	12503.25
1714.17554332098	12481.5
1716.5761382333	12637.5
1718.97601211977	12541.5
1721.37516530169	12573.5
1723.77359810006	12606.5
1726.17131083572	12570.25
1728.56830382922	12612.5
1730.96457740087	12624.25
1733.36013187075	12483.75
1735.75496755868	12550.25
1738.14908478428	12664.75
1740.54248386689	12614.25
1742.93516512565	12634
1745.32712887946	12677.25
1747.71837544697	12680.25
1750.10890514662	12660.5
1752.49871829661	12654.5
1754.88781521492	12718.25
1757.27619621929	12851
1759.66386162726	12741.75
1762.05081175612	12865.5
1764.43704692297	12927.5
1766.82256744465	12835.25
1769.20737363782	12980
1771.59146581887	12896
1773.97484430405	13119.75
1776.35750940932	13107.25
1778.73946145048	13142.25
1781.12070074309	13126.75
1783.50122760249	13221.5
1785.88104234385	13280.25
1788.26014528209	13264
1790.63853673196	13305
1793.01621700796	13346.75
1795.39318642443	13551.25
1797.76944529549	13465.75
1800.14499393503	13491
1802.51983265681	13440.75
1804.8939617743	13536.25
1807.26738160085	13597.25
1809.64009244957	13650
1812.01209463339	13579.25
1814.38338846504	13744
1816.75397425706	13661.25
1819.12385232181	13716.75
1821.49302297142	13811.5
1823.86148651789	13807.25
1826.22924327299	13665.5
1828.59629354831	13896
1830.96263765526	13789.75
1833.32827590507	13865.75
1835.69320860877	13908.5
1838.05743607724	13854.75
1840.42095862113	13881
1842.78377655097	13949
1845.14589017707	13847.25
1847.50729980956	13949.75
1849.86800575843	13987.25
1852.22800833346	13965
1854.58730784427	14031.25
1856.94590460032	14136.75
1859.30379891087	14134
1861.66099108503	14118
1864.01748143175	14306.25
1866.37327025978	14343.75
1868.72835787773	14254
1871.08274459403	14366
1873.43643071697	14335.5
1875.78941655464	14530.25
1878.14170241498	14467.75
1880.4932886058	14523.25
1882.84417543469	14646
1885.19436320915	14612.75
1887.54385223646	14764
1889.89264282378	14810.75
1892.24073527809	14846.25
1894.58812990625	14888
1896.93482701493	15066.5
1899.28082691067	15022.5
1901.62612989984	15169
1903.97073628868	15189.75
1906.31464638326	15251.75
1908.6578604895	15271.25
1911.00037891321	15345
1913.34220196	15473
1915.68332993537	15372.75
1918.02376314468	15403.75
1920.36350189311	15400.5
1922.70254648573	15449
1925.04089722744	15432.25
1927.37855442303	15368
1929.71551837715	15510.75
1932.05178939426	15456.5
1934.38736777876	15484.25
1936.72225383484	15394
1939.0564478666	15667.5
1941.38995017799	15528
1943.72276107283	15667
1946.05488085479	15589.25
1948.38630982744	15469
1950.71704829419	15694.25
1953.04709655832	15508.5
1955.376454923	15572.25
1957.70512369126	15598.75
1960.03310316599	15659
1962.36039364999	15577.75
1964.68699544589	15625.5
1967.01290885622	15776.75
1969.33813418338	15724.5
1971.66267172965	15766.5
1973.98652179718	15724.5
1976.309684688	15844.75
1978.63216070402	15909.75
1980.95395014705	16098
1983.27505331873	15848
1985.59547052063	15962
1987.9152020542	16018
1990.23424822074	16021.5
1992.55260932146	16056.75
1994.87028565746	16081
1997.18727752968	16172
1999.503585239	16259.5
2001.81920908618	16153
2004.13414937184	16322.25
2006.44840639651	16474.25
2008.7619804606	16518.5
2011.07487186442	16579.5
2013.38708090815	16685
2015.6986078919	16646.75
2018.00945311564	16694.25
2020.31961687923	16680
2022.62909948246	16837.5
2024.93790122498	16976
2027.24602240636	16934
2029.55346332604	16951.25
2031.86022428337	16940.75
2034.16630557761	17118
2036.47170750791	17099.25
2038.77643037331	17139.5
2041.08047447275	17265.75
2043.38384010509	17066.5
2045.68652756907	17231.75
2047.98853716335	17140
2050.28986918648	17276
2052.59052393692	17386.5
2054.89050171302	17329.75
2057.18980281306	17304
2059.4884275352	17427.75
2061.78637617753	17126.5
2064.08364903802	17301
2066.38024641457	17260.25
2068.67616860497	17292.75
2070.97141590694	17315.75
2073.26598861809	17330.25
2075.55988703595	17275.5
2077.85311145796	17355.25
2080.14566218145	17363.5
2082.43753950371	17387.25
2084.72874372188	17345.25
2087.01927513307	17390.75
2089.30913403428	17377.75
2091.59832072241	17325
2093.88683549429	17394.75
2096.17467864666	17500.25
2098.46185047619	17588.5
2100.74835127944	17631
2103.03418135292	17663.75
2105.31934099303	17611
2107.6038304961	17733.5
2109.88765015838	17638
2112.17080027602	17510
2114.45328114513	17806.75
2116.7350930617	17699.5
2119.01623632165	17821
2121.29671122085	17682.5
2123.57651805505	17949
2125.85565711996	17903.5
2128.13412871117	17887.25
2130.41193312424	18058.75
2132.68907065462	18103.75
2134.96554159771	18068.75
2137.24134624881	17957.75
2139.51648490317	18185.25
2141.79095785593	18098.75
2144.0647654022	18281.25
2146.33790783698	18333
2148.61038545524	18163
2150.88219855182	18473.75
2153.15334742154	18360.5
2155.42383235911	18479.75
2157.6936536592	18491.75
2159.9628116164	18351.25
2162.23130652522	18463
2164.49913868011	18467.5
2166.76630837544	18569.75
2169.03281590552	18548
2171.2986615646	18557
2173.56384564685	18551
2175.82836844637	18708.75
2178.0922302572	18550.25
2180.35543137332	18649.5
2182.61797208862	18653.25
2184.87985269695	18611
2187.14107349208	18661.75
2189.40163476773	18865.25
2191.66153681753	18779.5
2193.92077993507	18656.5
2196.17936441386	18712.25
2198.43729054735	18709.75
2200.69455862894	18806.5
2202.95116895194	18859.25
2205.20712180962	18777.75
2207.46241749519	18736
2209.71705630179	18912.25
2211.97103852248	18878.25
2214.2243644503	18802
2216.47703437819	18854.25
2218.72904859905	18746
2220.98040740571	18819.75
2223.23111109095	18861.75
2225.4811599475	18734.75
2227.73055426799	18902.75
2229.97929434504	18733
2232.22738047118	18856.25
2234.47481293889	18817.75
2236.72159204058	18989.5
2238.96771806864	18951.5
2241.21319131536	18844.75
2243.458012073	18875.25
2245.70218063374	18962.5
2247.94569728973	19074.75
2250.18856233304	18922.75
2252.4307760557	18852.5
2254.67233874967	19043.5
2256.91325070687	18916
2259.15351221915	19063
2261.39312357831	19005.75
2263.63208507611	19002.75
2265.87039700422	19075.75
2268.1080596543	19158.75
2270.34507331792	19131
2272.5814382866	19043.75
2274.81715485183	19090.25
2277.05222330502	19168
2279.28664393755	19267.25
2281.52041704072	19278.25
2283.75354290581	19383.5
2285.98602182401	19336.5
2288.21785408648	19199.75
2290.44903998434	19356.5
2292.67957980862	19448.75
2294.90947385033	19306.75
2297.1387224004	19401
2299.36732574975	19375.25
2301.59528418921	19367.5
2303.82259800958	19410
2306.04926750158	19489.75
2308.27529295593	19487
2310.50067466325	19485.5
2312.72541291412	19494.75
2314.9495079991	19527.5
2317.17296020866	19474.5
2319.39576983323	19588.25
2321.61793716322	19579.5
2323.83946248894	19496.25
2326.06034610069	19647.25
2328.28058828871	19588
2330.50018934317	19515.25
2332.7191495542	19518.75
2334.93746921192	19530.25
2337.15514860633	19474.5
2339.37218802743	19527.25
2341.58858776516	19461.75
2343.80434810941	19428.5
2346.01946935001	19473
2348.23395177675	19496.5
2350.44779567939	19514.25
2352.66100134759	19340.25
2354.87356907101	19437.25
2357.08549913925	19354.25
2359.29679184185	19393.25
2361.50744746829	19560.25
2363.71746630804	19437.5
2365.92684865048	19366
2368.13559478499	19377.25
2370.34370500083	19436.5
2372.55117958727	19359.75
2374.75801883352	19394
2376.96422302874	19157.5
2379.16979246202	19262.25
2381.37472742243	19345.25
2383.57902819898	19237.75
2385.78269508063	19192.75
2387.98572835629	19217.5
2390.18812831482	19107.75
2392.38989524505	19275.75
2394.59102943573	19233.5
2396.79153117559	19198
2398.9914007533	19174.25
2401.19063845748	19241.5
2403.38924457672	19093.25
2405.58721939951	19090.25
2407.78456321435	19085
2409.98127630966	19101.5
2412.17735897382	19186
2414.37281149517	19096.25
2416.56763416198	19100.5
2418.76182726249	19243.5
2420.95539108487	19109.25
2423.14832591726	19120.25
2425.34063204776	19019.25
2427.53230976439	19005.75
2429.72335935513	19056.75
2431.91378110795	18944.25
2434.10357531071	19008.75
2436.29274225125	19016
2438.48128221739	18944.75
2440.66919549683	18798.5
2442.8564823773	18952.25
2445.04314314641	18894.75
2447.22917809176	18955
2449.4145875009	18996.75
2451.59937166131	18866.75
2453.78353086044	18828.25
2455.96706538568	18835.5
2458.14997552436	18758.75
2460.33226156379	18779.25
2462.51392379119	18800.25
2464.69496249376	18606.25
2466.87537795862	18638.25
2469.05517047288	18690
2471.23434032357	18667.75
2473.41288779767	18750.75
2475.59081318211	18600.75
2477.76811676378	18567
2479.9447988295	18563.25
2482.12085966605	18490
2484.29629956016	18471.25
2486.4711187985	18557
2488.64531766769	18592.25
2490.8188964543	18642
2492.99185544484	18431.75
2495.16419492579	18534
2497.33591518353	18466.25
2499.50701650444	18582.25
2501.67749917482	18417.25
2503.84736348091	18562.5
2506.01660970891	18441.5
2508.18523814496	18419.75
2510.35324907514	18476.75
2512.52064278551	18461
2514.68741956201	18450
2516.85357969058	18720.25
2519.01912345709	18595.5
2521.18405114735	18555.75
2523.34836304711	18586
2525.51205944208	18562.25
2527.6751406179	18559
2529.83760686016	18643.25
2531.99945845439	18563.75
2534.16069568606	18640.5
2536.3213188406	18654.25
2538.48132820336	18446.5
2540.64072405965	18668.75
2542.79950669471	18649.75
2544.95767639373	18724
2547.11523344184	18651.25
2549.27217812411	18610
2551.42851072555	18626.5
2553.58423153111	18611.5
2555.73934082569	18489
2557.89383889412	18564.5
2560.04772602118	18608.75
2562.20100249158	18425
2564.35366858996	18338.5
2566.50572460093	18471
2568.65717080901	18308.5
2570.80800749867	18439.75
2572.95823495433	18416.75
2575.10785346031	18191
2577.25686330093	18097.25
2579.40526476038	18024.75
2581.55305812282	18067.25
2583.70024367237	17951
2585.84682169303	17980
2587.99279246879	17908.25
2590.13815628354	17936.25
2592.28291342112	17854.25
2594.42706416531	18038
2596.5706087998	17939.5
2598.71354760826	18085.25
2600.85588087425	17967.25
2602.99760888127	17971.25
2605.13873191278	17956
2607.27925025214	17845.75
2609.41916418269	17957
2611.55847398764	17927.25
2613.69717995017	17856.25
2615.83528235339	18061
2617.97278148034	18038.25
2620.10967761398	18054
2622.2459710372	18046.75
2624.38166203284	18032.25
2626.51675088365	18052.5
2628.65123787231	17816.75
2630.78512328145	17967.5
2632.9184073936	17984
2635.05109049124	18080.75
2637.18317285676	18044.75
2639.31465477248	18104
2641.44553652067	18150.25
2643.5758183835	18045
2645.70550064309	18022
2647.83458358144	18130
2649.96306748053	18225
2652.09095262223	18103
2654.21823928836	18231.25
2656.34492776063	18144.5
2658.47101832071	18124.25
2660.59651125015	18262
2662.72140683047	18075
2664.84570534309	18159.75
2666.96940706934	18029.75
2669.0925122905	18013.75
2671.21502128773	18137.5
2673.33693434215	18215.5
2675.45825173479	18156.5
2677.57897374658	18030
2679.69910065839	18224.5
2681.818632751	18167.75
2683.93757030511	18158
2686.05591360133	18135.25
2688.17366292021	18190.5
2690.29081854218	18223
2692.40738074762	17993.5
2694.52334981681	18180.75
2696.63872602995	17998.25
2698.75350966713	18183.75
2700.86770100841	18103.75
2702.98130033371	18028
2705.09430792289	17873.5
2707.20672405571	18093.75
2709.31854901185	18119.5
2711.42978307091	18141.25
2713.54042651238	18168
2715.65047961567	18194.5
2717.7599426601	18181.75
2719.86881592491	18267.25
2721.97709968924	18201.5
2724.08479423213	18110.25
2726.19189983255	18135.75
2728.29841676934	18098.5
2730.4043453213	18224.5
2732.5096857671	18263
2734.61443838532	18150.25
2736.71860345444	18129.5
2738.82218125286	18183.25
2740.92517205889	18290
2743.02757615072	18296.25
2745.12939380646	18200.5
2747.23062530411	18235
2749.33127092159	18305.5
2751.4313309367	18171.75
2753.53080562716	18336.25
2755.62969527058	18379
2757.72800014448	18210.25
2759.82572052625	18289.75
2761.92285669323	18252.5
2764.0194089226	18382
2766.11537749147	18378.75
2768.21076267686	18422.75
2770.30556475566	18308
2772.39978400465	18351.5
2774.49342070054	18277.5
2776.58647511991	18360.25
2778.67894753923	18386
2780.77083823487	18469.25
2782.8621474831	18277.75
2784.95287556007	18245
2787.04302274184	18261
2789.13258930433	18330.5
2791.22157552338	18219.25
2793.30998167471	18234.75
2795.39780803392	18412.25
2797.4850548765	18378.75
2799.57172247786	18317.5
2801.65781111324	18268.75
2803.74332105781	18351
2805.82825258661	18240.25
2807.91260597457	18280.5
2809.9963814965	18297.5
2812.07957942711	18349.25
2814.16220004096	18228.5
2816.24424361252	18279.75
2818.32571041614	18329
2820.40660072604	18328.5
2822.48691481631	18455.25
2824.56665296098	18428
2826.64581543388	18381.5
2828.72440250876	18557.25
2830.80241445925	18605.5
2832.87985155885	18767
2834.95671408093	18907.5
2837.03300229875	19113.5
2839.10871648544	19272.5
2841.18385691399	19416.25
2843.25842385729	19429.25
2845.33241758808	19313.5
2847.40583837898	19341.5
2849.4786865025	19311.75
2851.550962231	19506.25
2853.6226658367	19439.5
2855.69379759173	19319.5
2857.76435776806	19382.75
2859.83434663753	19437.75
2861.90376447184	19500.25
2863.97261154259	19756.5
2866.0408881212	19890.5
2868.10859447901	19991.5
2870.17573088717	20025
2872.24229761673	20027
2874.30829493859	20003.25
2876.37372312352	20135
2878.43858244215	20379.25
2880.50287316496	20544.75
2882.56659556231	20615.75
2884.62974990439	20721.75
2886.69233646129	20506.25
2888.75435550293	20340.25
2890.81580729909	20386
2892.87669211941	20329
2894.93701023339	20266
2896.99676191039	20214.25
2899.05594741961	20473.5
2901.1145670301	20367.75
2903.1726210108	20268.25
2905.23010963045	20481.5
2907.28703315768	20408.75
2909.34339186096	20433
2911.39918600861	20224
2913.45441586879	19976.75
2915.50908170952	19999.5
2917.56318379867	20024.5
2919.61672240395	20202.25
2921.66969779291	20172.25
2923.72211023295	20273
2925.77395999134	20218
2927.82524733515	20291
2929.87597253132	20196
2931.92613584663	19983.25
2933.97573754769	19819.25
2936.02477790097	19716.5
2938.07325717276	19623
2940.1211756292	19758
2942.16853353626	19568
2944.21533115976	19654.75
2946.26156876536	19728.25
2948.30724661853	19698
2950.3523649846	19831.25
2952.39692412872	19888.25
2954.44092431587	19949
2956.48436581089	19823.5
2958.52724887843	19915.75
2960.56957378296	20014.5
2962.6113407888	20117.75
2964.65255016011	19901.25
2966.69320216083	19981
2968.73329705479	19660.25
2970.77283510559	19595.25
2972.81181657671	19541.5
2974.8502417314	19536.25
2976.88811083279	19404.5
2978.92542414378	19443.75
2980.96218192713	19362.75
2982.99838444541	19467.75
2985.034031961	19543.25
2987.06912473612	19475.25
2989.1036630328	19493.75
2991.13764711288	19547.75
2993.17107723804	19530
2995.20395366974	19580.25
2997.23627666931	19661.5
2999.26804649782	19581.5
3001.29926341624	19702.25
3003.32992768528	19779
3005.3600395655	19838.25
3007.38959931726	19918.75
3009.41860720076	19875.5
3011.44706347595	20162.5
3013.47496840263	19940
3015.50232224041	20030.5
3017.5291252487	20125
3019.5553776867	19910.5
3021.58107981344	20119
3023.60623188773	20311.5
3025.63083416822	20249.25
3027.65488691331	20365
3029.67839038125	20314.5
3031.70134483007	20174.25
3033.72375051759	20438.5
3035.74560770144	20398
3037.76691663907	20452.75
3039.78767758768	20460.5
3041.80789080431	20426.5
3043.82755654577	20515
3045.84667506867	20466.5
3047.8652466294	20492.75
3049.88327148418	20471.75
3051.90074988899	20452.5
3053.91768209961	20491.5
3055.9340683716	20444.25
3057.94990896033	20509.5
3059.96520412095	20604.25
3061.97995410838	20597.5
3063.99415917734	20640
3066.00781958234	20486
3068.02093557766	20561.25
3070.03350741738	20399.75
3072.04553535535	20545.5
3074.05701964521	20476
3076.06796054036	20488.5
3078.078358294	20490.25
3080.08821315912	20561.5
3082.09752538846	20678
3084.10629523454	20338.25
3086.11452294967	20498.5
3088.12220878592	20559.25
3090.12935299515	20638.25
3092.13595582898	20589.75
3094.1420175388	20653.25
3096.14753837579	20609.5
3098.15251859088	20661.75
3100.15695843477	20706.75
3102.16085815793	20688.75
3104.16421801061	20603.25
3106.16703824282	20594.75
3108.16931910432	20774
3110.17106084464	20593.25
3112.17226371308	20815.75
3114.17292795872	20817.25
3116.17305383034	20861
3118.17264157657	20833
3120.17169144571	20891.75
3122.17020368587	20725.25
3124.16817854492	20872.25
3126.16561627044	20830.75
3128.16251710982	20973.75
3130.15888131017	20983.25
3132.15470911837	21031.25
3134.15000078104	21098.5
3136.14475654455	21203.75
3138.13897665502	21202.75
3140.13266135835	21171.5
3142.12581090014	21112.5
3144.11842552577	21223
3146.11050548036	21293.75
3148.10205100875	21307.25
3150.09306235557	21357.25
3152.08353976515	21194.25
3154.07348348158	21087.75
3156.06289374869	21360.5
3158.05177081006	21230.75
3160.04011490899	21316.5
3162.02792628852	21422.75
3164.01520519145	21338
3166.00195186029	21309.5
3167.98816653728	21532.25
3169.97384946442	21407
3171.95900088344	21407
3173.94362103577	21518.75
3175.92771016259	21551.25
3177.91126850484	21660
3179.89429630312	21626
3181.87679379782	21593.5
3183.85876122903	21725.5
3185.84019883657	21776.75
3187.82110685997	21876.5
3189.80148553851	21664
3191.78133511116	21882.25
3193.76065581664	21763.75
3195.73944789337	21737.75
3197.7177115795	21758.75
3199.6954471129	21846.75
3201.67265473114	21798.25
3203.64933467153	21705.5
3205.62548717107	21780.5
3207.60111246648	21850.75
3209.57621079421	21710.5
3211.55078239041	21809
3213.52482749093	21712.5
3215.49834633133	21903.25
3217.4713391469	22036.5
3219.44380617262	21908.5
3221.41574764317	22042.25
3223.38716379296	21817
3225.35805485607	21960
3227.32842106631	22021.25
3229.29826265718	22237.5
3231.26757986187	22220.25
3233.2363729133	22237.75
3235.20464204405	22266.25
3237.17238748643	22263
3239.13960947243	22287.5
3241.10630823374	22370.5
3243.07248400174	22344.75
3245.03813700748	22615.25
3247.00326748177	22518.25
3248.96787565503	22443.25
3250.93196175742	22572.25
3252.89552601877	22602
3254.8585686686	22554
3256.82108993612	22722.75
3258.78309005022	22596
3260.74456923948	22615.5
3262.70552773215	22769
3264.66596575617	22781.5
3266.62588353916	22770.25
3268.58528130843	22692.75
3270.54415929094	22632.75
3272.50251771336	22681.75
3274.46035680201	22845
3276.4176767829	22861.25
3278.37447788171	22705.75
3280.33076032379	22865.75
3282.28652433416	22744.75
3284.24177013751	22890
3286.1964979582	22876.5
3288.15070802027	22840.25
3290.10440054741	22891
3292.05757576298	22685.5
3294.01023389001	22893.25
3295.96237515119	22929.25
3297.91399976887	22922
3299.86510796506	22950
3301.81569996142	22994.75
3303.76577597932	22861.75
3305.7153362397	22974
3307.66438096324	22891.75
3309.61291037024	22896.5
3311.56092468064	22868.75
3313.50842411404	22791.75
3315.45540888971	23021
3317.40187922656	22891.75
3319.34783534315	22913.5
3321.29327745768	22830.75
3323.23820578801	22625.25
3325.18262055164	22724
3327.1265219657	22676.75
3329.06991024699	22823.25
3331.01278561194	22839.5
3332.95514827662	22703.5
3334.89699845674	22824.75
3336.83833636766	22862.25
3338.77916222434	22627.5
3340.71947624143	22823.25
3342.65927863317	22822.25
3344.59856961346	22705.5
3346.53734939584	22877.75
3348.47561819344	22774.5
3350.41337621906	22677
3352.35062368513	22738.5
3354.28736080368	22750.25
3356.22358778637	22802
3358.15930484452	22767.75
3360.09451218904	22971.5
3362.02921003047	22910.75
3363.96339857898	22913.5
3365.89707804436	22883.25
3367.83024863602	22867
3369.76291056299	22785
3371.69506403389	22697.75
3373.62670925699	22938.25
3375.55784644016	23039.75
3377.4884757909	22966
3379.41859751629	23121
3381.34821182305	23020
3383.27731891749	23106.25
3385.20591900555	23080.5
3387.13401229276	23116.5
3389.06159898426	23260
3390.9886792848	23262
3392.91525339872	23262.25
3394.84132152998	23360.5
3396.76688388213	23298
3398.69194065833	23290.5
3400.61649206133	23454.5
3402.54053829348	23457.5
3404.46407955672	23184.5
3406.3871160526	23174.75
3408.30964798225	23406.25
3410.23167554639	23377.25
3412.15319894535	23582.75
3414.07421837904	23304.75
3415.99473404695	23419.25
3417.91474614817	23435.5
3419.83425488136	23567.25
3421.75326044479	23531.5
3423.67176303631	23389.75
3425.58976285332	23491
3427.50726009282	23388
3429.42425495143	23420.75
3431.34074762528	23404.5
3433.25673831012	23301.75
3435.17222720127	23280.75
3437.08721449362	23325
3439.00170038164	23187.25
3440.91568505936	23264.25
3442.82916872039	23131.5
3444.74215155791	23166
3446.65463376468	23211.5
3448.566615533	23256.25
3450.47809705476	23237.25
3452.3890785214	23196
3454.29956012393	23232.75
3456.20954205293	23224.25
3458.11902449853	23098.25
3460.02800765041	23002.75
3461.93649169784	22948
3463.84447682962	22934
3465.75196323412	22954.5
3467.65895109925	22987.75
3469.56544061249	22964.25
3471.47143196086	22807.25
3473.37692533093	22928.75
3475.28192090884	22902.5
3477.18641888026	22950.25
3479.09041943039	22839.75
3480.99392274402	22885
3482.89692900545	22904.25
3484.79943839853	22794.25
3486.70145110666	22963.5
3488.60296731277	22835.75
3490.50398719933	22793.75
3492.40451094836	22546.25
3494.30453874141	22711
3496.20407075956	22905.25
3498.10310718342	22781.75
3500.00164819315	22634