201.866871357051	1819
204.754250281454	1848.5
207.640596790938	1814.5
210.525911876299	1818.25
213.410196525689	1837.5
216.293451724508	1830.25
219.175678455485	1843.75
222.056877698662	1836.75
224.937050431388	1825.75
227.816197628363	1847.25
230.694320261602	1835.25
233.571419300504	1845.5
236.447495711764	1855.5
239.322550459507	1869.25
242.196584505182	1883
245.069598807626	1881
247.941594323078	1884.75
250.812572005154	1882.25
253.682532804884	1886.75
256.551477670699	1881
259.419407548456	1881
262.286323381439	1896.25
265.152226110364	1874.5
268.017116673389	1862.25
270.880996006115	1852.5
273.743865041622	1852.25
276.605724710436	1853.5
279.466575940562	1856.5
282.326419657496	1853.75
285.1852567842	1848
288.043088241157	1841
290.899914946349	1849
293.75573781526	1863
296.610557760898	1863.75
299.464375693817	1851.25
302.317192522078	1851.5
305.169009151297	1859.75
308.019826484655	1854.25
310.86964542287	1882
313.718466864233	1897.75
316.566291704614	1909.75
319.413120837457	1886.75
322.258955153804	1860.5
325.103795542291	1857.25
327.947642889128	1880
330.79049807819	1859.75
333.632361990927	1847.75
336.473235506444	1844.5
339.31311950145	1847.5
342.152014850322	1867.25
344.989922425062	1856.75
347.826843095354	1857.25
350.662777728528	1868.75
353.497727189577	1871.25
356.331692341195	1848.75
359.164674043732	1860.25
361.996673155267	1876.25
364.827690531536	1895.75
367.65772702602	1898.75
370.486783489887	1890.5
373.314860772047	1892.25
376.14195971912	1898.25
378.968081175466	1887
381.793225983212	1862
384.617394982201	1924.75
387.44058901005	1927.75
390.262808902131	1977.75
393.08405549161	2031
395.904329609395	2066.25
398.723632084213	2100.25
401.541963742569	2099
404.359325408779	2038.5
407.175717904938	1989
409.991142050982	1941.75
412.805598664665	1930.25
415.619088561551	1923.25
418.43161255505	1928.75
421.243171456415	1915
424.053766074758	1929.25
426.863397217017	1909.25
429.672065688024	1906.5
432.479772290455	1907.75
435.286517824879	1921.5
438.092303089736	1932
440.897128881359	1942.75
443.70099599399	1946.5
446.503905219761	1934.5
449.305857348711	1962
452.106853168796	1943
454.906893465919	1946.25
457.705979023885	1973.25
460.504110624439	1969.75
463.3012890473	1925.5
466.097515070087	1918.25
468.892789468424	1892
471.687113015869	1914
474.48048648395	1887.75
477.272910642198	1878.75
480.064386258109	1910.5
482.854914097159	1902.75
485.644494922839	1907.5
488.433129496636	1906.5
491.220818578047	1919.25
494.007562924584	1909.75
496.793363291785	1913.25
499.578220433217	1899
502.362135100473	1934.5
505.145108043209	1927
507.927140009098	1947.75
510.708231743909	1940.75
513.488383991433	1934.25
516.267597493556	1949
519.04587299022	1949.25
521.82321121946	1963.5
524.599612917398	1992.25
527.375078818233	1995
530.149609654287	1997.25
532.923206155967	1980.5
535.695869051804	1966.25
538.467599068448	1944.5
541.238396930665	1911
544.008263361364	1912
546.777199081578	1900
549.545204810493	1915.25
552.312281265436	1919.5
555.078429161898	1904
557.843649213533	1916
560.607942132156	1917.25
563.371308627753	1915.5
566.133749408495	1931.75
568.895265180756	1942
571.655856649064	1923
574.415524516189	1924.75
577.174269483075	1923.25
579.932092248884	1940.5
582.688993510994	1953.75
585.444973965023	1936.75
588.200034304795	1949.25
590.95417522237	1942.75
593.70739740807	1942.5
596.459701550433	1983.75
599.21108833628	1955.5
601.961558450668	1940
604.711112576933	1956.25
607.459751396673	1943
610.207475589748	1935.5
612.954285834338	1938.25
615.700182806879	1922.75
618.445167182101	1918.75
621.189239633055	1917
623.932400831087	1905.5
626.674651445839	1919
629.415992145303	1909.75
632.156423595745	1915.75
634.895946461813	1909.25
637.634561406449	1902.75
640.37226909096	1921.5
643.109070174978	1929.25
645.844965316508	1902
648.579955171888	1891.25
651.314040395846	1902.75
654.047221641456	1910.25
656.779499560176	1926
659.510874801828	1890.25
662.241348014642	1912
664.97091984524	1920.25
667.699590938606	1919.25
670.427361938164	1941
673.15423348573	1958.75
675.880206221526	1956
678.605280784206	1969
681.329457810829	1952.75
684.05273793692	1969
686.775121796389	1963
689.49661002163	1949.75
692.217203243454	1938.25
694.936902091144	1937.75
697.655707192425	1933.75
700.373619173493	1947.75
703.09063865901	1912.5
705.806766272093	1911.25
708.522002634378	1922
711.236348365946	1922.75
713.94980408538	1914.25
716.662370409762	1907.75
719.374047954676	1932
722.08483733419	1900.25
724.794739160909	1901.5
727.503754045949	1935.5
730.21188259892	1950.25
732.919125427998	1915.25
735.625483139855	1914.5
738.330956339723	1934
741.035545631374	1956.25
743.739251617106	1947.75
746.44207489779	1974.75
749.144016072852	1963.5
751.845075740272	1961
754.545254496603	1965.25
757.244552936976	1957
759.94297165508	1969.75
762.640511243222	1933.25
765.337172292249	1955
768.032955391649	1949.25
770.727861129482	1999.75
773.421890092413	1962.25
776.11504286572	1956.75
778.807320033298	1983.5
781.49872217765	1958.5
784.18924987991	1946.25
786.87890371984	1973.75
789.567684275826	1985
792.255592124908	1976.5
794.94262784276	1991.75
797.628792003703	1971.5
800.314085180715	2036.5
802.998507945427	2113.5
805.682060868145	2187
808.364744517821	2263.25
811.046559462105	2268.5
813.727506267311	2160.5
816.407585498422	2079.25
819.08679771913	2039.5
821.765143491822	2053.75
824.442623377563	2052.5
827.119237936127	2060.5
829.794987726003	2055.5
832.469873304377	2084.75
835.143895227167	2131.75
837.817054048985	2225.75
840.489350323205	2252.5
843.160784601892	2238.25
845.831357435894	2162.75
848.501069374739	2104.25
851.169920966753	2047.75
853.837912758987	2025.5
856.505045297232	2026.25
859.171319126071	2023.75
861.836734788823	2028.75
864.501292827579	2020.25
867.164993783208	2005
869.827838195361	1996.25
872.489826602454	1993.25
875.150959541701	1994.25
877.811237549104	2004
880.470661159456	2001.5
883.129230906357	1994.75
885.786947322205	1974
888.443810938206	2004.75
891.099822284385	2002.5
893.754981889586	2017.75
896.409290281452	2022.25
899.062747986485	2021
901.715355529999	2049.5
904.367113436154	2007.5
907.01802222793	2003.25
909.668082427172	1982.25
912.317294554574	2021.5
914.965659129659	2051
917.613176670835	2019.25
920.259847695364	2021
922.90567271936	2032.75
925.550652257825	2033
928.194786824621	2023.25
930.838076932512	2035.25
933.480523093109	2042.25
936.122125816953	2088.75
938.762885613447	2085
941.402802990899	2092.25
944.041878456523	2061.75
946.680112516428	2067
949.31750567563	2052.5
951.954058438081	2089.5
954.589771306633	2080
957.224644783048	2086.5
959.858679368044	2085.25
962.491875561238	2076.25
965.12423386121	2131.5
967.75575476545	2112.25
970.386438770423	2165.5
973.016286371501	2179.25
975.645298063046	2146.5
978.273474338355	2134.75
980.900815689674	2073.5
983.527322608243	2074.25
986.152995584245	2077
988.777835106834	2097.25
991.401841664148	2103
994.025015743307	2131.75
996.647357830407	2140.5
999.268868410534	2186
1001.88954796777	2174.5
1004.50939698518	2152.5
1007.12841594484	2100
1009.74660532783	2088.5
1012.36396561423	2134
1014.98049728314	2103.25
1017.59620081267	2104.5
1020.21107667995	2109.5
1022.82512536112	2133.25
1025.43834733138	2149.75
1028.05074306493	2179
1030.66231303501	2165.75
1033.27305771392	2197.25
1035.88297757299	2225
1038.49207308257	2206.75
1041.10034471211	2198
1043.70779293008	2224
1046.31441820402	2198.75
1048.92022100052	2192.25
1051.52520178525	2182.5
1054.12936102295	2179.75
1056.73269917742	2181.25
1059.33521671154	2189.75
1061.93691408729	2195.5
1064.53779176571	2181.5
1067.13785020694	2194.25
1069.73708987022	2194.5
1072.33551121386	2199.25
1074.93311469528	2169.25
1077.52990077103	2212
1080.12586989674	2199.25
1082.72102252714	2201
1085.31535911611	2186.25
1087.90888011663	2218.5
1090.50158598078	2213
1093.09347715979	2222.5
1095.68455410403	2201
1098.27481726296	2228.25
1100.86426708523	2229.75
1103.45290401857	2257
1106.04072850991	2247.75
1108.6277410053	2225.75
1111.21394194993	2256.25
1113.79933178816	2269.5
1116.3839109635	2248
1118.96767991862	2247.5
1121.55063909539	2241.25
1124.13278893477	2279.5
1126.71412987696	2293.75
1129.29466236132	2287.25
1131.87438682637	2311
1134.45330370982	2320.5
1137.03141344858	2343.75
1139.60871647872	2328.75
1142.18521323554	2371.5
1144.7609041535	2405
1147.33578966629	2475.5
1149.90987020676	2508.75
1152.48314620702	2503
1155.05561809835	2472.25
1157.62728631125	2481.25
1160.19815127545	2455.25
1162.76821341988	2462.25
1165.33747317271	2475.5
1167.90593096133	2470.5
1170.47358721235	2434.75
1173.04044235163	2415.25
1175.60649680425	2395.5
1178.17175099454	2396.75
1180.73620534607	2407.5
1183.29986028165	2402
1185.86271622336	2394.25
1188.42477359249	2358.75
1190.98603280964	2374.75
1193.54649429462	2379.5
1196.10615846653	2389.75
1198.66502574372	2405.25
1201.22309654385	2412.75
1203.78037128378	2397.75
1206.33685037971	2409.75
1208.89253424709	2430
1211.44742330063	2427.75
1214.00151795438	2484.25
1216.55481862163	2497.75
1219.10732571497	2511.5
1221.65903964631	2493.5
1224.20996082683	2491
1226.760089667	2464.75
1229.30942657664	2472.75
1231.85797196483	2476.25
1234.40572623998	2507.25
1236.95268980981	2479.75
1239.49886308136	2508
1242.04424646098	2520
1244.58884035435	2536.75
1247.13264516647	2561.5
1249.67566130166	2572
1252.21788916358	2585.75
1254.75932915524	2629.5
1257.29998167896	2620.5
1259.83984713639	2619.75
1262.37892592857	2640
1264.91721845586	2638.75
1267.45472511795	2643
1269.9914463139	2632.75
1272.52738244213	2659.75
1275.0625339004	2658.75
1277.59690108587	2684.5
1280.130484395	2697
1282.66328422367	2705
1285.19530096712	2707.75
1287.72653501993	2763.75
1290.25698677608	2778.5
1292.78665662894	2807.5
1295.31554497125	2798.5
1297.8436521951	2830
1300.37097869203	2819.25
1302.89752485292	2825.5
1305.42329106805	2815.75
1307.94827772713	2832
1310.47248521921	2837.25
1312.99591393279	2838.75
1315.51856425575	2876.5
1318.04043657536	2870.5
1320.56153127836	2941
1323.08184875083	2991.75
1325.6013893783	3080.75
1328.12015354572	3131.5
1330.63814163744	3181
1333.15535403727	3145
1335.67179112839	3109.75
1338.18745329347	3091.5
1340.70234091454	3027.75
1343.21645437314	3019.25
1345.72979405019	3067
1348.24236032607	3029.5
1350.75415358059	3109.75
1353.26517419303	3100.25
1355.7754225421	3168.25
1358.28489900594	3219
1360.79360396218	3213.5
1363.30153778787	3188.25
1365.80870085955	3157
1368.31509355319	3182.75
1370.82071624424	3184.25
1373.32556930762	3181.25
1375.8296531177	3165.75
1378.33296804832	3195.5
1380.83551447282	3197.5
1383.33729276399	3178
1385.83830329408	3211.75
1388.33854643489	3207.5
1390.83802255762	3216.25
1393.33673203301	3215
1395.83467523128	3229.75
1398.33185252211	3183.75
1400.82826427471	3193
1403.32391085777	3230.25
1405.81879263947	3263.5
1408.31290998752	3266.75
1410.80626326908	3270
1413.29885285087	3282.5
1415.79067909909	3320.75
1418.28174237944	3305.75
1420.77204305717	3359.25
1423.26158149702	3366.25
1425.75035806323	3388
1428.2383731196	3421.75
1430.72562702942	3458.25
1433.21212015554	3526.25
1435.69785286028	3582
1438.18282550555	3644.75
1440.66703845275	3612.75
1443.15049206284	3648.5
1445.6331866963	3697
1448.11512271316	3738
1450.59630047298	3814
1453.07672033486	3887.5
1455.55638265748	3992
1458.03528779902	4039.25
1460.51343611725	3978.5
1462.99082796946	3945
1465.46746371252	3882
1467.94334370285	3824.5
1470.41846829642	3731.75
1472.89283784878	3767
1475.36645271503	3808
1477.83931324983	3769.25
1480.31141980743	3801.5
1482.78277274164	3772.25
1485.25337240583	3760.5
1487.72321915297	3731.5
1490.19231333557	3778
1492.66065530578	3803.5
1495.12824541525	3800.75
1497.5950840153	3826.25
1500.06117145678	3861.25
1502.52650809014	3849.75
1504.99109426543	3871.75
1507.45493033227	3881.5
1509.91801663992	3884.25
1512.38035353717	3911
1514.84194137248	3892.5
1517.30278049386	3965.5
1519.76287124894	3967
1522.22221398497	4001.25
1524.68080904876	4003.25
1527.13865678681	4062
1529.59575754514	4088.5
1532.05211166945	4121.25
1534.50771950503	4104.75
1536.96258139678	4122.25
1539.41669768924	4109
1541.87006872656	4191
1544.32269485252	4210
1546.77457641051	4194.75
1549.22571374357	4244
1551.67610719434	4233.5
1554.12575710513	4276.25
1556.57466381785	4300.5
1559.02282767408	4309.25
1561.47024901499	4372.75
1563.91692818144	4398.5
1566.3628655139	4453.5
1568.80806135249	4381
1571.252516037	4432
1573.6962299068	4486.75
1576.13920330099	4489.75
1578.58143655828	4555.25
1581.02293001704	4544
1583.46368401528	4618.25
1585.90369889071	4637
1588.34297498065	4694.5
1590.7815126221	4755.5
1593.21931215173	4775.5
1595.65637390588	4749
1598.09269822053	4798.25
1600.52828543135	4855.25
1602.96313587367	4834.5
1605.3972498825	4833.25
1607.83062779252	4758.5
1610.26326993808	4808.75
1612.69517665322	4779.75
1615.12634827165	4802
1617.55678512676	4740.25
1619.98648755163	4694.25
1622.41545587902	4761
1624.84369044138	4735.5
1627.27119157085	4774.25
1629.69795959924	4726.75
1632.12399485808	4794.5
1634.54929767859	4806.25
1636.97386839165	4794.25
1639.39770732789	4778.75
1641.8208148176	4806.5
1644.24319119078	4849
1646.66483677715	4824
1649.0857519061	4853.5
1651.50593690677	4883.75
1653.92539210795	4943.75
1656.3441178382	4941.25
1658.76211442575	4955.75
1661.17938219855	4906.75
1663.59592148428	4981.5
1666.01173261032	4995.5
1668.42681590377	5000.75
1670.84117169145	5027.5
1673.25480029991	5047
1675.66770205541	5008.75
1678.07987728393	5085
1680.49132631119	5098.5
1682.90204946263	5123.25
1685.31204706342	5150.75
1687.72131943846	5184.75
1690.1298669124	5179.75
1692.53768980957	5187.5
1694.94478845411	5206.5
1697.35116316982	5213
1699.75681428031	5239.75
1702.16174210887	5223.25
1704.56594697858	5206.5
1706.96942921222	5292.5
1709.37218913235	5264.5
1711.77422706125	5243.5
1714.17554332098	5269.5
1716.5761382333	5335.25
1718.97601211977	5254
1721.37516530169	5272.75
1723.77359810006	5288
1726.17131083572	5365.25
1728.56830382922	5356.75
1730.96457740087	5359.25
1733.36013187075	5263
1735.75496755868	5287.5
1738.14908478428	5378.25
1740.54248386689	5346.25
1742.93516512565	5330
1745.32712887946	5369
1747.71837544697	5349.5
1750.10890514662	5373.75
1752.49871829661	5387.25
1754.88781521492	5412.5
1757.27619621929	5446.5
1759.66386162726	5415.75
1762.05081175612	5398
1764.43704692297	5397.5
1766.82256744465	5466.25
1769.20737363782	5538.5
1771.59146581887	5509
1773.97484430405	5525.25
1776.35750940932	5563
1778.73946145048	5549.5
1781.12070074309	5538.75
1783.50122760249	5653.5
1785.88104234385	5654.5
1788.26014528209	5656
1790.63853673196	5644
1793.01621700796	5713.25
1795.39318642443	5714.5
1797.76944529549	5691.75
1800.14499393503	5741
1802.51983265681	5695.5
1804.8939617743	5777.75
1807.26738160085	5814.75
1809.64009244957	5790.25
1812.01209463339	5746.25
1814.38338846504	5848.25
1816.75397425706	5793.25
1819.12385232181	5819
1821.49302297142	5806.5
1823.86148651789	5802.25
1826.22924327299	5830.5
1828.59629354831	5847
1830.96263765526	5867.25
1833.32827590507	5809.75
1835.69320860877	5894.25
1838.05743607724	5898.25
1840.42095862113	5851
1842.78377655097	5918.25
1845.14589017707	5916.25
1847.50729980956	5908
1849.86800575843	5917.75
1852.22800833346	5865.5
1854.58730784427	5930
1856.94590460032	6003.5
1859.30379891087	6012.25
1861.66099108503	5975
1864.01748143175	6011.25
1866.37327025978	6065.25
1868.72835787773	6041.25
1871.08274459403	6089.5
1873.43643071697	6043
1875.78941655464	6169.25
1878.14170241498	6090.5
1880.4932886058	6205.75
1882.84417543469	6191.25
1885.19436320915	6193.5
1887.54385223646	6167
1889.89264282378	6196
1892.24073527809	6231.25
1894.58812990625	6273.75
1896.93482701493	6383.25
1899.28082691067	6263.25
1901.62612989984	6376
1903.97073628868	6419.25
1906.31464638326	6383.25
1908.6578604895	6413.75
1911.00037891321	6474.5
1913.34220196	6529.25
1915.68332993537	6539
1918.02376314468	6550.25
1920.36350189311	6518.75
1922.70254648573	6577.5
1925.04089722744	6606.25
1927.37855442303	6570.5
1929.71551837715	6543.75
1932.05178939426	6645.5
1934.38736777876	6565.5
1936.72225383484	6600
1939.0564478666	6673.75
1941.38995017799	6555.25
1943.72276107283	6769.5
1946.05488085479	6660.5
1948.38630982744	6622.25
1950.71704829419	6665.75
1953.04709655832	6645.5
1955.376454923	6653.75
1957.70512369126	6725
1960.03310316599	6669.25
1962.36039364999	6627.75
1964.68699544589	6635.5
1967.01290885622	6710
1969.33813418338	6693
1971.66267172965	6656.25
1973.98652179718	6715.25
1976.309684688	6781.75
1978.63216070402	6690
1980.95395014705	6907
1983.27505331873	6788.75
1985.59547052063	6790.75
1987.9152020542	6808
1990.23424822074	6818
1992.55260932146	6819.5
1994.87028565746	6866
1997.18727752968	6858.5
1999.503585239	6930
2001.81920908618	6901
2004.13414937184	6919.75
2006.44840639651	6995.5
2008.7619804606	7003.75
2011.07487186442	7005.25
2013.38708090815	7057
2015.6986078919	7007
2018.00945311564	7054.75
2020.31961687923	7056.75
2022.62909948246	7066
2024.93790122498	7141.25
2027.24602240636	7139.5
2029.55346332604	7163.75
2031.86022428337	7118
2034.16630557761	7194
2036.47170750791	7232.75
2038.77643037331	7176.75
2041.08047447275	7251.25
2043.38384010509	7181.75
2045.68652756907	7187.25
2047.98853716335	7189
2050.28986918648	7243.25
2052.59052393692	7262.25
2054.89050171302	7234.5
2057.18980281306	7203
2059.4884275352	7281.25
2061.78637617753	7174
2064.08364903802	7241.75
2066.38024641457	7212
2068.67616860497	7243.5
2070.97141590694	7168.5
2073.26598861809	7275.5
2075.55988703595	7196.75
2077.85311145796	7196
2080.14566218145	7222
2082.43753950371	7193.75
2084.72874372188	7215.75
2087.01927513307	7190.5
2089.30913403428	7237
2091.59832072241	7245
2093.88683549429	7192.75
2096.17467864666	7171
2098.46185047619	7209.75
2100.74835127944	7229
2103.03418135292	7263.25
2105.31934099303	7184.25
2107.6038304961	7287
2109.88765015838	7298
2112.17080027602	7296.25
2114.45328114513	7318.5
2116.7350930617	7233.5
2119.01623632165	7286.25
2121.29671122085	7234.5
2123.57651805505	7287.75
2125.85565711996	7333.25
2128.13412871117	7311.25
2130.41193312424	7354.5
2132.68907065462	7334.75
2134.96554159771	7334.5
2137.24134624881	7306
2139.51648490317	7352.5
2141.79095785593	7317
2144.0647654022	7354.5
2146.33790783698	7392.25
2148.61038545524	7312.75
2150.88219855182	7362.25
2153.15334742154	7337.25
2155.42383235911	7394.5
2157.6936536592	7408.5
2159.9628116164	7374.5
2162.23130652522	7310.5
2164.49913868011	7374
2166.76630837544	7363
2169.03281590552	7367.25
2171.2986615646	7339.5
2173.56384564685	7386
2175.82836844637	7255.25
2178.0922302572	7326
2180.35543137332	7301
2182.61797208862	7324.75
2184.87985269695	7223.75
2187.14107349208	7248
2189.40163476773	7267.5
2191.66153681753	7256.75
2193.92077993507	7211.75
2196.17936441386	7228.75
2198.43729054735	7171.75
2200.69455862894	7171.25
2202.95116895194	7190.5
2205.20712180962	7118.25
2207.46241749519	7156
2209.71705630179	7127.25
2211.97103852248	7137.5
2214.2243644503	7130
2216.47703437819	7104.75
2218.72904859905	7177
2220.98040740571	7087
2223.23111109095	7062.5
2225.4811599475	7045.75
2227.73055426799	7101.75
2229.97929434504	7003
2232.22738047118	7008.5
2234.47481293889	6969.25
2236.72159204058	7026.25
2238.96771806864	7031.5
2241.21319131536	6947.75
2243.458012073	6931.75
2245.70218063374	6990.75
2247.94569728973	7024.25
2250.18856233304	6988.25
2252.4307760557	6892.25
2254.67233874967	6917.25
2256.91325070687	6944
2259.15351221915	6911
2261.39312357831	6875.25
2263.63208507611	6877.75
2265.87039700422	6849.75
2268.1080596543	6881.25
2270.34507331792	6791.5
2272.5814382866	6812
2274.81715485183	6896.5
2277.05222330502	6797.75
2279.28664393755	6816.75
2281.52041704072	6767.25
2283.75354290581	6834.25
2285.98602182401	6811.25
2288.21785408648	6743
2290.44903998434	6768.25
2292.67957980862	6799.5
2294.90947385033	6700.5
2297.1387224004	6790.75
2299.36732574975	6743.5
2301.59528418921	6732.25
2303.82259800958	6724.25
2306.04926750158	6661.5
2308.27529295593	6668.5
2310.50067466325	6674
2312.72541291412	6630
2314.9495079991	6695.5
2317.17296020866	6670.5
2319.39576983323	6642
2321.61793716322	6615.25
2323.83946248894	6606
2326.06034610069	6550.75
2328.28058828871	6584
2330.50018934317	6573.25
2332.7191495542	6569
2334.93746921192	6535.75
2337.15514860633	6537.75
2339.37218802743	6555.25
2341.58858776516	6497.25
2343.80434810941	6494.5
2346.01946935001	6524.5
2348.23395177675	6443.75
2350.44779567939	6463.75
2352.66100134759	6431.25
2354.87356907101	6434.5
2357.08549913925	6462.25
2359.29679184185	6430
2361.50744746829	6442
2363.71746630804	6403
2365.92684865048	6397.75
2368.13559478499	6391.25
2370.34370500083	6454.25
2372.55117958727	6372.25
2374.75801883352	6324.5
2376.96422302874	6287.25
2379.16979246202	6302.25
2381.37472742243	6313.75
2383.57902819898	6294.75
2385.78269508063	6288.75
2387.98572835629	6221.75
2390.18812831482	6241.75
2392.38989524505	6212.25
2394.59102943573	6210.5
2396.79153117559	6215.25
2398.9914007533	6178.25
2401.19063845748	6163.25
2403.38924457672	6129.5
2405.58721939951	6155.5
2407.78456321435	6108
2409.98127630966	6120
2412.17735897382	6093.5
2414.37281149517	6098.5
2416.56763416198	6086.75
2418.76182726249	6099.75
2420.95539108487	6037.25
2423.14832591726	6071
2425.34063204776	6014.75
2427.53230976439	6026.5
2429.72335935513	6005
2431.91378110795	6019.75
2434.10357531071	5946.25
2436.29274225125	6016
2438.48128221739	5974
2440.66919549683	5929.5
2442.8564823773	5948
2445.04314314641	5946.5
2447.22917809176	5915.5
2449.4145875009	5887.5
2451.59937166131	5915.75
2453.78353086044	5848.25
2455.96706538568	5932.25
2458.14997552436	5909.5
2460.33226156379	5819.5
2462.51392379119	5838.75
2464.69496249376	5808.5
2466.87537795862	5811
2469.05517047288	5858.5
2471.23434032357	5750
2473.41288779767	5799.75
2475.59081318211	5797.5
2477.76811676378	5735.25
2479.9447988295	5743
2482.12085966605	5728.5
2484.29629956016	5705.25
2486.4711187985	5709
2488.64531766769	5743.25
2490.8188964543	5753
2492.99185544484	5676.25
2495.16419492579	5714
2497.33591518353	5717.5
2499.50701650444	5681.25
2501.67749917482	5748.75
2503.84736348091	5728.25
2506.01660970891	5693.25
2508.18523814496	5670.75
2510.35324907514	5696.75
2512.52064278551	5682
2514.68741956201	5686.75
2516.85357969058	5728
2519.01912345709	5727.25
2521.18405114735	5689.5
2523.34836304711	5677
2525.51205944208	5673.5
2527.6751406179	5691.5
2529.83760686016	5695.5
2531.99945845439	5679.75
2534.16069568606	5691.75
2536.3213188406	5690.5
2538.48132820336	5566.75
2540.64072405965	5659
2542.79950669471	5636
2544.95767639373	5755.5
2547.11523344184	5611.25
2549.27217812411	5660
2551.42851072555	5649.75
2553.58423153111	5647.25
2555.73934082569	5616.5
2557.89383889412	5601.5
2560.04772602118	5639.75
2562.20100249158	5552
2564.35366858996	5538.5
2566.50572460093	5563.5
2568.65717080901	5570
2570.80800749867	5574.5
2572.95823495433	5550.5
2575.10785346031	5503
2577.25686330093	5536
2579.40526476038	5479
2581.55305812282	5489.75
2583.70024367237	5447.25
2585.84682169303	5492.75
2587.99279246879	5453.75
2590.13815628354	5459
2592.28291342112	5445
2594.42706416531	5443.75
2596.5706087998	5449.75
2598.71354760826	5485.5
2600.85588087425	5476.5
2602.99760888127	5498.25
2605.13873191278	5418
2607.27925025214	5387.75
2609.41916418269	5407
2611.55847398764	5498.5
2613.69717995017	5417
2615.83528235339	5443.75
2617.97278148034	5451.5
2620.10967761398	5428.25
2622.2459710372	5475.25
2624.38166203284	5457.5
2626.51675088365	5456.25
2628.65123787231	5377.5
2630.78512328145	5450.5
2632.9184073936	5440.5
2635.05109049124	5475
2637.18317285676	5396.25
2639.31465477248	5461
2641.44553652067	5523
2643.5758183835	5457.5
2645.70550064309	5466.75
2647.83458358144	5532.75
2649.96306748053	5540.25
2652.09095262223	5537.5
2654.21823928836	5546
2656.34492776063	5541
2658.47101832071	5509.25
2660.59651125015	5522.25
2662.72140683047	5502.5
2664.84570534309	5480.25
2666.96940706934	5486
2669.0925122905	5457.5
2671.21502128773	5519.75
2673.33693434215	5503
2675.45825173479	5519.25
2677.57897374658	5487.25
2679.69910065839	5526.5
2681.818632751	5487.5
2683.93757030511	5483.25
2686.05591360133	5469.25
2688.17366292021	5481.5
2690.29081854218	5513.75
2692.40738074762	5461
2694.52334981681	5505
2696.63872602995	5456.75
2698.75350966713	5510
2700.86770100841	5520
2702.98130033371	5500.25
2705.09430792289	5521.5
2707.20672405571	5535.25
2709.31854901185	5621.5
2711.42978307091	5575.5
2713.54042651238	5573.25
2715.65047961567	5581.75
2717.7599426601	5593.25
2719.86881592491	5593
2721.97709968924	5687.5
2724.08479423213	5648
2726.19189983255	5599.75
2728.29841676934	5567.25
2730.4043453213	5596.75
2732.5096857671	5630.5
2734.61443838532	5606.75
2736.71860345444	5505
2738.82218125286	5584.25
2740.92517205889	5576.25
2743.02757615072	5597.75
2745.12939380646	5532.5
2747.23062530411	5553.5
2749.33127092159	5579.25
2751.4313309367	5501
2753.53080562716	5561
2755.62969527058	5568.25
2757.72800014448	5563.75
2759.82572052625	5569.5
2761.92285669323	5551.75
2764.0194089226	5560
2766.11537749147	5597
2768.21076267686	5602.5
2770.30556475566	5583.25
2772.39978400465	5578.25
2774.49342070054	5528.5
2776.58647511991	5603.25
2778.67894753923	5598
2780.77083823487	5614
2782.8621474831	5578
2784.95287556007	5583.5
2787.04302274184	5576.75
2789.13258930433	5579.5
2791.22157552338	5617.25
2793.30998167471	5583.25
2795.39780803392	5651.25
2797.4850548765	5636.75
2799.57172247786	5623
2801.65781111324	5625.75
2803.74332105781	5624.25
2805.82825258661	5667.5
2807.91260597457	5665.5
2809.9963814965	5657.75
2812.07957942711	5700.5
2814.16220004096	5629.5
2816.24424361252	5678
2818.32571041614	5772.25
2820.40660072604	5748.75
2822.48691481631	5841
2824.56665296098	5896.75
2826.64581543388	5873.25
2828.72440250876	6021.25
2830.80241445925	6085
2832.87985155885	6292.25
2834.95671408093	6553.25
2837.03300229875	6842.5
2839.10871648544	6936.5
2841.18385691399	7040.5
2843.25842385729	6989.25
2845.33241758808	6811.25
2847.40583837898	6750.75
2849.4786865025	6667.5
2851.550962231	6644.25
2853.6226658367	6633.25
2855.69379759173	6598.25
2857.76435776806	6702.75
2859.83434663753	6853.75
2861.90376447184	7104.25
2863.97261154259	7382
2866.0408881212	7726.5
2868.10859447901	7787.75
2870.17573088717	7832.25
2872.24229761673	7828
2874.30829493859	7873
2876.37372312352	8035.5
2878.43858244215	8294.75
2880.50287316496	8522.75
2882.56659556231	8632.75
2884.62974990439	8665.25
2886.69233646129	8484.75
2888.75435550293	8321.25
2890.81580729909	8147.25
2892.87669211941	8004
2894.93701023339	7934.5
2896.99676191039	7925.5
2899.05594741961	7990.25
2901.1145670301	8014.75
2903.1726210108	8084.25
2905.23010963045	8245.5
2907.28703315768	8104.25
2909.34339186096	7961
2911.39918600861	7742
2913.45441586879	7510.75
2915.50908170952	7466.75
2917.56318379867	7526.5
2919.61672240395	7583
2921.66969779291	7578.25
2923.72211023295	7656.25
2925.77395999134	7616.25
2927.82524733515	7514
2929.87597253132	7423
2931.92613584663	7213.5
2933.97573754769	7011.5
2936.02477790097	6921.25
2938.07325717276	6763.25
2940.1211756292	6772.25
2942.16853353626	6762.25
2944.21533115976	6830.25
2946.26156876536	6948
2948.30724661853	7144.75
2950.3523649846	7347.5
2952.39692412872	7380
2954.44092431587	7306
2956.48436581089	7248
2958.52724887843	7228.75
2960.56957378296	7274.25
2962.6113407888	7228.5
2964.65255016011	7125
2966.69320216083	7014
2968.73329705479	6741
2970.77283510559	6670.75
2972.81181657671	6536
2974.8502417314	6514.75
2976.88811083279	6447.25
2978.92542414378	6444.25
2980.96218192713	6395.5
2982.99838444541	6331.5
2985.034031961	6349.25
2987.06912473612	6340.25
2989.1036630328	6258
2991.13764711288	6252.75
2993.17107723804	6294
2995.20395366974	6323.5
2997.23627666931	6347.75
2999.26804649782	6328.5
3001.29926341624	6358.5
3003.32992768528	6339.25
3005.3600395655	6391.25
3007.38959931726	6319.25
3009.41860720076	6405.25
3011.44706347595	6436.25
3013.47496840263	6382
3015.50232224041	6460.75
3017.5291252487	6458.25
3019.5553776867	6438.75
3021.58107981344	6461
3023.60623188773	6493.5
3025.63083416822	6466.75
3027.65488691331	6499.75
3029.67839038125	6503.25
3031.70134483007	6490.5
3033.72375051759	6546.75
3035.74560770144	6534.25
3037.76691663907	6527.5
3039.78767758768	6537.25
3041.80789080431	6551.75
3043.82755654577	6595.5
3045.84667506867	6629.25
3047.8652466294	6581.75
3049.88327148418	6590
3051.90074988899	6556.25
3053.91768209961	6592.25
3055.9340683716	6520.25
3057.94990896033	6593.75
3059.96520412095	6586.25
3061.97995410838	6614.75
3063.99415917734	6616.75
3066.00781958234	6580.75
3068.02093557766	6626.5
3070.03350741738	6537
3072.04553535535	6632.25
3074.05701964521	6548.75
3076.06796054036	6576.75
3078.078358294	6575
3080.08821315912	6626.75
3082.09752538846	6675.25
3084.10629523454	6555
3086.11452294967	6590.75
3088.12220878592	6575.75
3090.12935299515	6649.25
3092.13595582898	6648
3094.1420175388	6608.5
3096.14753837579	6620
3098.15251859088	6639.75
3100.15695843477	6690.75
3102.16085815793	6642.5
3104.16421801061	6618.5
3106.16703824282	6650.75
3108.16931910432	6640.75
3110.17106084464	6586.5
3112.17226371308	6696.25
3114.17292795872	6705.75
3116.17305383034	6716
3118.17264157657	6646.75
3120.17169144571	6723.5
3122.17020368587	6708.75
3124.16817854492	6760
3126.16561627044	6757.5
3128.16251710982	6775
3130.15888131017	6804.75
3132.15470911837	6775.5
3134.15000078104	6844.5
3136.14475654455	6874.75
3138.13897665502	6820
3140.13266135835	6847.75
3142.12581090014	6853.75
3144.11842552577	6889.5
3146.11050548036	6906.25
3148.10205100875	6906.25
3150.09306235557	6948.75
3152.08353976515	6856
3154.07348348158	6855.25
3156.06289374869	6934
3158.05177081006	6888.25
3160.04011490899	6941.25
3162.02792628852	6987.5
3164.01520519145	6888.25
3166.00195186029	6924.25
3167.98816653728	6924.25
3169.97384946442	6935.75
3171.95900088344	6906.5
3173.94362103577	6984
3175.92771016259	6954.25
3177.91126850484	6986.5
3179.89429630312	6964.25
3181.87679379782	6914
3183.85876122903	7022
3185.84019883657	6977.75
3187.82110685997	7046.75
3189.80148553851	6991.25
3191.78133511116	7033.75
3193.76065581664	7052
3195.73944789337	7065.5
3197.7177115795	6964.5
3199.6954471129	7063
3201.67265473114	7049.5
3203.64933467153	7073.75
3205.62548717107	7088.75
3207.60111246648	7100.5
3209.57621079421	7060
3211.55078239041	7132
3213.52482749093	7036.5
3215.49834633133	7107
3217.4713391469	7149.75
3219.44380617262	7152
3221.41574764317	7151.25
3223.38716379296	7137.25
3225.35805485607	7167
3227.32842106631	7280.75
3229.29826265718	7247.75
3231.26757986187	7200.5
3233.2363729133	7230.5
3235.20464204405	7280.25
3237.17238748643	7208.75
3239.13960947243	7226.5
3241.10630823374	7267
3243.07248400174	7281.5
3245.03813700748	7320.25
3247.00326748177	7324
3248.96787565503	7296.75
3250.93196175742	7347.75
3252.89552601877	7377.75
3254.8585686686	7333.75
3256.82108993612	7370
3258.78309005022	7390.75
3260.74456923948	7371.5
3262.70552773215	7434.25
3264.66596575617	7434.25
3266.62588353916	7399
3268.58528130843	7389.25
3270.54415929094	7318.5
3272.50251771336	7398.75
3274.46035680201	7416
3276.4176767829	7480
3278.37447788171	7443.25
3280.33076032379	7509
3282.28652433416	7436.5
3284.24177013751	7465.5
3286.1964979582	7485.75
3288.15070802027	7500.5
3290.10440054741	7470.5
3292.05757576298	7438.25
3294.01023389001	7368
3295.96237515119	7465.25
3297.91399976887	7508.25
3299.86510796506	7475
3301.81569996142	7516.5
3303.76577597932	7453
3305.7153362397	7472.25
3307.66438096324	7488.25
3309.61291037024	7525.25
3311.56092468064	7525.5
3313.50842411404	7440
3315.45540888971	7494.5
3317.40187922656	7453
3319.34783534315	7504.75
3321.29327745768	7496.5
3323.23820578801	7417.25
3325.18262055164	7490.75
3327.1265219657	7424.75
3329.06991024699	7430.75
3331.01278561194	7403
3332.95514827662	7443
3334.89699845674	7476.5
3336.83833636766	7454.5
3338.77916222434	7441.75
3340.71947624143	7465.25
3342.65927863317	7473.25
3344.59856961346	7494.5
3346.53734939584	7497.25
3348.47561819344	7489.25
3350.41337621906	7435.5
3352.35062368513	7495.25
3354.28736080368	7486
3356.22358778637	7459
3358.15930484452	7440.5
3360.09451218904	7580.25
3362.02921003047	7445
3363.96339857898	7532
3365.89707804436	7532.5
3367.83024863602	7475.75
3369.76291056299	7471.5
3371.69506403389	7498.75
3373.62670925699	7503.5
3375.55784644016	7477.5
3377.4884757909	7516
3379.41859751629	7574.5
3381.34821182305	7574.25
3383.27731891749	7612.75
3385.20591900555	7523
3387.13401229276	7587.25
3389.06159898426	7571.5
3390.9886792848	7617.75
3392.91525339872	7562
3394.84132152998	7617.75
3396.76688388213	7569.5
3398.69194065833	7608.25
3400.61649206133	7532.75
3402.54053829348	7582.25
3404.46407955672	7609.5
3406.3871160526	7572
3408.30964798225	7616.5
3410.23167554639	7600
3412.15319894535	7608.25
3414.07421837904	7585.25
3415.99473404695	7607.75
3417.91474614817	7654
3419.83425488136	7639.5
3421.75326044479	7585.25
3423.67176303631	7650.75
3425.58976285332	7632.25
3427.50726009282	7657
3429.42425495143	7571.75
3431.34074762528	7556.5
3433.25673831012	7591.75
3435.17222720127	7559.5
3437.08721449362	7557.25
3439.00170038164	7507.75
3440.91568505936	7606.25
3442.82916872039	7510.5
3444.74215155791	7540.25
3446.65463376468	7543
3448.566615533	7539.25
3450.47809705476	7523.75
3452.3890785214	7520.75
3454.29956012393	7500
3456.20954205293	7503.75
3458.11902449853	7519.75
3460.02800765041	7463.75
3461.93649169784	7455.25
3463.84447682962	7411.5
3465.75196323412	7479
3467.65895109925	7403
3469.56544061249	7399.75
3471.47143196086	7395
3473.37692533093	7408.75
3475.28192090884	7387.5
3477.18641888026	7436.5
3479.09041943039	7398.5
3480.99392274402	7375
3482.89692900545	7365.5
3484.79943839853	7341.25
3486.70145110666	7366.75
3488.60296731277	7395.75
3490.50398719933	7342.75
3492.40451094836	7286.25
3494.30453874141	7306.5
3496.20407075956	7357
3498.10310718342	7347.75
3500.00164819315	7239