201.866871357051	1773
204.754250281454	1776
207.640596790938	1756.5
210.525911876299	1769
213.410196525689	1787
216.293451724508	1758.25
219.175678455485	1772
222.056877698662	1772
224.937050431388	1770.75
227.816197628363	1769.75
230.694320261602	1763.75
233.571419300504	1799.25
236.447495711764	1789
239.322550459507	1780.25
242.196584505182	1782.75
245.069598807626	1800
247.941594323078	1817
250.812572005154	1806.25
253.682532804884	1806
256.551477670699	1808.75
259.419407548456	1826.5
262.286323381439	1821.25
265.152226110364	1803
268.017116673389	1805.75
270.880996006115	1853.25
273.743865041622	1795.25
276.605724710436	1808.25
279.466575940562	1822
282.326419657496	1831.75
285.1852567842	1823.5
288.043088241157	1807
290.899914946349	1811.5
293.75573781526	1827
296.610557760898	1813.75
299.464375693817	1837.5
302.317192522078	1839.5
305.169009151297	1829.75
308.019826484655	1802
310.86964542287	1826.75
313.718466864233	1811.25
316.566291704614	1824
319.413120837457	1853.75
322.258955153804	1837.75
325.103795542291	1840.75
327.947642889128	1833
330.79049807819	1809.5
333.632361990927	1824.5
336.473235506444	1819
339.31311950145	1809.25
342.152014850322	1819.25
344.989922425062	1825.75
347.826843095354	1849.5
350.662777728528	1848
353.497727189577	1847
356.331692341195	1868.75
359.164674043732	1874.75
361.996673155267	1856
364.827690531536	1882
367.65772702602	1857.25
370.486783489887	1857.25
373.314860772047	1893
376.14195971912	1903.5
378.968081175466	1878
381.793225983212	1853.25
384.617394982201	1892.5
387.44058901005	1893.25
390.262808902131	1909.5
393.08405549161	1956.75
395.904329609395	1929.5
398.723632084213	1952
401.541963742569	1955
404.359325408779	1929.75
407.175717904938	1910.25
409.991142050982	1908.5
412.805598664665	1920.75
415.619088561551	1894.25
418.43161255505	1909.5
421.243171456415	1893
424.053766074758	1890.5
426.863397217017	1896.5
429.672065688024	1899.75
432.479772290455	1912.75
435.286517824879	1940.75
438.092303089736	1930
440.897128881359	1913
443.70099599399	1956.25
446.503905219761	1915.25
449.305857348711	1932.25
452.106853168796	1931.75
454.906893465919	1958.5
457.705979023885	1924
460.504110624439	1922
463.3012890473	1912.5
466.097515070087	1908.5
468.892789468424	1915.5
471.687113015869	1907.5
474.48048648395	1899
477.272910642198	1906
480.064386258109	1901.5
482.854914097159	1895
485.644494922839	1910.25
488.433129496636	1916.25
491.220818578047	1913
494.007562924584	1927.25
496.793363291785	1936.75
499.578220433217	1930.5
502.362135100473	1926.5
505.145108043209	1951.75
507.927140009098	1934
510.708231743909	1944
513.488383991433	1928.25
516.267597493556	1944.75
519.04587299022	1962
521.82321121946	1954.75
524.599612917398	1951
527.375078818233	1973.75
530.149609654287	1965
532.923206155967	1952.5
535.695869051804	1948.5
538.467599068448	1933.25
541.238396930665	1930.75
544.008263361364	1925.75
546.777199081578	1942
549.545204810493	1925.5
552.312281265436	1924.25
555.078429161898	1915.5
557.843649213533	1942.25
560.607942132156	1947
563.371308627753	1928.25
566.133749408495	1941.75
568.895265180756	1941.75
571.655856649064	1947.5
574.415524516189	1936.5
577.174269483075	1949.25
579.932092248884	1960.25
582.688993510994	1966.75
585.444973965023	1959.25
588.200034304795	1961
590.95417522237	1983.5
593.70739740807	1952.5
596.459701550433	1965.25
599.21108833628	1960.75
601.961558450668	1939.75
604.711112576933	1942.75
607.459751396673	1956.75
610.207475589748	1954.25
612.954285834338	1940.5
615.700182806879	1929.5
618.445167182101	1943.75
621.189239633055	1943.5
623.932400831087	1926.75
626.674651445839	1920.5
629.415992145303	1932
632.156423595745	1950
634.895946461813	1910.75
637.634561406449	1920.75
640.37226909096	1934.5
643.109070174978	1915.75
645.844965316508	1942
648.579955171888	1932
651.314040395846	1930.75
654.047221641456	1941.5
656.779499560176	1921.75
659.510874801828	1919.5
662.241348014642	1916.75
664.97091984524	1948.25
667.699590938606	1947.25
670.427361938164	1933.5
673.15423348573	1944
675.880206221526	1972
678.605280784206	1982.5
681.329457810829	1989.75
684.05273793692	1980
686.775121796389	1967.25
689.49661002163	1962.5
692.217203243454	1956
694.936902091144	1938
697.655707192425	1952.75
700.373619173493	1950.25
703.09063865901	1927.25
705.806766272093	1954.5
708.522002634378	1935.75
711.236348365946	1954.75
713.94980408538	1942.5
716.662370409762	1939
719.374047954676	1940.25
722.08483733419	1931.75
724.794739160909	1934.25
727.503754045949	1961
730.21188259892	1952.5
732.919125427998	1933.25
735.625483139855	1976
738.330956339723	1926.5
741.035545631374	1936.5
743.739251617106	1947
746.44207489779	1949.25
749.144016072852	1968.5
751.845075740272	1972.25
754.545254496603	1971.5
757.244552936976	1964.5
759.94297165508	1950.5
762.640511243222	1968
765.337172292249	1986
768.032955391649	1970.75
770.727861129482	1981
773.421890092413	1999
776.11504286572	1954.75
778.807320033298	1979.75
781.49872217765	1963
784.18924987991	1986
786.87890371984	1942.25
789.567684275826	1975.75
792.255592124908	1947.5
794.94262784276	1945.5
797.628792003703	1983.25
800.314085180715	1992.5
802.998507945427	2015
805.682060868145	2071.5
808.364744517821	2093.5
811.046559462105	2106.75
813.727506267311	2081
816.407585498422	2016
819.08679771913	2014.25
821.765143491822	2005.75
824.442623377563	1999
827.119237936127	2002
829.794987726003	1993.75
832.469873304377	2028.5
835.143895227167	2027.75
837.817054048985	2079
840.489350323205	2083.75
843.160784601892	2055.25
845.831357435894	2051.25
848.501069374739	2051
851.169920966753	2015.25
853.837912758987	2008.25
856.505045297232	2012.25
859.171319126071	2030
861.836734788823	2001.5
864.501292827579	2017.5
867.164993783208	1982.75
869.827838195361	1971.25
872.489826602454	1980.25
875.150959541701	1963.25
877.811237549104	1979.25
880.470661159456	2005.25
883.129230906357	1976.5
885.786947322205	1962.75
888.443810938206	1972
891.099822284385	1977
893.754981889586	1977.25
896.409290281452	1989.75
899.062747986485	1990.25
901.715355529999	2018.5
904.367113436154	1985.5
907.01802222793	1989
909.668082427172	1972
912.317294554574	2001.25
914.965659129659	1985.25
917.613176670835	2001.25
920.259847695364	1986.25
922.90567271936	1989
925.550652257825	1980.75
928.194786824621	1996.5
930.838076932512	1997.75
933.480523093109	2015.75
936.122125816953	2007.25
938.762885613447	2009.75
941.402802990899	2024
944.041878456523	2024.5
946.680112516428	2006.25
949.31750567563	2022.75
951.954058438081	2043
954.589771306633	1983
957.224644783048	2023.75
959.858679368044	2028.75
962.491875561238	2002.25
965.12423386121	2014.5
967.75575476545	2053.5
970.386438770423	2059
973.016286371501	2092.75
975.645298063046	2061.75
978.273474338355	2049
980.900815689674	2028.25
983.527322608243	2035.75
986.152995584245	2007.75
988.777835106834	2009.75
991.401841664148	2020.75
994.025015743307	2024.5
996.647357830407	2051.25
999.268868410534	2026.25
1001.88954796777	2065
1004.50939698518	2060
1007.12841594484	2030.25
1009.74660532783	2031.5
1012.36396561423	2035.5
1014.98049728314	2043.5
1017.59620081267	2036.75
1020.21107667995	2022.75
1022.82512536112	2046.75
1025.43834733138	2039
1028.05074306493	2059.5
1030.66231303501	2071.25
1033.27305771392	2072
1035.88297757299	2082.5
1038.49207308257	2080.25
1041.10034471211	2081
1043.70779293008	2078
1046.31441820402	2061
1048.92022100052	2068
1051.52520178525	2067.5
1054.12936102295	2064.25
1056.73269917742	2076.25
1059.33521671154	2076.25
1061.93691408729	2083.5
1064.53779176571	2084.25
1067.13785020694	2034
1069.73708987022	2056
1072.33551121386	2059.5
1074.93311469528	2059
1077.52990077103	2053.75
1080.12586989674	2050.75
1082.72102252714	2062.75
1085.31535911611	2077.25
1087.90888011663	2070.25
1090.50158598078	2054.25
1093.09347715979	2052
1095.68455410403	2078.5
1098.27481726296	2056.75
1100.86426708523	2052.25
1103.45290401857	2074.75
1106.04072850991	2052
1108.6277410053	2070.75
1111.21394194993	2049.75
1113.79933178816	2085.75
1116.3839109635	2085
1118.96767991862	2077.5
1121.55063909539	2083
1124.13278893477	2118.75
1126.71412987696	2100.75
1129.29466236132	2134.5
1131.87438682637	2096
1134.45330370982	2097.75
1137.03141344858	2113
1139.60871647872	2141.5
1142.18521323554	2136.25
1144.7609041535	2152.5
1147.33578966629	2185.5
1149.90987020676	2171.25
1152.48314620702	2188.25
1155.05561809835	2165.75
1157.62728631125	2165.25
1160.19815127545	2182
1162.76821341988	2207.75
1165.33747317271	2204.25
1167.90593096133	2183.5
1170.47358721235	2173.75
1173.04044235163	2175
1175.60649680425	2138.5
1178.17175099454	2124.75
1180.73620534607	2142.75
1183.29986028165	2153
1185.86271622336	2122.75
1188.42477359249	2102.75
1190.98603280964	2105.75
1193.54649429462	2100.25
1196.10615846653	2117.25
1198.66502574372	2093
1201.22309654385	2114
1203.78037128378	2105.5
1206.33685037971	2110
1208.89253424709	2118.25
1211.44742330063	2112.5
1214.00151795438	2104.75
1216.55481862163	2163
1219.10732571497	2134
1221.65903964631	2111.25
1224.20996082683	2144.25
1226.760089667	2136.25
1229.30942657664	2119
1231.85797196483	2116.5
1234.40572623998	2122
1236.95268980981	2153.5
1239.49886308136	2129.75
1242.04424646098	2127.75
1244.58884035435	2160.75
1247.13264516647	2194
1249.67566130166	2169.5
1252.21788916358	2175.5
1254.75932915524	2193.5
1257.29998167896	2198.5
1259.83984713639	2191.75
1262.37892592857	2177.25
1264.91721845586	2189
1267.45472511795	2208.5
1269.9914463139	2224.25
1272.52738244213	2211.5
1275.0625339004	2207.75
1277.59690108587	2224
1280.130484395	2250.75
1282.66328422367	2243
1285.19530096712	2247.25
1287.72653501993	2259.75
1290.25698677608	2232
1292.78665662894	2275
1295.31554497125	2281.75
1297.8436521951	2301.75
1300.37097869203	2279.5
1302.89752485292	2259
1305.42329106805	2245.25
1307.94827772713	2264
1310.47248521921	2249.25
1312.99591393279	2276.25
1315.51856425575	2280
1318.04043657536	2265.25
1320.56153127836	2306.75
1323.08184875083	2324
1325.6013893783	2327.25
1328.12015354572	2365.25
1330.63814163744	2362.25
1333.15535403727	2337.5
1335.67179112839	2351.75
1338.18745329347	2327.5
1340.70234091454	2349.5
1343.21645437314	2311.5
1345.72979405019	2329.25
1348.24236032607	2313
1350.75415358059	2363.5
1353.26517419303	2335.5
1355.7754225421	2349
1358.28489900594	2381.25
1360.79360396218	2383.25
1363.30153778787	2344
1365.80870085955	2333.25
1368.31509355319	2328.25
1370.82071624424	2346
1373.32556930762	2323.25
1375.8296531177	2308.25
1378.33296804832	2362.75
1380.83551447282	2325.25
1383.33729276399	2296.75
1385.83830329408	2289.25
1388.33854643489	2294.75
1390.83802255762	2296.25
1393.33673203301	2318.25
1395.83467523128	2288.5
1398.33185252211	2270
1400.82826427471	2288
1403.32391085777	2275
1405.81879263947	2293.5
1408.31290998752	2311.5
1410.80626326908	2296
1413.29885285087	2278.5
1415.79067909909	2309.25
1418.28174237944	2311.5
1420.77204305717	2342.25
1423.26158149702	2319.75
1425.75035806323	2341.75
1428.2383731196	2331.75
1430.72562702942	2360.5
1433.21212015554	2408.25
1435.69785286028	2441.5
1438.18282550555	2463.75
1440.66703845275	2431
1443.15049206284	2481
1445.6331866963	2466.25
1448.11512271316	2500
1450.59630047298	2509.5
1453.07672033486	2509.75
1455.55638265748	2531.25
1458.03528779902	2574.5
1460.51343611725	2545.75
1462.99082796946	2544.25
1465.46746371252	2485
1467.94334370285	2472.75
1470.41846829642	2452
1472.89283784878	2421.25
1475.36645271503	2439.5
1477.83931324983	2430.25
1480.31141980743	2409.25
1482.78277274164	2387.75
1485.25337240583	2387
1487.72321915297	2400.5
1490.19231333557	2353.25
1492.66065530578	2393.25
1495.12824541525	2381.25
1497.5950840153	2404.25
1500.06117145678	2387.25
1502.52650809014	2438.25
1504.99109426543	2376.75
1507.45493033227	2415
1509.91801663992	2373.5
1512.38035353717	2403.75
1514.84194137248	2404.5
1517.30278049386	2394
1519.76287124894	2420
1522.22221398497	2425.5
1524.68080904876	2407.5
1527.13865678681	2434
1529.59575754514	2470.75
1532.05211166945	2463.5
1534.50771950503	2450.75
1536.96258139678	2481.75
1539.41669768924	2472.75
1541.87006872656	2450.5
1544.32269485252	2459.25
1546.77457641051	2447.5
1549.22571374357	2521.75
1551.67610719434	2480.5
1554.12575710513	2484.75
1556.57466381785	2478.5
1559.02282767408	2497.75
1561.47024901499	2524
1563.91692818144	2520
1566.3628655139	2508
1568.80806135249	2520.75
1571.252516037	2507.5
1573.6962299068	2552
1576.13920330099	2518
1578.58143655828	2534.25
1581.02293001704	2583.75
1583.46368401528	2585.25
1585.90369889071	2558.75
1588.34297498065	2603.5
1590.7815126221	2630.5
1593.21931215173	2648
1595.65637390588	2652.5
1598.09269822053	2703.5
1600.52828543135	2701.5
1602.96313587367	2649.75
1605.3972498825	2640.25
1607.83062779252	2578.75
1610.26326993808	2622.5
1612.69517665322	2603
1615.12634827165	2587
1617.55678512676	2565.5
1619.98648755163	2547.75
1622.41545587902	2550.75
1624.84369044138	2551.5
1627.27119157085	2520
1629.69795959924	2540.25
1632.12399485808	2548.5
1634.54929767859	2562.5
1636.97386839165	2566.25
1639.39770732789	2555.75
1641.8208148176	2549.5
1644.24319119078	2559
1646.66483677715	2548.75
1649.0857519061	2588.5
1651.50593690677	2571.5
1653.92539210795	2586.75
1656.3441178382	2559.25
1658.76211442575	2589.25
1661.17938219855	2580.75
1663.59592148428	2588.5
1666.01173261032	2578.25
1668.42681590377	2615.25
1670.84117169145	2606.25
1673.25480029991	2609.5
1675.66770205541	2582.25
1678.07987728393	2617.25
1680.49132631119	2624.5
1682.90204946263	2682.5
1685.31204706342	2668.25
1687.72131943846	2659
1690.1298669124	2663.25
1692.53768980957	2677.25
1694.94478845411	2685.25
1697.35116316982	2671.75
1699.75681428031	2691.5
1702.16174210887	2662.25
1704.56594697858	2691.75
1706.96942921222	2721.5
1709.37218913235	2679.25
1711.77422706125	2687.5
1714.17554332098	2698.25
1716.5761382333	2730.5
1718.97601211977	2682.75
1721.37516530169	2676.5
1723.77359810006	2691.75
1726.17131083572	2702.5
1728.56830382922	2670
1730.96457740087	2691.25
1733.36013187075	2672.75
1735.75496755868	2692
1738.14908478428	2715.5
1740.54248386689	2698.25
1742.93516512565	2680
1745.32712887946	2691
1747.71837544697	2731
1750.10890514662	2718
1752.49871829661	2716.75
1754.88781521492	2745
1757.27619621929	2735.75
1759.66386162726	2742
1762.05081175612	2752
1764.43704692297	2726.25
1766.82256744465	2743.75
1769.20737363782	2760
1771.59146581887	2766
1773.97484430405	2775.75
1776.35750940932	2796.5
1778.73946145048	2779.5
1781.12070074309	2780.75
1783.50122760249	2785.75
1785.88104234385	2796.25
1788.26014528209	2826.75
1790.63853673196	2796.75
1793.01621700796	2832.5
1795.39318642443	2841.25
1797.76944529549	2819.25
1800.14499393503	2855.75
1802.51983265681	2815
1804.8939617743	2841.75
1807.26738160085	2895.5
1809.64009244957	2834.25
1812.01209463339	2875
1814.38338846504	2905
1816.75397425706	2892.25
1819.12385232181	2895.5
1821.49302297142	2907.5
1823.86148651789	2905.75
1826.22924327299	2873.75
1828.59629354831	2912.25
1830.96263765526	2908.75
1833.32827590507	2922.5
1835.69320860877	2894.5
1838.05743607724	2930
1840.42095862113	2954.25
1842.78377655097	2926.5
1845.14589017707	2910.5
1847.50729980956	2937.5
1849.86800575843	2971.75
1852.22800833346	2943.25
1854.58730784427	2964.5
1856.94590460032	2976.5
1859.30379891087	2976.25
1861.66099108503	2965
1864.01748143175	3007.75
1866.37327025978	3027.5
1868.72835787773	2992
1871.08274459403	3020.25
1873.43643071697	3060.5
1875.78941655464	3038.25
1878.14170241498	3036.75
1880.4932886058	3056.5
1882.84417543469	3085
1885.19436320915	3069.75
1887.54385223646	3078
1889.89264282378	3117.75
1892.24073527809	3074.25
1894.58812990625	3128
1896.93482701493	3130.75
1899.28082691067	3133.25
1901.62612989984	3157.25
1903.97073628868	3167
1906.31464638326	3183.25
1908.6578604895	3214
1911.00037891321	3264.25
1913.34220196	3221.25
1915.68332993537	3247
1918.02376314468	3262
1920.36350189311	3228.25
1922.70254648573	3231.75
1925.04089722744	3238.5
1927.37855442303	3283.75
1929.71551837715	3304
1932.05178939426	3262.25
1934.38736777876	3311.5
1936.72225383484	3279.5
1939.0564478666	3329.75
1941.38995017799	3300.25
1943.72276107283	3342
1946.05488085479	3325.5
1948.38630982744	3294.5
1950.71704829419	3325.5
1953.04709655832	3323.25
1955.376454923	3312.75
1957.70512369126	3374.5
1960.03310316599	3361.25
1962.36039364999	3320
1964.68699544589	3379.75
1967.01290885622	3371.5
1969.33813418338	3414
1971.66267172965	3370
1973.98652179718	3379.5
1976.309684688	3443.5
1978.63216070402	3431
1980.95395014705	3434.25
1983.27505331873	3413
1985.59547052063	3434.5
1987.9152020542	3493.75
1990.23424822074	3446.5
1992.55260932146	3459.75
1994.87028565746	3488.75
1997.18727752968	3488
1999.503585239	3537.25
2001.81920908618	3526.25
2004.13414937184	3547.75
2006.44840639651	3575.5
2008.7619804606	3584.5
2011.07487186442	3585.5
2013.38708090815	3578.25
2015.6986078919	3634.5
2018.00945311564	3628.5
2020.31961687923	3675
2022.62909948246	3664.75
2024.93790122498	3718.75
2027.24602240636	3677.5
2029.55346332604	3718.5
2031.86022428337	3713.25
2034.16630557761	3722.75
2036.47170750791	3710.75
2038.77643037331	3741.75
2041.08047447275	3790
2043.38384010509	3764.25
2045.68652756907	3778.75
2047.98853716335	3804
2050.28986918648	3779.75
2052.59052393692	3782.25
2054.89050171302	3805.5
2057.18980281306	3829
2059.4884275352	3820.25
2061.78637617753	3812
2064.08364903802	3832.25
2066.38024641457	3852.75
2068.67616860497	3820.75
2070.97141590694	3805
2073.26598861809	3824.75
2075.55988703595	3831.5
2077.85311145796	3826.25
2080.14566218145	3854
2082.43753950371	3874
2084.72874372188	3862.5
2087.01927513307	3854
2089.30913403428	3864
2091.59832072241	3873.75
2093.88683549429	3872.25
2096.17467864666	3886.5
2098.46185047619	3896.5
2100.74835127944	3949.5
2103.03418135292	3947.25
2105.31934099303	3872.25
2107.6038304961	3914
2109.88765015838	3916.75
2112.17080027602	3941
2114.45328114513	3955.75
2116.7350930617	3976.75
2119.01623632165	3942.25
2121.29671122085	3944.5
2123.57651805505	3938
2125.85565711996	3959.5
2128.13412871117	3996.25
2130.41193312424	4006.75
2132.68907065462	4023.5
2134.96554159771	4017.5
2137.24134624881	4049.5
2139.51648490317	4050.5
2141.79095785593	4060.25
2144.0647654022	4029.75
2146.33790783698	4068.5
2148.61038545524	3986
2150.88219855182	4095
2153.15334742154	4077.25
2155.42383235911	4081.5
2157.6936536592	4125.25
2159.9628116164	4115
2162.23130652522	4090
2164.49913868011	4122
2166.76630837544	4117.5
2169.03281590552	4113.5
2171.2986615646	4116.75
2173.56384564685	4141
2175.82836844637	4120.5
2178.0922302572	4104.75
2180.35543137332	4127
2182.61797208862	4140.75
2184.87985269695	4103.25
2187.14107349208	4130.5
2189.40163476773	4156
2191.66153681753	4160
2193.92077993507	4150.5
2196.17936441386	4106
2198.43729054735	4122.75
2200.69455862894	4111.25
2202.95116895194	4145.25
2205.20712180962	4160.25
2207.46241749519	4119.25
2209.71705630179	4110
2211.97103852248	4135.25
2214.2243644503	4154.5
2216.47703437819	4121.75
2218.72904859905	4110.5
2220.98040740571	4161
2223.23111109095	4143
2225.4811599475	4104.25
2227.73055426799	4162.25
2229.97929434504	4110.25
2232.22738047118	4130.5
2234.47481293889	4147.75
2236.72159204058	4154.25
2238.96771806864	4142.75
2241.21319131536	4125
2243.458012073	4110
2245.70218063374	4099.25
2247.94569728973	4163.75
2250.18856233304	4114.75
2252.4307760557	4168.25
2254.67233874967	4111.25
2256.91325070687	4150.25
2259.15351221915	4121
2261.39312357831	4112.5
2263.63208507611	4121
2265.87039700422	4135
2268.1080596543	4151.5
2270.34507331792	4088.75
2272.5814382866	4132
2274.81715485183	4162.25
2277.05222330502	4175.25
2279.28664393755	4193.5
2281.52041704072	4114
2283.75354290581	4137.75
2285.98602182401	4157.75
2288.21785408648	4148
2290.44903998434	4163
2292.67957980862	4156.75
2294.90947385033	4173.75
2297.1387224004	4202
2299.36732574975	4179.5
2301.59528418921	4171
2303.82259800958	4171
2306.04926750158	4189.5
2308.27529295593	4171
2310.50067466325	4178.25
2312.72541291412	4179
2314.9495079991	4125.75
2317.17296020866	4142.75
2319.39576983323	4165.5
2321.61793716322	4153.75
2323.83946248894	4185.75
2326.06034610069	4211.5
2328.28058828871	4147.5
2330.50018934317	4158.25
2332.7191495542	4164.5
2334.93746921192	4163.75
2337.15514860633	4144.75
2339.37218802743	4105.25
2341.58858776516	4151.25
2343.80434810941	4185.5
2346.01946935001	4155.75
2348.23395177675	4150.25
2350.44779567939	4170.75
2352.66100134759	4136
2354.87356907101	4147.75
2357.08549913925	4115.25
2359.29679184185	4111.5
2361.50744746829	4140.25
2363.71746630804	4156.25
2365.92684865048	4111
2368.13559478499	4137.75
2370.34370500083	4163.5
2372.55117958727	4118.75
2374.75801883352	4091
2376.96422302874	4100.25
2379.16979246202	4124.75
2381.37472742243	4127
2383.57902819898	4109.25
2385.78269508063	4089.75
2387.98572835629	4075
2390.18812831482	4110.75
2392.38989524505	4108.5
2394.59102943573	4102
2396.79153117559	4117.5
2398.9914007533	4082.5
2401.19063845748	4120
2403.38924457672	4086.75
2405.58721939951	4059.25
2407.78456321435	4077.75
2409.98127630966	4071.25
2412.17735897382	4079.25
2414.37281149517	4077.5
2416.56763416198	4088.25
2418.76182726249	4062.25
2420.95539108487	4096.5
2423.14832591726	4081.5
2425.34063204776	4075
2427.53230976439	4078.75
2429.72335935513	4056
2431.91378110795	4081.25
2434.10357531071	4017.25
2436.29274225125	4045
2438.48128221739	4017.25
2440.66919549683	4037
2442.8564823773	4036.5
2445.04314314641	4043.5
2447.22917809176	4051.75
2449.4145875009	4025.75
2451.59937166131	4056.25
2453.78353086044	4004.75
2455.96706538568	4074
2458.14997552436	4036.75
2460.33226156379	4021.25
2462.51392379119	4014.5
2464.69496249376	4014.5
2466.87537795862	3987.5
2469.05517047288	4042.5
2471.23434032357	4003.5
2473.41288779767	4028
2475.59081318211	3966.5
2477.76811676378	4004.5
2479.9447988295	3987.5
2482.12085966605	3964.5
2484.29629956016	3985.25
2486.4711187985	4017
2488.64531766769	3989.25
2490.8188964543	4003.75
2492.99185544484	3976.75
2495.16419492579	4013
2497.33591518353	3973.75
2499.50701650444	3974.25
2501.67749917482	4002.75
2503.84736348091	3965.75
2506.01660970891	4002.75
2508.18523814496	3960.25
2510.35324907514	3992.5
2512.52064278551	3980
2514.68741956201	3993.25
2516.85357969058	4042.75
2519.01912345709	4009.75
2521.18405114735	4010.5
2523.34836304711	4005.5
2525.51205944208	3996.25
2527.6751406179	4002.75
2529.83760686016	4038.75
2531.99945845439	4025.75
2534.16069568606	4041.5
2536.3213188406	4015.75
2538.48132820336	4024
2540.64072405965	4022.5
2542.79950669471	3988.5
2544.95767639373	4071.75
2547.11523344184	4018.25
2549.27217812411	4034
2551.42851072555	4033.5
2553.58423153111	4034.25
2555.73934082569	3966.75
2557.89383889412	4036.5
2560.04772602118	4046.5
2562.20100249158	3980.5
2564.35366858996	4016.25
2566.50572460093	3982.75
2568.65717080901	3955.25
2570.80800749867	3994.5
2572.95823495433	4015
2575.10785346031	3968.75
2577.25686330093	3979.25
2579.40526476038	3961.75
2581.55305812282	3975.5
2583.70024367237	3966.25
2585.84682169303	3929.75
2587.99279246879	3947
2590.13815628354	3927.75
2592.28291342112	3898.25
2594.42706416531	3941.75
2596.5706087998	3943.25
2598.71354760826	3985.75
2600.85588087425	3913.25
2602.99760888127	3939
2605.13873191278	3941.5
2607.27925025214	3927.75
2609.41916418269	3911.25
2611.55847398764	3920.25
2613.69717995017	3912.25
2615.83528235339	3979.5
2617.97278148034	3960
2620.10967761398	3941
2622.2459710372	3951.25
2624.38166203284	3950
2626.51675088365	3910.75
2628.65123787231	3959
2630.78512328145	3933
2632.9184073936	3943
2635.05109049124	3982.75
2637.18317285676	3919.5
2639.31465477248	3982.5
2641.44553652067	3988
2643.5758183835	3935.5
2645.70550064309	3960.75
2647.83458358144	3964
2649.96306748053	3973.25
2652.09095262223	4001.75
2654.21823928836	3987.5
2656.34492776063	3966.25
2658.47101832071	3984.75
2660.59651125015	4028.25
2662.72140683047	3995.75
2664.84570534309	3963
2666.96940706934	3963.5
2669.0925122905	3966
2671.21502128773	3958.5
2673.33693434215	4008
2675.45825173479	3981.25
2677.57897374658	3974.5
2679.69910065839	3978.75
2681.818632751	3927.5
2683.93757030511	3999.25
2686.05591360133	3974.5
2688.17366292021	3939
2690.29081854218	3971.5
2692.40738074762	3955
2694.52334981681	3977.5
2696.63872602995	3991.75
2698.75350966713	3995.75
2700.86770100841	4044
2702.98130033371	3956.25
2705.09430792289	3941.75
2707.20672405571	3994
2709.31854901185	4038.5
2711.42978307091	4015.5
2713.54042651238	4030.5
2715.65047961567	4028.75
2717.7599426601	4055
2719.86881592491	4037
2721.97709968924	4056.5
2724.08479423213	4050.75
2726.19189983255	4033.25
2728.29841676934	4010.25
2730.4043453213	4016.25
2732.5096857671	4021.25
2734.61443838532	4008.25
2736.71860345444	4002
2738.82218125286	4002.75
2740.92517205889	4044.5
2743.02757615072	4012
2745.12939380646	3981.75
2747.23062530411	3973.25
2749.33127092159	4024.5
2751.4313309367	4017.5
2753.53080562716	3992
2755.62969527058	3977
2757.72800014448	3991.25
2759.82572052625	3997.25
2761.92285669323	3985.5
2764.0194089226	3997.75
2766.11537749147	4000.5
2768.21076267686	4020.5
2770.30556475566	3973.25
2772.39978400465	3966.25
2774.49342070054	4000.25
2776.58647511991	3971
2778.67894753923	4008.5
2780.77083823487	4027.5
2782.8621474831	3980.5
2784.95287556007	3979.25
2787.04302274184	3971
2789.13258930433	3973.5
2791.22157552338	4010.25
2793.30998167471	4005.75
2795.39780803392	3979
2797.4850548765	4004.75
2799.57172247786	3989.5
2801.65781111324	3991.75
2803.74332105781	3957
2805.82825258661	3979.25
2807.91260597457	4001.25
2809.9963814965	3985.5
2812.07957942711	3999.75
2814.16220004096	3975.25
2816.24424361252	4034.5
2818.32571041614	4010
2820.40660072604	4036
2822.48691481631	4063.5
2824.56665296098	4084.5
2826.64581543388	4094
2828.72440250876	4138
2830.80241445925	4222
2832.87985155885	4290.5
2834.95671408093	4402.75
2837.03300229875	4465.25
2839.10871648544	4557.25
2841.18385691399	4676.5
2843.25842385729	4648
2845.33241758808	4612.25
2847.40583837898	4708.75
2849.4786865025	4710.75
2851.550962231	4695.5
2853.6226658367	4660.75
2855.69379759173	4593.25
2857.76435776806	4607
2859.83434663753	4636.75
2861.90376447184	4758.25
2863.97261154259	4787
2866.0408881212	4928.5
2868.10859447901	4948
2870.17573088717	4982.25
2872.24229761673	4994.5
2874.30829493859	5012.25
2876.37372312352	5091.75
2878.43858244215	5218
2880.50287316496	5314.5
2882.56659556231	5349.5
2884.62974990439	5320.75
2886.69233646129	5243.5
2888.75435550293	5135.5
2890.81580729909	5095.5
2892.87669211941	5066.75
2894.93701023339	5001.25
2896.99676191039	5038
2899.05594741961	5048.25
2901.1145670301	5045
2903.1726210108	5015.25
2905.23010963045	5075
2907.28703315768	5061.25
2909.34339186096	4996.25
2911.39918600861	4906.5
2913.45441586879	4822.5
2915.50908170952	4829.75
2917.56318379867	4815.25
2919.61672240395	4827.25
2921.66969779291	4856
2923.72211023295	4885
2925.77395999134	4852
2927.82524733515	4813.5
2929.87597253132	4752
2931.92613584663	4672.75
2933.97573754769	4602.25
2936.02477790097	4523.75
2938.07325717276	4456.5
2940.1211756292	4486.25
2942.16853353626	4445.25
2944.21533115976	4466
2946.26156876536	4462.5
2948.30724661853	4529.75
2950.3523649846	4534.5
2952.39692412872	4595
2954.44092431587	4614.5
2956.48436581089	4614
2958.52724887843	4583.75
2960.56957378296	4639.5
2962.6113407888	4664.75
2964.65255016011	4556
2966.69320216083	4517.75
2968.73329705479	4404
2970.77283510559	4361
2972.81181657671	4285.5
2974.8502417314	4257
2976.88811083279	4232.75
2978.92542414378	4202.5
2980.96218192713	4175.5
2982.99838444541	4185.75
2985.034031961	4151.5
2987.06912473612	4158.75
2989.1036630328	4109.75
2991.13764711288	4137.5
2993.17107723804	4142
2995.20395366974	4143.75
2997.23627666931	4141.75
2999.26804649782	4142
3001.29926341624	4145.75
3003.32992768528	4142.25
3005.3600395655	4190.75
3007.38959931726	4153.75
3009.41860720076	4117.5
3011.44706347595	4191.25
3013.47496840263	4154
3015.50232224041	4181.25
3017.5291252487	4196.5
3019.5553776867	4154.75
3021.58107981344	4198.5
3023.60623188773	4218
3025.63083416822	4194
3027.65488691331	4183.75
3029.67839038125	4229.25
3031.70134483007	4209.75
3033.72375051759	4246
3035.74560770144	4214.25
3037.76691663907	4201.5
3039.78767758768	4236
3041.80789080431	4218.5
3043.82755654577	4218.25
3045.84667506867	4185.75
3047.8652466294	4234.5
3049.88327148418	4222
3051.90074988899	4218.25
3053.91768209961	4180.25
3055.9340683716	4168.25
3057.94990896033	4262.75
3059.96520412095	4224.5
3061.97995410838	4254.25
3063.99415917734	4214
3066.00781958234	4209.5
3068.02093557766	4219
3070.03350741738	4218.75
3072.04553535535	4220.5
3074.05701964521	4209.75
3076.06796054036	4209
3078.078358294	4150
3080.08821315912	4243.25
3082.09752538846	4206.5
3084.10629523454	4210
3086.11452294967	4227
3088.12220878592	4203
3090.12935299515	4212.75
3092.13595582898	4200.5
3094.1420175388	4183.75
3096.14753837579	4217.75
3098.15251859088	4236
3100.15695843477	4235.5
3102.16085815793	4252.5
3104.16421801061	4209.25
3106.16703824282	4212.5
3108.16931910432	4219.75
3110.17106084464	4191
3112.17226371308	4218
3114.17292795872	4253.5
3116.17305383034	4228
3118.17264157657	4226.75
3120.17169144571	4230.5
3122.17020368587	4240.75
3124.16817854492	4270
3126.16561627044	4260.25
3128.16251710982	4299.25
3130.15888131017	4254.5
3132.15470911837	4310.75
3134.15000078104	4287.25
3136.14475654455	4294
3138.13897665502	4277.75
3140.13266135835	4301.75
3142.12581090014	4287.25
3144.11842552577	4307.25
3146.11050548036	4366.5
3148.10205100875	4336
3150.09306235557	4326.75
3152.08353976515	4322
3154.07348348158	4317.75
3156.06289374869	4355.75
3158.05177081006	4333.25
3160.04011490899	4340.75
3162.02792628852	4353.5
3164.01520519145	4340.75
3166.00195186029	4316.5
3167.98816653728	4353
3169.97384946442	4365.5
3171.95900088344	4338.25
3173.94362103577	4349
3175.92771016259	4313.75
3177.91126850484	4390
3179.89429630312	4378.5
3181.87679379782	4331.5
3183.85876122903	4375.25
3185.84019883657	4388.5
3187.82110685997	4399.75
3189.80148553851	4384.5
3191.78133511116	4395
3193.76065581664	4386.75
3195.73944789337	4383
3197.7177115795	4382
3199.6954471129	4385.75
3201.67265473114	4358.5
3203.64933467153	4388.25
3205.62548717107	4394.25
3207.60111246648	4430.75
3209.57621079421	4419.25
3211.55078239041	4404.5
3213.52482749093	4389.5
3215.49834633133	4422.75
3217.4713391469	4443.75
3219.44380617262	4444.25
3221.41574764317	4417.5
3223.38716379296	4440.25
3225.35805485607	4488.25
3227.32842106631	4493
3229.29826265718	4491.75
3231.26757986187	4489.5
3233.2363729133	4485
3235.20464204405	4499.5
3237.17238748643	4491.25
3239.13960947243	4514.5
3241.10630823374	4487.75
3243.07248400174	4523.25
3245.03813700748	4571.25
3247.00326748177	4539.75
3248.96787565503	4510.25
3250.93196175742	4560.25
3252.89552601877	4531.75
3254.8585686686	4523
3256.82108993612	4592.5
3258.78309005022	4587.75
3260.74456923948	4510.75
3262.70552773215	4573.5
3264.66596575617	4610.75
3266.62588353916	4601
3268.58528130843	4573.5
3270.54415929094	4562.25
3272.50251771336	4586.5
3274.46035680201	4638
3276.4176767829	4619.75
3278.37447788171	4557
3280.33076032379	4594.5
3282.28652433416	4608.5
3284.24177013751	4647.5
3286.1964979582	4618.5
3288.15070802027	4603.25
3290.10440054741	4662.5
3292.05757576298	4571.5
3294.01023389001	4607.5
3295.96237515119	4638.25
3297.91399976887	4633.25
3299.86510796506	4641.75
3301.81569996142	4625.25
3303.76577597932	4636.5
3305.7153362397	4644.5
3307.66438096324	4650.5
3309.61291037024	4634.25
3311.56092468064	4655
3313.50842411404	4585.5
3315.45540888971	4631.75
3317.40187922656	4614.25
3319.34783534315	4652.25
3321.29327745768	4655.75
3323.23820578801	4595
3325.18262055164	4636.5
3327.1265219657	4584.75
3329.06991024699	4640.5
3331.01278561194	4630.25
3332.95514827662	4678.5
3334.89699845674	4652.25
3336.83833636766	4712.75
3338.77916222434	4619.25
3340.71947624143	4660.75
3342.65927863317	4648.25
3344.59856961346	4633.25
3346.53734939584	4663.5
3348.47561819344	4613
3350.41337621906	4654.5
3352.35062368513	4604.75
3354.28736080368	4644.5
3356.22358778637	4701.5
3358.15930484452	4657
3360.09451218904	4722.75
3362.02921003047	4688
3363.96339857898	4722.5
3365.89707804436	4663.25
3367.83024863602	4640
3369.76291056299	4683
3371.69506403389	4706.75
3373.62670925699	4668
3375.55784644016	4702
3377.4884757909	4720
3379.41859751629	4730.5
3381.34821182305	4742.25
3383.27731891749	4726
3385.20591900555	4726
3387.13401229276	4779
3389.06159898426	4760.5
3390.9886792848	4782.5
3392.91525339872	4736
3394.84132152998	4746.5
3396.76688388213	4791
3398.69194065833	4774.25
3400.61649206133	4796
3402.54053829348	4780.5
3404.46407955672	4765
3406.3871160526	4771.25
3408.30964798225	4836
3410.23167554639	4830.25
3412.15319894535	4832.75
3414.07421837904	4790.75
3415.99473404695	4865.5
3417.91474614817	4810.5
3419.83425488136	4857
3421.75326044479	4803.5
3423.67176303631	4814.75
3425.58976285332	4841.75
3427.50726009282	4825.25
3429.42425495143	4795.25
3431.34074762528	4850
3433.25673831012	4811
3435.17222720127	4827.75
3437.08721449362	4793.75
3439.00170038164	4783.75
3440.91568505936	4851.75
3442.82916872039	4756.75
3444.74215155791	4832.25
3446.65463376468	4806.75
3448.566615533	4779
3450.47809705476	4804.5
3452.3890785214	4784
3454.29956012393	4811.75
3456.20954205293	4812.75
3458.11902449853	4763.25
3460.02800765041	4775
3461.93649169784	4804.5
3463.84447682962	4769.5
3465.75196323412	4775.75
3467.65895109925	4811.25
3469.56544061249	4801.5
3471.47143196086	4789.5
3473.37692533093	4767
3475.28192090884	4777.75
3477.18641888026	4784.75
3479.09041943039	4802.75
3480.99392274402	4797.75
3482.89692900545	4755.5
3484.79943839853	4815
3486.70145110666	4785.75
3488.60296731277	4778
3490.50398719933	4759.75
3492.40451094836	4772.5
3494.30453874141	4767
3496.20407075956	4757.75
3498.10310718342	4797
3500.00164819315	4731.5