201.866871357051	614.75
204.754250281454	613
207.640596790938	615.25
210.525911876299	612.5
213.410196525689	610.75
216.293451724508	612.75
219.175678455485	611
222.056877698662	614
224.937050431388	606.5
227.816197628363	611.5
230.694320261602	617.25
233.571419300504	615
236.447495711764	612.5
239.322550459507	612.5
242.196584505182	612.5
245.069598807626	614.25
247.941594323078	609.75
250.812572005154	611.25
253.682532804884	615.75
256.551477670699	612
259.419407548456	615.75
262.286323381439	613.5
265.152226110364	615
268.017116673389	615.25
270.880996006115	609.75
273.743865041622	619
276.605724710436	615
279.466575940562	620.5
282.326419657496	619.5
285.1852567842	617.75
288.043088241157	618.75
290.899914946349	617.25
293.75573781526	611.25
296.610557760898	614.5
299.464375693817	626
302.317192522078	619.5
305.169009151297	616.25
308.019826484655	619.75
310.86964542287	621
313.718466864233	619.25
316.566291704614	619.5
319.413120837457	618
322.258955153804	617.25
325.103795542291	619.75
327.947642889128	617.25
330.79049807819	624.25
333.632361990927	619.75
336.473235506444	619.75
339.31311950145	620.5
342.152014850322	616
344.989922425062	618
347.826843095354	618.75
350.662777728528	620
353.497727189577	621
356.331692341195	618.75
359.164674043732	626.5
361.996673155267	627.5
364.827690531536	624.75
367.65772702602	625.75
370.486783489887	620
373.314860772047	626.25
376.14195971912	625.5
378.968081175466	627
381.793225983212	625.25
384.617394982201	624.25
387.44058901005	621.25
390.262808902131	630.25
393.08405549161	618.75
395.904329609395	621.75
398.723632084213	626.5
401.541963742569	633.5
404.359325408779	631.75
407.175717904938	623.5
409.991142050982	623.75
412.805598664665	631.75
415.619088561551	629.25
418.43161255505	625
421.243171456415	615.5
424.053766074758	630.5
426.863397217017	627.5
429.672065688024	628
432.479772290455	628.75
435.286517824879	627.75
438.092303089736	633.25
440.897128881359	632.5
443.70099599399	631.75
446.503905219761	625.25
449.305857348711	628.75
452.106853168796	630
454.906893465919	635.25
457.705979023885	636.25
460.504110624439	633.25
463.3012890473	630.75
466.097515070087	632
468.892789468424	634.5
471.687113015869	633
474.48048648395	634.25
477.272910642198	629
480.064386258109	633.75
482.854914097159	635.25
485.644494922839	633.5
488.433129496636	634
491.220818578047	638
494.007562924584	636
496.793363291785	637.25
499.578220433217	638.75
502.362135100473	637
505.145108043209	636
507.927140009098	643.75
510.708231743909	636.5
513.488383991433	638.5
516.267597493556	641.5
519.04587299022	638.5
521.82321121946	641
524.599612917398	639.75
527.375078818233	637.5
530.149609654287	635.5
532.923206155967	633
535.695869051804	637.25
538.467599068448	635
541.238396930665	641.5
544.008263361364	637
546.777199081578	638
549.545204810493	632.25
552.312281265436	637.25
555.078429161898	636.5
557.843649213533	640.75
560.607942132156	641.5
563.371308627753	643.75
566.133749408495	648
568.895265180756	644
571.655856649064	644.25
574.415524516189	643
577.174269483075	648.5
579.932092248884	643
582.688993510994	637.75
585.444973965023	641.75
588.200034304795	646.5
590.95417522237	644
593.70739740807	644.5
596.459701550433	645
599.21108833628	646.25
601.961558450668	647.5
604.711112576933	646.5
607.459751396673	647
610.207475589748	651
612.954285834338	650
615.700182806879	651
618.445167182101	643
621.189239633055	643.75
623.932400831087	637.25
626.674651445839	648.5
629.415992145303	645.25
632.156423595745	648
634.895946461813	642.75
637.634561406449	651
640.37226909096	643.5
643.109070174978	641
645.844965316508	650.25
648.579955171888	644.75
651.314040395846	643.75
654.047221641456	655.5
656.779499560176	648
659.510874801828	641.25
662.241348014642	653.75
664.97091984524	650
667.699590938606	648
670.427361938164	650.5
673.15423348573	648.75
675.880206221526	650
678.605280784206	655.25
681.329457810829	647.25
684.05273793692	650.75
686.775121796389	643.75
689.49661002163	652.75
692.217203243454	651.75
694.936902091144	646.25
697.655707192425	652.5
700.373619173493	649
703.09063865901	654.75
705.806766272093	648
708.522002634378	653.75
711.236348365946	647
713.94980408538	648
716.662370409762	651.5
719.374047954676	659
722.08483733419	653.75
724.794739160909	649
727.503754045949	655.5
730.21188259892	651
732.919125427998	653.25
735.625483139855	657
738.330956339723	653.5
741.035545631374	655.75
743.739251617106	660
746.44207489779	659
749.144016072852	656.75
751.845075740272	655
754.545254496603	660.25
757.244552936976	662.25
759.94297165508	662.5
762.640511243222	657.5
765.337172292249	659.5
768.032955391649	657.75
770.727861129482	664
773.421890092413	661.5
776.11504286572	657
778.807320033298	660.5
781.49872217765	659.75
784.18924987991	661.5
786.87890371984	659.75
789.567684275826	654.75
792.255592124908	656.5
794.94262784276	660.5
797.628792003703	665
800.314085180715	662.75
802.998507945427	667.25
805.682060868145	657
808.364744517821	658.25
811.046559462105	658.5
813.727506267311	662.5
816.407585498422	665.25
819.08679771913	665.75
821.765143491822	672.75
824.442623377563	662.75
827.119237936127	665.25
829.794987726003	667.75
832.469873304377	672.5
835.143895227167	665.5
837.817054048985	663
840.489350323205	666.25
843.160784601892	674
845.831357435894	673.75
848.501069374739	666.25
851.169920966753	675.25
853.837912758987	675.25
856.505045297232	672
859.171319126071	672.25
861.836734788823	672
864.501292827579	674.5
867.164993783208	671.5
869.827838195361	673.75
872.489826602454	666.5
875.150959541701	671
877.811237549104	665.25
880.470661159456	669.75
883.129230906357	671
885.786947322205	665.75
888.443810938206	668.75
891.099822284385	681.75
893.754981889586	672
896.409290281452	674.25
899.062747986485	677.75
901.715355529999	678
904.367113436154	673.5
907.01802222793	675
909.668082427172	682
912.317294554574	677.5
914.965659129659	676.25
917.613176670835	674.25
920.259847695364	671.25
922.90567271936	673.75
925.550652257825	679.75
928.194786824621	680.75
930.838076932512	673.75
933.480523093109	671.75
936.122125816953	680.5
938.762885613447	679.5
941.402802990899	683
944.041878456523	684.25
946.680112516428	678.25
949.31750567563	679
951.954058438081	687.25
954.589771306633	681.75
957.224644783048	680.75
959.858679368044	689
962.491875561238	683.25
965.12423386121	685.5
967.75575476545	685.75
970.386438770423	683.25
973.016286371501	684.5
975.645298063046	683.75
978.273474338355	685
980.900815689674	681.75
983.527322608243	675
986.152995584245	680.25
988.777835106834	687
991.401841664148	694.5
994.025015743307	693.5
996.647357830407	688.25
999.268868410534	686.5
1001.88954796777	677.75
1004.50939698518	687.75
1007.12841594484	680.75
1009.74660532783	690.25
1012.36396561423	690
1014.98049728314	692
1017.59620081267	693.5
1020.21107667995	695.75
1022.82512536112	686.5
1025.43834733138	685.75
1028.05074306493	692.25
1030.66231303501	686.5
1033.27305771392	691
1035.88297757299	695.5
1038.49207308257	698.75
1041.10034471211	695
1043.70779293008	693.5
1046.31441820402	696.5
1048.92022100052	693.75
1051.52520178525	692.75
1054.12936102295	699.5
1056.73269917742	715.5
1059.33521671154	717.25
1061.93691408729	716.5
1064.53779176571	716.5
1067.13785020694	714.5
1069.73708987022	705.75
1072.33551121386	697
1074.93311469528	703.25
1077.52990077103	699
1080.12586989674	701.75
1082.72102252714	700.5
1085.31535911611	702.25
1087.90888011663	697
1090.50158598078	700
1093.09347715979	703.75
1095.68455410403	704.25
1098.27481726296	698.5
1100.86426708523	699.75
1103.45290401857	692
1106.04072850991	706.5
1108.6277410053	700.75
1111.21394194993	705.75
1113.79933178816	703
1116.3839109635	708
1118.96767991862	708.5
1121.55063909539	717.75
1124.13278893477	730.75
1126.71412987696	735.75
1129.29466236132	740.5
1131.87438682637	736
1134.45330370982	727.75
1137.03141344858	717.5
1139.60871647872	707.75
1142.18521323554	709.75
1144.7609041535	707.75
1147.33578966629	706.25
1149.90987020676	714.25
1152.48314620702	709
1155.05561809835	700
1157.62728631125	706.25
1160.19815127545	704.5
1162.76821341988	703.5
1165.33747317271	713
1167.90593096133	705
1170.47358721235	715.75
1173.04044235163	704
1175.60649680425	705.25
1178.17175099454	702.25
1180.73620534607	713.25
1183.29986028165	700.75
1185.86271622336	701.25
1188.42477359249	706
1190.98603280964	704.5
1193.54649429462	705.25
1196.10615846653	710
1198.66502574372	703.75
1201.22309654385	705.5
1203.78037128378	708
1206.33685037971	702.25
1208.89253424709	699.75
1211.44742330063	708.25
1214.00151795438	705.75
1216.55481862163	704.5
1219.10732571497	702
1221.65903964631	707.5
1224.20996082683	709.25
1226.760089667	708
1229.30942657664	713.5
1231.85797196483	709.25
1234.40572623998	706.75
1236.95268980981	714
1239.49886308136	713
1242.04424646098	715.5
1244.58884035435	708
1247.13264516647	707.5
1249.67566130166	716
1252.21788916358	713
1254.75932915524	717.75
1257.29998167896	720
1259.83984713639	711.75
1262.37892592857	725.75
1264.91721845586	716.75
1267.45472511795	707.25
1269.9914463139	724.25
1272.52738244213	713.25
1275.0625339004	712.75
1277.59690108587	719.25
1280.130484395	725.25
1282.66328422367	722.5
1285.19530096712	724.75
1287.72653501993	739.75
1290.25698677608	736.5
1292.78665662894	771
1295.31554497125	778.5
1297.8436521951	756.5
1300.37097869203	745
1302.89752485292	731.25
1305.42329106805	730.5
1307.94827772713	730.5
1310.47248521921	728.75
1312.99591393279	729.5
1315.51856425575	724.5
1318.04043657536	729.5
1320.56153127836	729.25
1323.08184875083	741.5
1325.6013893783	734.5
1328.12015354572	735.75
1330.63814163744	726.25
1333.15535403727	741.25
1335.67179112839	737.75
1338.18745329347	740
1340.70234091454	735.25
1343.21645437314	736
1345.72979405019	740
1348.24236032607	733
1350.75415358059	735.75
1353.26517419303	744.75
1355.7754225421	735.5
1358.28489900594	752.5
1360.79360396218	746.25
1363.30153778787	749.25
1365.80870085955	744.75
1368.31509355319	755.75
1370.82071624424	760
1373.32556930762	748.75
1375.8296531177	749
1378.33296804832	741.5
1380.83551447282	752.5
1383.33729276399	757.5
1385.83830329408	744
1388.33854643489	751.5
1390.83802255762	748
1393.33673203301	741.75
1395.83467523128	751.5
1398.33185252211	741
1400.82826427471	752.25
1403.32391085777	751
1405.81879263947	754.25
1408.31290998752	758
1410.80626326908	754.75
1413.29885285087	774
1415.79067909909	765.75
1418.28174237944	767
1420.77204305717	776
1423.26158149702	769
1425.75035806323	773.75
1428.2383731196	774
1430.72562702942	783.5
1433.21212015554	781.5
1435.69785286028	787.75
1438.18282550555	796.5
1440.66703845275	797
1443.15049206284	791.75
1445.6331866963	788.25
1448.11512271316	781.5
1450.59630047298	792
1453.07672033486	802.5
1455.55638265748	787
1458.03528779902	797
1460.51343611725	794.25
1462.99082796946	787.25
1465.46746371252	796
1467.94334370285	807.25
1470.41846829642	800.75
1472.89283784878	794.25
1475.36645271503	802.25
1477.83931324983	802
1480.31141980743	795
1482.78277274164	803.25
1485.25337240583	789.25
1487.72321915297	788.75
1490.19231333557	794.25
1492.66065530578	802.75
1495.12824541525	785.25
1497.5950840153	814
1500.06117145678	803
1502.52650809014	806.75
1504.99109426543	811.25
1507.45493033227	809.5
1509.91801663992	819.25
1512.38035353717	806.5
1514.84194137248	806.75
1517.30278049386	819.75
1519.76287124894	818.75
1522.22221398497	816.25
1524.68080904876	821.5
1527.13865678681	822.5
1529.59575754514	820.5
1532.05211166945	837
1534.50771950503	840
1536.96258139678	826.75
1539.41669768924	825
1541.87006872656	837.5
1544.32269485252	837.5
1546.77457641051	836.25
1549.22571374357	850.75
1551.67610719434	839.25
1554.12575710513	837.25
1556.57466381785	850
1559.02282767408	845.75
1561.47024901499	851.75
1563.91692818144	846.5
1566.3628655139	863.25
1568.80806135249	862.25
1571.252516037	864.25
1573.6962299068	860
1576.13920330099	874.25
1578.58143655828	877.5
1581.02293001704	878.25
1583.46368401528	869.25
1585.90369889071	874
1588.34297498065	874
1590.7815126221	891.25
1593.21931215173	885.25
1595.65637390588	880.5
1598.09269822053	885.75
1600.52828543135	892.75
1602.96313587367	879.75
1605.3972498825	897.5
1607.83062779252	885
1610.26326993808	887
1612.69517665322	896
1615.12634827165	897.25
1617.55678512676	893.25
1619.98648755163	895.25
1622.41545587902	908.75
1624.84369044138	903.25
1627.27119157085	899.25
1629.69795959924	900
1632.12399485808	912
1634.54929767859	905.75
1636.97386839165	909
1639.39770732789	907.25
1641.8208148176	919.25
1644.24319119078	908
1646.66483677715	919.25
1649.0857519061	921
1651.50593690677	915.25
1653.92539210795	922.5
1656.3441178382	929.5
1658.76211442575	924.25
1661.17938219855	929
1663.59592148428	935.5
1666.01173261032	934.5
1668.42681590377	935.25
1670.84117169145	942.5
1673.25480029991	941.75
1675.66770205541	942.5
1678.07987728393	945.75
1680.49132631119	952.5
1682.90204946263	947
1685.31204706342	954.75
1687.72131943846	946.5
1690.1298669124	962.5
1692.53768980957	968.75
1694.94478845411	960.25
1697.35116316982	953.75
1699.75681428031	969.75
1702.16174210887	967.25
1704.56594697858	955.75
1706.96942921222	971.25
1709.37218913235	976
1711.77422706125	964.75
1714.17554332098	970
1716.5761382333	983.75
1718.97601211977	973.5
1721.37516530169	966.75
1723.77359810006	977.25
1726.17131083572	973
1728.56830382922	970
1730.96457740087	987.75
1733.36013187075	982.5
1735.75496755868	963.5
1738.14908478428	984.25
1740.54248386689	968.75
1742.93516512565	980
1745.32712887946	988
1747.71837544697	971.25
1750.10890514662	986.5
1752.49871829661	996
1754.88781521492	993.5
1757.27619621929	989
1759.66386162726	983
1762.05081175612	993.25
1764.43704692297	990.5
1766.82256744465	982.75
1769.20737363782	992.75
1771.59146581887	993
1773.97484430405	1003
1776.35750940932	995.25
1778.73946145048	1004
1781.12070074309	1001.25
1783.50122760249	1010.25
1785.88104234385	1003.75
1788.26014528209	1013
1790.63853673196	1015.25
1793.01621700796	1013.75
1795.39318642443	1026.75
1797.76944529549	1021.75
1800.14499393503	1033
1802.51983265681	1031.25
1804.8939617743	1033
1807.26738160085	1035.75
1809.64009244957	1046.5
1812.01209463339	1040.75
1814.38338846504	1038
1816.75397425706	1045.25
1819.12385232181	1019.75
1821.49302297142	1040
1823.86148651789	1037.25
1826.22924327299	1035.25
1828.59629354831	1037.5
1830.96263765526	1040.5
1833.32827590507	1028.75
1835.69320860877	1047.75
1838.05743607724	1052
1840.42095862113	1045.75
1842.78377655097	1047.25
1845.14589017707	1038.5
1847.50729980956	1045
1849.86800575843	1046.5
1852.22800833346	1047.75
1854.58730784427	1048.25
1856.94590460032	1068.25
1859.30379891087	1045.75
1861.66099108503	1060.5
1864.01748143175	1075.75
1866.37327025978	1059.25
1868.72835787773	1066
1871.08274459403	1070
1873.43643071697	1070.75
1875.78941655464	1061.25
1878.14170241498	1062.5
1880.4932886058	1072
1882.84417543469	1073
1885.19436320915	1087
1887.54385223646	1083.75
1889.89264282378	1097.75
1892.24073527809	1082.75
1894.58812990625	1085.25
1896.93482701493	1081
1899.28082691067	1100.5
1901.62612989984	1100
1903.97073628868	1100.5
1906.31464638326	1108.25
1908.6578604895	1093.25
1911.00037891321	1108.75
1913.34220196	1097.75
1915.68332993537	1081.5
1918.02376314468	1116
1920.36350189311	1107
1922.70254648573	1108.75
1925.04089722744	1106
1927.37855442303	1113
1929.71551837715	1111.5
1932.05178939426	1125.25
1934.38736777876	1113.25
1936.72225383484	1112.5
1939.0564478666	1123.75
1941.38995017799	1121.75
1943.72276107283	1113.25
1946.05488085479	1112.75
1948.38630982744	1106.5
1950.71704829419	1113
1953.04709655832	1114
1955.376454923	1121
1957.70512369126	1116.75
1960.03310316599	1121
1962.36039364999	1114.25
1964.68699544589	1117.75
1967.01290885622	1124.5
1969.33813418338	1122
1971.66267172965	1117.75
1973.98652179718	1120.25
1976.309684688	1115.5
1978.63216070402	1121.75
1980.95395014705	1141.25
1983.27505331873	1119.75
1985.59547052063	1138
1987.9152020542	1115.75
1990.23424822074	1140.25
1992.55260932146	1127.5
1994.87028565746	1128.25
1997.18727752968	1131.25
1999.503585239	1153.25
2001.81920908618	1131.25
2004.13414937184	1141.75
2006.44840639651	1155.25
2008.7619804606	1151.75
2011.07487186442	1157.75
2013.38708090815	1152.75
2015.6986078919	1152.75
2018.00945311564	1171
2020.31961687923	1167.25
2022.62909948246	1162.5
2024.93790122498	1163.5
2027.24602240636	1158
2029.55346332604	1169.5
2031.86022428337	1181.25
2034.16630557761	1174.75
2036.47170750791	1177.25
2038.77643037331	1174
2041.08047447275	1193.75
2043.38384010509	1195
2045.68652756907	1186.5
2047.98853716335	1193.25
2050.28986918648	1189
2052.59052393692	1215.25
2054.89050171302	1184.25
2057.18980281306	1198
2059.4884275352	1190.25
2061.78637617753	1191.75
2064.08364903802	1205.5
2066.38024641457	1200
2068.67616860497	1200.25
2070.97141590694	1183.75
2073.26598861809	1202.5
2075.55988703595	1194.75
2077.85311145796	1202.75
2080.14566218145	1212.5
2082.43753950371	1224
2084.72874372188	1228
2087.01927513307	1196.75
2089.30913403428	1213.75
2091.59832072241	1222.25
2093.88683549429	1208.75
2096.17467864666	1189
2098.46185047619	1228.75
2100.74835127944	1215
2103.03418135292	1210.5
2105.31934099303	1204
2107.6038304961	1231.5
2109.88765015838	1223.25
2112.17080027602	1229.25
2114.45328114513	1239.5
2116.7350930617	1230.25
2119.01623632165	1231.25
2121.29671122085	1242.75
2123.57651805505	1234.75
2125.85565711996	1239.5
2128.13412871117	1241
2130.41193312424	1249
2132.68907065462	1242
2134.96554159771	1255.75
2137.24134624881	1254.5
2139.51648490317	1257.5
2141.79095785593	1236.75
2144.0647654022	1256
2146.33790783698	1254.5
2148.61038545524	1256.25
2150.88219855182	1270.5
2153.15334742154	1258.5
2155.42383235911	1264
2157.6936536592	1261.25
2159.9628116164	1252.5
2162.23130652522	1277.75
2164.49913868011	1275
2166.76630837544	1270.5
2169.03281590552	1265.25
2171.2986615646	1273.75
2173.56384564685	1278.25
2175.82836844637	1260
2178.0922302572	1292
2180.35543137332	1273.75
2182.61797208862	1281.75
2184.87985269695	1279.25
2187.14107349208	1276.25
2189.40163476773	1290.25
2191.66153681753	1274
2193.92077993507	1277.25
2196.17936441386	1276.5
2198.43729054735	1270.25
2200.69455862894	1271.25
2202.95116895194	1263.5
2205.20712180962	1279.5
2207.46241749519	1292
2209.71705630179	1281
2211.97103852248	1266
2214.2243644503	1282.25
2216.47703437819	1269
2218.72904859905	1275
2220.98040740571	1288
2223.23111109095	1278.5
2225.4811599475	1283.75
2227.73055426799	1272.5
2229.97929434504	1274.75
2232.22738047118	1265.75
2234.47481293889	1291.75
2236.72159204058	1288.25
2238.96771806864	1277.5
2241.21319131536	1285
2243.458012073	1281
2245.70218063374	1287.75
2247.94569728973	1279.25
2250.18856233304	1264.75
2252.4307760557	1282.25
2254.67233874967	1293.5
2256.91325070687	1267.75
2259.15351221915	1284.25
2261.39312357831	1289.75
2263.63208507611	1274.75
2265.87039700422	1287.5
2268.1080596543	1274.75
2270.34507331792	1280.75
2272.5814382866	1268.75
2274.81715485183	1290.75
2277.05222330502	1285.75
2279.28664393755	1277.25
2281.52041704072	1268.5
2283.75354290581	1265.25
2285.98602182401	1298
2288.21785408648	1289.75
2290.44903998434	1276.5
2292.67957980862	1283
2294.90947385033	1275
2297.1387224004	1276.75
2299.36732574975	1275.5
2301.59528418921	1269.25
2303.82259800958	1274
2306.04926750158	1286
2308.27529295593	1278.5
2310.50067466325	1282.25
2312.72541291412	1287.75
2314.9495079991	1282
2317.17296020866	1274.25
2319.39576983323	1267
2321.61793716322	1265.25
2323.83946248894	1260.75
2326.06034610069	1276.75
2328.28058828871	1279.75
2330.50018934317	1257.25
2332.7191495542	1260.75
2334.93746921192	1258.25
2337.15514860633	1263.5
2339.37218802743	1260.75
2341.58858776516	1266.25
2343.80434810941	1262.75
2346.01946935001	1265.25
2348.23395177675	1258
2350.44779567939	1267.25
2352.66100134759	1250.5
2354.87356907101	1257.25
2357.08549913925	1249.25
2359.29679184185	1234.75
2361.50744746829	1267.25
2363.71746630804	1260
2365.92684865048	1265.75
2368.13559478499	1245.5
2370.34370500083	1264
2372.55117958727	1267
2374.75801883352	1251
2376.96422302874	1245.5
2379.16979246202	1241.75
2381.37472742243	1238
2383.57902819898	1247
2385.78269508063	1259.5
2387.98572835629	1237.25
2390.18812831482	1249.25
2392.38989524505	1236.75
2394.59102943573	1230.25
2396.79153117559	1243
2398.9914007533	1237.75
2401.19063845748	1227.25
2403.38924457672	1236.5
2405.58721939951	1241.25
2407.78456321435	1237.25
2409.98127630966	1232.5
2412.17735897382	1212.75
2414.37281149517	1250.5
2416.56763416198	1225.75
2418.76182726249	1223
2420.95539108487	1217.25
2423.14832591726	1226.25
2425.34063204776	1222
2427.53230976439	1233.75
2429.72335935513	1234
2431.91378110795	1208.5
2434.10357531071	1214
2436.29274225125	1223.5
2438.48128221739	1205.5
2440.66919549683	1237.75
2442.8564823773	1207
2445.04314314641	1213
2447.22917809176	1218.75
2449.4145875009	1187.5
2451.59937166131	1212.75
2453.78353086044	1206.75
2455.96706538568	1206
2458.14997552436	1197.75
2460.33226156379	1199.25
2462.51392379119	1200
2464.69496249376	1196
2466.87537795862	1193.25
2469.05517047288	1179.5
2471.23434032357	1192.75
2473.41288779767	1189.75
2475.59081318211	1189
2477.76811676378	1190.25
2479.9447988295	1197
2482.12085966605	1160
2484.29629956016	1185.5
2486.4711187985	1186
2488.64531766769	1192
2490.8188964543	1180
2492.99185544484	1170.25
2495.16419492579	1182.75
2497.33591518353	1175
2499.50701650444	1173.75
2501.67749917482	1178.75
2503.84736348091	1181
2506.01660970891	1174.5
2508.18523814496	1169
2510.35324907514	1191.5
2512.52064278551	1175.5
2514.68741956201	1158
2516.85357969058	1178
2519.01912345709	1188.25
2521.18405114735	1165.5
2523.34836304711	1173.25
2525.51205944208	1165
2527.6751406179	1161.5
2529.83760686016	1177.25
2531.99945845439	1171
2534.16069568606	1179.75
2536.3213188406	1154.25
2538.48132820336	1171.5
2540.64072405965	1160.25
2542.79950669471	1164.75
2544.95767639373	1173.75
2547.11523344184	1153.25
2549.27217812411	1163
2551.42851072555	1171.25
2553.58423153111	1162.25
2555.73934082569	1138.25
2557.89383889412	1166.5
2560.04772602118	1161.75
2562.20100249158	1149.75
2564.35366858996	1147.25
2566.50572460093	1142
2568.65717080901	1159.5
2570.80800749867	1135
2572.95823495433	1144.5
2575.10785346031	1138.75
2577.25686330093	1137.25
2579.40526476038	1132.75
2581.55305812282	1129.25
2583.70024367237	1141.75
2585.84682169303	1130.25
2587.99279246879	1141.75
2590.13815628354	1132.75
2592.28291342112	1130.75
2594.42706416531	1133.75
2596.5706087998	1128.75
2598.71354760826	1126
2600.85588087425	1142.5
2602.99760888127	1111.5
2605.13873191278	1118.25
2607.27925025214	1138.75
2609.41916418269	1126.75
2611.55847398764	1134.25
2613.69717995017	1125
2615.83528235339	1131
2617.97278148034	1117.25
2620.10967761398	1103.25
2622.2459710372	1115.25
2624.38166203284	1114
2626.51675088365	1134.25
2628.65123787231	1133
2630.78512328145	1121.75
2632.9184073936	1125
2635.05109049124	1112.25
2637.18317285676	1112.25
2639.31465477248	1117
2641.44553652067	1123.75
2643.5758183835	1093.5
2645.70550064309	1125.25
2647.83458358144	1127.25
2649.96306748053	1136.5
2652.09095262223	1117.25
2654.21823928836	1113
2656.34492776063	1112.25
2658.47101832071	1123.5
2660.59651125015	1118.5
2662.72140683047	1123
2664.84570534309	1105.25
2666.96940706934	1113.5
2669.0925122905	1110
2671.21502128773	1118.75
2673.33693434215	1129
2675.45825173479	1108
2677.57897374658	1108.5
2679.69910065839	1107.75
2681.818632751	1126.75
2683.93757030511	1104.75
2686.05591360133	1103.25
2688.17366292021	1105
2690.29081854218	1125.75
2692.40738074762	1103.25
2694.52334981681	1100.75
2696.63872602995	1110.5
2698.75350966713	1099
2700.86770100841	1112.25
2702.98130033371	1109.75
2705.09430792289	1098.75
2707.20672405571	1113.25
2709.31854901185	1102.5
2711.42978307091	1103.25
2713.54042651238	1113.25
2715.65047961567	1102.75
2717.7599426601	1112
2719.86881592491	1114
2721.97709968924	1120.75
2724.08479423213	1110.5
2726.19189983255	1101.75
2728.29841676934	1115.25
2730.4043453213	1103.75
2732.5096857671	1102.75
2734.61443838532	1104.25
2736.71860345444	1108
2738.82218125286	1092.5
2740.92517205889	1103.75
2743.02757615072	1101.75
2745.12939380646	1089.25
2747.23062530411	1105
2749.33127092159	1111.75
2751.4313309367	1102.5
2753.53080562716	1119.75
2755.62969527058	1100.25
2757.72800014448	1092
2759.82572052625	1104.25
2761.92285669323	1101
2764.0194089226	1101.25
2766.11537749147	1098.75
2768.21076267686	1094.5
2770.30556475566	1097.25
2772.39978400465	1103.25
2774.49342070054	1100
2776.58647511991	1098.75
2778.67894753923	1098.75
2780.77083823487	1097.5
2782.8621474831	1089.75
2784.95287556007	1102
2787.04302274184	1092.75
2789.13258930433	1094.25
2791.22157552338	1100.25
2793.30998167471	1091.75
2795.39780803392	1091
2797.4850548765	1097.25
2799.57172247786	1097.5
2801.65781111324	1094
2803.74332105781	1109.25
2805.82825258661	1097.25
2807.91260597457	1108.75
2809.9963814965	1090
2812.07957942711	1085.75
2814.16220004096	1103
2816.24424361252	1086.75
2818.32571041614	1097.25
2820.40660072604	1098
2822.48691481631	1099.75
2824.56665296098	1106.25
2826.64581543388	1117.25
2828.72440250876	1126
2830.80241445925	1132
2832.87985155885	1128.25
2834.95671408093	1145.25
2837.03300229875	1166
2839.10871648544	1208.75
2841.18385691399	1236
2843.25842385729	1252
2845.33241758808	1282.5
2847.40583837898	1275.75
2849.4786865025	1274.75
2851.550962231	1265.25
2853.6226658367	1249.25
2855.69379759173	1234.25
2857.76435776806	1232.5
2859.83434663753	1217.25
2861.90376447184	1216
2863.97261154259	1209.75
2866.0408881212	1204.25
2868.10859447901	1207.5
2870.17573088717	1202.5
2872.24229761673	1225.25
2874.30829493859	1232
2876.37372312352	1238.25
2878.43858244215	1294
2880.50287316496	1302.75
2882.56659556231	1303.5
2884.62974990439	1276
2886.69233646129	1250
2888.75435550293	1234.25
2890.81580729909	1240
2892.87669211941	1231.5
2894.93701023339	1211.25
2896.99676191039	1221.5
2899.05594741961	1225.75
2901.1145670301	1207
2903.1726210108	1216.75
2905.23010963045	1218
2907.28703315768	1189.75
2909.34339186096	1202.75
2911.39918600861	1171
2913.45441586879	1184.25
2915.50908170952	1185
2917.56318379867	1189
2919.61672240395	1187.75
2921.66969779291	1179.5
2923.72211023295	1183.75
2925.77395999134	1186
2927.82524733515	1187.5
2929.87597253132	1182.75
2931.92613584663	1171.25
2933.97573754769	1177.75
2936.02477790097	1179.5
2938.07325717276	1175.25
2940.1211756292	1168.5
2942.16853353626	1163
2944.21533115976	1149.75
2946.26156876536	1147
2948.30724661853	1155.5
2950.3523649846	1129
2952.39692412872	1152.5
2954.44092431587	1141.25
2956.48436581089	1149.25
2958.52724887843	1154
2960.56957378296	1142
2962.6113407888	1141.5
2964.65255016011	1135.75
2966.69320216083	1158
2968.73329705479	1135.25
2970.77283510559	1131
2972.81181657671	1141.25
2974.8502417314	1147.75
2976.88811083279	1146
2978.92542414378	1146.25
2980.96218192713	1149
2982.99838444541	1147.25
2985.034031961	1161.25
2987.06912473612	1142.75
2989.1036630328	1144.25
2991.13764711288	1140.75
2993.17107723804	1153.75
2995.20395366974	1154.25
2997.23627666931	1155.75
2999.26804649782	1168.25
3001.29926341624	1178.5
3003.32992768528	1168.25
3005.3600395655	1164.75
3007.38959931726	1155.5
3009.41860720076	1181.5
3011.44706347595	1186
3013.47496840263	1165.5
3015.50232224041	1180
3017.5291252487	1170.25
3019.5553776867	1181.75
3021.58107981344	1173
3023.60623188773	1179
3025.63083416822	1177
3027.65488691331	1177.75
3029.67839038125	1170.75
3031.70134483007	1181.5
3033.72375051759	1180.5
3035.74560770144	1198.25
3037.76691663907	1197.75
3039.78767758768	1193.5
3041.80789080431	1190.5
3043.82755654577	1193
3045.84667506867	1187.75
3047.8652466294	1201
3049.88327148418	1174.25
3051.90074988899	1191.75
3053.91768209961	1195.5
3055.9340683716	1194
3057.94990896033	1198
3059.96520412095	1222.75
3061.97995410838	1208.25
3063.99415917734	1199.75
3066.00781958234	1191.25
3068.02093557766	1197.75
3070.03350741738	1192.5
3072.04553535535	1194.75
3074.05701964521	1185.75
3076.06796054036	1204.75
3078.078358294	1197.5
3080.08821315912	1213
3082.09752538846	1194.75
3084.10629523454	1192.5
3086.11452294967	1200.5
3088.12220878592	1218.25
3090.12935299515	1191.5
3092.13595582898	1190.75
3094.1420175388	1196.75
3096.14753837579	1196.25
3098.15251859088	1206.25
3100.15695843477	1189.75
3102.16085815793	1217.5
3104.16421801061	1218.75
3106.16703824282	1201.5
3108.16931910432	1219.75
3110.17106084464	1203.5
3112.17226371308	1215.25
3114.17292795872	1205.75
3116.17305383034	1213.25
3118.17264157657	1227
3120.17169144571	1219
3122.17020368587	1222.25
3124.16817854492	1206.75
3126.16561627044	1209.75
3128.16251710982	1220.25
3130.15888131017	1230.25
3132.15470911837	1224.75
3134.15000078104	1226.5
3136.14475654455	1226.5
3138.13897665502	1233
3140.13266135835	1225.5
3142.12581090014	1215
3144.11842552577	1232.5
3146.11050548036	1252.25
3148.10205100875	1235.25
3150.09306235557	1241.75
3152.08353976515	1229.75
3154.07348348158	1234.75
3156.06289374869	1242
3158.05177081006	1244.75
3160.04011490899	1239
3162.02792628852	1248
3164.01520519145	1238.5
3166.00195186029	1229.25
3167.98816653728	1237.75
3169.97384946442	1237.25
3171.95900088344	1254.75
3173.94362103577	1229.5
3175.92771016259	1239.5
3177.91126850484	1241.75
3179.89429630312	1250.5
3181.87679379782	1242
3183.85876122903	1244.75
3185.84019883657	1249.5
3187.82110685997	1231.75
3189.80148553851	1238.75
3191.78133511116	1246.5
3193.76065581664	1244.75
3195.73944789337	1246.5
3197.7177115795	1246.75
3199.6954471129	1257.25
3201.67265473114	1246.25
3203.64933467153	1253.75
3205.62548717107	1240.75
3207.60111246648	1257.25
3209.57621079421	1252.75
3211.55078239041	1263.25
3213.52482749093	1254.5
3215.49834633133	1255
3217.4713391469	1255.75
3219.44380617262	1256.75
3221.41574764317	1250.25
3223.38716379296	1260.5
3225.35805485607	1267.25
3227.32842106631	1253.25
3229.29826265718	1253.75
3231.26757986187	1268.75
3233.2363729133	1276.5
3235.20464204405	1264.75
3237.17238748643	1268.75
3239.13960947243	1284.75
3241.10630823374	1274
3243.07248400174	1282.5
3245.03813700748	1296.5
3247.00326748177	1271.25
3248.96787565503	1266
3250.93196175742	1278
3252.89552601877	1280
3254.8585686686	1289.75
3256.82108993612	1286
3258.78309005022	1300.75
3260.74456923948	1290.5
3262.70552773215	1284
3264.66596575617	1287
3266.62588353916	1280.25
3268.58528130843	1306.5
3270.54415929094	1275.5
3272.50251771336	1282.5
3274.46035680201	1286.5
3276.4176767829	1282.5
3278.37447788171	1285
3280.33076032379	1297.25
3282.28652433416	1270
3284.24177013751	1294
3286.1964979582	1278.5
3288.15070802027	1284.25
3290.10440054741	1282.5
3292.05757576298	1265.75
3294.01023389001	1284.25
3295.96237515119	1298.5
3297.91399976887	1306
3299.86510796506	1292
3301.81569996142	1297
3303.76577597932	1293
3305.7153362397	1283
3307.66438096324	1312.25
3309.61291037024	1273.5
3311.56092468064	1287
3313.50842411404	1283
3315.45540888971	1282.5
3317.40187922656	1292.5
3319.34783534315	1292
3321.29327745768	1287.75
3323.23820578801	1282.75
3325.18262055164	1276
3327.1265219657	1273.25
3329.06991024699	1275.5
3331.01278561194	1281.25
3332.95514827662	1267.75
3334.89699845674	1282.5
3336.83833636766	1293.5
3338.77916222434	1273.75
3340.71947624143	1281.5
3342.65927863317	1284.25
3344.59856961346	1282.5
3346.53734939584	1285
3348.47561819344	1287.25
3350.41337621906	1284.75
3352.35062368513	1271.75
3354.28736080368	1287.25
3356.22358778637	1269.5
3358.15930484452	1274.25
3360.09451218904	1292.75
3362.02921003047	1281.75
3363.96339857898	1296.75
3365.89707804436	1288
3367.83024863602	1268.5
3369.76291056299	1281
3371.69506403389	1295.75
3373.62670925699	1275.75
3375.55784644016	1272.75
3377.4884757909	1287.75
3379.41859751629	1292
3381.34821182305	1293
3383.27731891749	1286.25
3385.20591900555	1285
3387.13401229276	1293.5
3389.06159898426	1307.75
3390.9886792848	1299
3392.91525339872	1299.25
3394.84132152998	1306
3396.76688388213	1304.25
3398.69194065833	1304.5
3400.61649206133	1301.25
3402.54053829348	1297.75
3404.46407955672	1302
3406.3871160526	1307.25
3408.30964798225	1301.75
3410.23167554639	1305.75
3412.15319894535	1299.75
3414.07421837904	1294.75
3415.99473404695	1298
3417.91474614817	1297
3419.83425488136	1290.25
3421.75326044479	1315.75
3423.67176303631	1296.75
3425.58976285332	1322.5
3427.50726009282	1300.75
3429.42425495143	1308
3431.34074762528	1320
3433.25673831012	1300.5
3435.17222720127	1300.75
3437.08721449362	1300.25
3439.00170038164	1304.75
3440.91568505936	1294.5
3442.82916872039	1293.25
3444.74215155791	1289
3446.65463376468	1276.5
3448.566615533	1306.25
3450.47809705476	1300
3452.3890785214	1306
3454.29956012393	1314.75
3456.20954205293	1280.25
3458.11902449853	1310.5
3460.02800765041	1294
3461.93649169784	1294.5
3463.84447682962	1303
3465.75196323412	1305.25
3467.65895109925	1289.75
3469.56544061249	1285
3471.47143196086	1292
3473.37692533093	1297.75
3475.28192090884	1282.25
3477.18641888026	1288.25
3479.09041943039	1278.75
3480.99392274402	1289.75
3482.89692900545	1296.25
3484.79943839853	1278
3486.70145110666	1291
3488.60296731277	1279.25
3490.50398719933	1283.75
3492.40451094836	1279.5
3494.30453874141	1290.25
3496.20407075956	1299.5
3498.10310718342	1283.75
3500.00164819315	1275