201.866871357051	1311
204.754250281454	1324.5
207.640596790938	1314.25
210.525911876299	1322
213.410196525689	1346.75
216.293451724508	1324
219.175678455485	1317.5
222.056877698662	1325.25
224.937050431388	1317.5
227.816197628363	1329
230.694320261602	1320.25
233.571419300504	1333
236.447495711764	1351.5
239.322550459507	1332.75
242.196584505182	1344
245.069598807626	1362.75
247.941594323078	1351.25
250.812572005154	1347
253.682532804884	1344.25
256.551477670699	1353
259.419407548456	1359
262.286323381439	1365
265.152226110364	1366.5
268.017116673389	1373.75
270.880996006115	1374
273.743865041622	1382.25
276.605724710436	1377.5
279.466575940562	1389.5
282.326419657496	1405.25
285.1852567842	1371.25
288.043088241157	1392.5
290.899914946349	1381.75
293.75573781526	1403.25
296.610557760898	1386
299.464375693817	1413
302.317192522078	1385
305.169009151297	1393
308.019826484655	1394.75
310.86964542287	1396.5
313.718466864233	1386
316.566291704614	1387.25
319.413120837457	1393.75
322.258955153804	1404.5
325.103795542291	1397.5
327.947642889128	1398.75
330.79049807819	1404.5
333.632361990927	1421.75
336.473235506444	1397
339.31311950145	1413.75
342.152014850322	1405.5
344.989922425062	1408
347.826843095354	1440.75
350.662777728528	1419.75
353.497727189577	1456.25
356.331692341195	1419.75
359.164674043732	1433
361.996673155267	1442.75
364.827690531536	1442.5
367.65772702602	1449.5
370.486783489887	1473.75
373.314860772047	1444
376.14195971912	1454.5
378.968081175466	1457.25
381.793225983212	1431
384.617394982201	1471.5
387.44058901005	1458.75
390.262808902131	1456.75
393.08405549161	1455
395.904329609395	1467.5
398.723632084213	1462.75
401.541963742569	1448
404.359325408779	1491
407.175717904938	1460.75
409.991142050982	1476.5
412.805598664665	1463.25
415.619088561551	1463.75
418.43161255505	1483
421.243171456415	1484
424.053766074758	1479
426.863397217017	1497.75
429.672065688024	1471.75
432.479772290455	1509.5
435.286517824879	1503
438.092303089736	1504.25
440.897128881359	1513.5
443.70099599399	1503
446.503905219761	1496
449.305857348711	1485.25
452.106853168796	1513.5
454.906893465919	1490.25
457.705979023885	1510.75
460.504110624439	1504.5
463.3012890473	1498.5
466.097515070087	1506.25
468.892789468424	1503
471.687113015869	1500.25
474.48048648395	1490.25
477.272910642198	1506.25
480.064386258109	1508.25
482.854914097159	1511.5
485.644494922839	1526.75
488.433129496636	1530.75
491.220818578047	1534
494.007562924584	1536.25
496.793363291785	1551.25
499.578220433217	1534.5
502.362135100473	1543
505.145108043209	1547.75
507.927140009098	1557.25
510.708231743909	1541.5
513.488383991433	1539.5
516.267597493556	1552
519.04587299022	1560.75
521.82321121946	1538.75
524.599612917398	1544.5
527.375078818233	1543.75
530.149609654287	1560.5
532.923206155967	1551
535.695869051804	1545
538.467599068448	1586
541.238396930665	1543.5
544.008263361364	1555.5
546.777199081578	1534.25
549.545204810493	1541.75
552.312281265436	1543.25
555.078429161898	1550.75
557.843649213533	1546.75
560.607942132156	1549
563.371308627753	1544.75
566.133749408495	1571.25
568.895265180756	1573.5
571.655856649064	1592
574.415524516189	1572.75
577.174269483075	1575.75
579.932092248884	1588.25
582.688993510994	1589.5
585.444973965023	1593.5
588.200034304795	1590.5
590.95417522237	1598
593.70739740807	1589
596.459701550433	1597
599.21108833628	1592.25
601.961558450668	1595.25
604.711112576933	1571
607.459751396673	1584.25
610.207475589748	1596.5
612.954285834338	1604.5
615.700182806879	1594.25
618.445167182101	1588.75
621.189239633055	1599.5
623.932400831087	1579.5
626.674651445839	1591.5
629.415992145303	1578.75
632.156423595745	1579.75
634.895946461813	1572.25
637.634561406449	1591.5
640.37226909096	1580
643.109070174978	1576
645.844965316508	1594.75
648.579955171888	1590
651.314040395846	1586.5
654.047221641456	1583.5
656.779499560176	1604.75
659.510874801828	1622.5
662.241348014642	1577.25
664.97091984524	1610.75
667.699590938606	1606.25
670.427361938164	1616
673.15423348573	1599.75
675.880206221526	1642.5
678.605280784206	1617.75
681.329457810829	1619.75
684.05273793692	1634
686.775121796389	1600.25
689.49661002163	1642.25
692.217203243454	1616.5
694.936902091144	1618.75
697.655707192425	1601
700.373619173493	1619.75
703.09063865901	1606
705.806766272093	1618
708.522002634378	1618
711.236348365946	1611.5
713.94980408538	1604.5
716.662370409762	1618
719.374047954676	1624.25
722.08483733419	1609.25
724.794739160909	1629.5
727.503754045949	1642
730.21188259892	1643
732.919125427998	1617.5
735.625483139855	1632
738.330956339723	1616.5
741.035545631374	1624.25
743.739251617106	1629.25
746.44207489779	1634.25
749.144016072852	1646.5
751.845075740272	1644.25
754.545254496603	1663.25
757.244552936976	1630
759.94297165508	1644.5
762.640511243222	1639
765.337172292249	1647
768.032955391649	1663
770.727861129482	1656.75
773.421890092413	1655
776.11504286572	1641.5
778.807320033298	1650.25
781.49872217765	1641.75
784.18924987991	1628.75
786.87890371984	1640.5
789.567684275826	1645.75
792.255592124908	1640
794.94262784276	1637
797.628792003703	1634
800.314085180715	1650
802.998507945427	1651.75
805.682060868145	1638.75
808.364744517821	1662.25
811.046559462105	1642.5
813.727506267311	1643.5
816.407585498422	1661.75
819.08679771913	1656.5
821.765143491822	1655.75
824.442623377563	1689
827.119237936127	1673.25
829.794987726003	1672.25
832.469873304377	1665
835.143895227167	1667.5
837.817054048985	1677.25
840.489350323205	1695
843.160784601892	1691
845.831357435894	1661.75
848.501069374739	1682.5
851.169920966753	1689.5
853.837912758987	1687.75
856.505045297232	1685.5
859.171319126071	1685.25
861.836734788823	1670.25
864.501292827579	1721.5
867.164993783208	1695.5
869.827838195361	1670.5
872.489826602454	1689.25
875.150959541701	1693.25
877.811237549104	1682.75
880.470661159456	1684
883.129230906357	1688
885.786947322205	1685.5
888.443810938206	1669.25
891.099822284385	1693.5
893.754981889586	1668
896.409290281452	1675
899.062747986485	1711
901.715355529999	1699.5
904.367113436154	1695
907.01802222793	1697.75
909.668082427172	1691
912.317294554574	1695.25
914.965659129659	1713
917.613176670835	1720.75
920.259847695364	1714.25
922.90567271936	1725.25
925.550652257825	1700.75
928.194786824621	1710.75
930.838076932512	1698
933.480523093109	1721
936.122125816953	1692.75
938.762885613447	1710.25
941.402802990899	1737.75
944.041878456523	1742.5
946.680112516428	1743.75
949.31750567563	1716.75
951.954058438081	1755.75
954.589771306633	1730.75
957.224644783048	1718.5
959.858679368044	1736
962.491875561238	1721.5
965.12423386121	1725
967.75575476545	1750
970.386438770423	1742.25
973.016286371501	1724
975.645298063046	1757.5
978.273474338355	1734.5
980.900815689674	1731.75
983.527322608243	1733.5
986.152995584245	1750.5
988.777835106834	1755
991.401841664148	1739.75
994.025015743307	1743
996.647357830407	1747.75
999.268868410534	1760.25
1001.88954796777	1727.75
1004.50939698518	1764
1007.12841594484	1755
1009.74660532783	1748
1012.36396561423	1770.5
1014.98049728314	1768
1017.59620081267	1757.75
1020.21107667995	1757.75
1022.82512536112	1778.25
1025.43834733138	1791.25
1028.05074306493	1800
1030.66231303501	1788
1033.27305771392	1804.25
1035.88297757299	1795
1038.49207308257	1792.5
1041.10034471211	1794.25
1043.70779293008	1787.5
1046.31441820402	1800.25
1048.92022100052	1797
1051.52520178525	1802.75
1054.12936102295	1811
1056.73269917742	1825.75
1059.33521671154	1793.5
1061.93691408729	1817
1064.53779176571	1828.25
1067.13785020694	1795.75
1069.73708987022	1819.5
1072.33551121386	1812.75
1074.93311469528	1794.25
1077.52990077103	1820
1080.12586989674	1797.75
1082.72102252714	1809.75
1085.31535911611	1807.5
1087.90888011663	1808.25
1090.50158598078	1810.25
1093.09347715979	1809
1095.68455410403	1813.25
1098.27481726296	1808.5
1100.86426708523	1816
1103.45290401857	1828.5
1106.04072850991	1816.75
1108.6277410053	1821
1111.21394194993	1818.75
1113.79933178816	1814.25
1116.3839109635	1841.25
1118.96767991862	1854
1121.55063909539	1864.25
1124.13278893477	1843.5
1126.71412987696	1864
1129.29466236132	1845.25
1131.87438682637	1858.25
1134.45330370982	1864.5
1137.03141344858	1889.25
1139.60871647872	1843.5
1142.18521323554	1864.5
1144.7609041535	1872.75
1147.33578966629	1886.5
1149.90987020676	1886.75
1152.48314620702	1887.25
1155.05561809835	1877
1157.62728631125	1876.25
1160.19815127545	1866.5
1162.76821341988	1894.75
1165.33747317271	1875.5
1167.90593096133	1897.75
1170.47358721235	1887
1173.04044235163	1888.5
1175.60649680425	1891.5
1178.17175099454	1897.5
1180.73620534607	1892.5
1183.29986028165	1868.5
1185.86271622336	1877.75
1188.42477359249	1876.5
1190.98603280964	1910.5
1193.54649429462	1908.75
1196.10615846653	1894.5
1198.66502574372	1881.25
1201.22309654385	1899
1203.78037128378	1893
1206.33685037971	1901.75
1208.89253424709	1900.25
1211.44742330063	1923.25
1214.00151795438	1892.75
1216.55481862163	1889.25
1219.10732571497	1911
1221.65903964631	1919.5
1224.20996082683	1902
1226.760089667	1924.75
1229.30942657664	1931.25
1231.85797196483	1940.25
1234.40572623998	1928.75
1236.95268980981	1937.25
1239.49886308136	1944.5
1242.04424646098	1940.25
1244.58884035435	1938.25
1247.13264516647	1963
1249.67566130166	1985
1252.21788916358	1954
1254.75932915524	1967.75
1257.29998167896	1997.5
1259.83984713639	1992.75
1262.37892592857	1993
1264.91721845586	1989.25
1267.45472511795	1997
1269.9914463139	2008.5
1272.52738244213	2014.5
1275.0625339004	1991.25
1277.59690108587	2028.5
1280.130484395	2029
1282.66328422367	1999
1285.19530096712	2029.25
1287.72653501993	2043
1290.25698677608	2044
1292.78665662894	2046
1295.31554497125	2037.75
1297.8436521951	2059.25
1300.37097869203	2054.75
1302.89752485292	2049.75
1305.42329106805	2031
1307.94827772713	2067.5
1310.47248521921	2080.75
1312.99591393279	2061.25
1315.51856425575	2096.25
1318.04043657536	2097
1320.56153127836	2079.5
1323.08184875083	2107
1325.6013893783	2095.5
1328.12015354572	2109.25
1330.63814163744	2111
1333.15535403727	2127.25
1335.67179112839	2144.75
1338.18745329347	2137
1340.70234091454	2159.5
1343.21645437314	2122
1345.72979405019	2150
1348.24236032607	2151
1350.75415358059	2196.25
1353.26517419303	2165.75
1355.7754225421	2164.5
1358.28489900594	2211.75
1360.79360396218	2199.25
1363.30153778787	2198
1365.80870085955	2216.75
1368.31509355319	2229.25
1370.82071624424	2221
1373.32556930762	2220.25
1375.8296531177	2191.75
1378.33296804832	2217.5
1380.83551447282	2231.75
1383.33729276399	2207.25
1385.83830329408	2195.25
1388.33854643489	2192.75
1390.83802255762	2205.5
1393.33673203301	2203.75
1395.83467523128	2199.5
1398.33185252211	2188.25
1400.82826427471	2227.25
1403.32391085777	2239.75
1405.81879263947	2237
1408.31290998752	2256
1410.80626326908	2233.5
1413.29885285087	2238.25
1415.79067909909	2258.75
1418.28174237944	2246
1420.77204305717	2283.75
1423.26158149702	2279.25
1425.75035806323	2303.75
1428.2383731196	2260.5
1430.72562702942	2284.25
1433.21212015554	2312.75
1435.69785286028	2326
1438.18282550555	2346
1440.66703845275	2333
1443.15049206284	2353.5
1445.6331866963	2381.5
1448.11512271316	2365.5
1450.59630047298	2391
1453.07672033486	2368
1455.55638265748	2399.25
1458.03528779902	2375
1460.51343611725	2413.5
1462.99082796946	2406.5
1465.46746371252	2435
1467.94334370285	2414
1470.41846829642	2428.5
1472.89283784878	2423.75
1475.36645271503	2441.5
1477.83931324983	2407
1480.31141980743	2457.75
1482.78277274164	2450.5
1485.25337240583	2448
1487.72321915297	2459.75
1490.19231333557	2458.75
1492.66065530578	2476.25
1495.12824541525	2461
1497.5950840153	2470.5
1500.06117145678	2447.5
1502.52650809014	2485.5
1504.99109426543	2509.5
1507.45493033227	2502.75
1509.91801663992	2509.75
1512.38035353717	2519.25
1514.84194137248	2521.25
1517.30278049386	2570.5
1519.76287124894	2547.75
1522.22221398497	2523.75
1524.68080904876	2548.5
1527.13865678681	2552.25
1529.59575754514	2576.75
1532.05211166945	2591.5
1534.50771950503	2627.25
1536.96258139678	2615.75
1539.41669768924	2629.75
1541.87006872656	2630.25
1544.32269485252	2655.75
1546.77457641051	2646.5
1549.22571374357	2695
1551.67610719434	2683.25
1554.12575710513	2704.75
1556.57466381785	2730.75
1559.02282767408	2713.25
1561.47024901499	2725.5
1563.91692818144	2762.25
1566.3628655139	2775.75
1568.80806135249	2759
1571.252516037	2780.25
1573.6962299068	2823.25
1576.13920330099	2823.25
1578.58143655828	2844.5
1581.02293001704	2858.5
1583.46368401528	2857.5
1585.90369889071	2873.75
1588.34297498065	2872
1590.7815126221	2883.25
1593.21931215173	2908.5
1595.65637390588	2908
1598.09269822053	2889
1600.52828543135	2922.5
1602.96313587367	2943.5
1605.3972498825	2922.75
1607.83062779252	2924.5
1610.26326993808	2952.25
1612.69517665322	2994.25
1615.12634827165	3016
1617.55678512676	2969
1619.98648755163	2963
1622.41545587902	2989.5
1624.84369044138	3006.5
1627.27119157085	3019.25
1629.69795959924	3021.25
1632.12399485808	3022.25
1634.54929767859	3003.5
1636.97386839165	3014.75
1639.39770732789	3073.5
1641.8208148176	3076.25
1644.24319119078	3080.25
1646.66483677715	3064
1649.0857519061	3069.75
1651.50593690677	3135.5
1653.92539210795	3133.5
1656.3441178382	3140.75
1658.76211442575	3175
1661.17938219855	3166.75
1663.59592148428	3241.75
1666.01173261032	3252
1668.42681590377	3278.25
1670.84117169145	3278
1673.25480029991	3278.75
1675.66770205541	3286.25
1678.07987728393	3349
1680.49132631119	3360.25
1682.90204946263	3378.25
1685.31204706342	3406
1687.72131943846	3437.75
1690.1298669124	3447
1692.53768980957	3485.25
1694.94478845411	3457.75
1697.35116316982	3478
1699.75681428031	3504
1702.16174210887	3518.25
1704.56594697858	3571.5
1706.96942921222	3584
1709.37218913235	3592.5
1711.77422706125	3607.5
1714.17554332098	3608.25
1716.5761382333	3673
1718.97601211977	3638.5
1721.37516530169	3669.75
1723.77359810006	3655.5
1726.17131083572	3707.25
1728.56830382922	3716.75
1730.96457740087	3746
1733.36013187075	3723.75
1735.75496755868	3739.25
1738.14908478428	3722.25
1740.54248386689	3768.5
1742.93516512565	3793.25
1745.32712887946	3819.75
1747.71837544697	3864
1750.10890514662	3898.75
1752.49871829661	3863
1754.88781521492	3919.25
1757.27619621929	3977
1759.66386162726	3978.5
1762.05081175612	3970.25
1764.43704692297	4017.75
1766.82256744465	3973
1769.20737363782	4077
1771.59146581887	4071.75
1773.97484430405	4129
1776.35750940932	4150
1778.73946145048	4143.5
1781.12070074309	4206.25
1783.50122760249	4247.5
1785.88104234385	4278.75
1788.26014528209	4297
1790.63853673196	4325
1793.01621700796	4336.75
1795.39318642443	4404.75
1797.76944529549	4422.25
1800.14499393503	4421.75
1802.51983265681	4422.25
1804.8939617743	4478
1807.26738160085	4547.25
1809.64009244957	4563
1812.01209463339	4536.25
1814.38338846504	4615
1816.75397425706	4635.75
1819.12385232181	4636
1821.49302297142	4692
1823.86148651789	4685
1826.22924327299	4709.25
1828.59629354831	4752
1830.96263765526	4741.5
1833.32827590507	4770.75
1835.69320860877	4797.75
1838.05743607724	4832.25
1840.42095862113	4877.25
1842.78377655097	4864.75
1845.14589017707	4874.25
1847.50729980956	4921.5
1849.86800575843	4959.25
1852.22800833346	4968.75
1854.58730784427	5060
1856.94590460032	5053.5
1859.30379891087	5077.25
1861.66099108503	5126.25
1864.01748143175	5194
1866.37327025978	5223
1868.72835787773	5206.75
1871.08274459403	5239.5
1873.43643071697	5289
1875.78941655464	5308
1878.14170241498	5305.25
1880.4932886058	5421
1882.84417543469	5432.75
1885.19436320915	5515.5
1887.54385223646	5468
1889.89264282378	5546
1892.24073527809	5624.5
1894.58812990625	5661.25
1896.93482701493	5708.25
1899.28082691067	5742.75
1901.62612989984	5780.75
1903.97073628868	5799.75
1906.31464638326	5858
1908.6578604895	5904.75
1911.00037891321	5984.75
1913.34220196	6052
1915.68332993537	6063.75
1918.02376314468	6144.75
1920.36350189311	6143.5
1922.70254648573	6212.75
1925.04089722744	6198
1927.37855442303	6232.25
1929.71551837715	6278
1932.05178939426	6319
1934.38736777876	6371.75
1936.72225383484	6381.5
1939.0564478666	6463.25
1941.38995017799	6454
1943.72276107283	6551.25
1946.05488085479	6587.75
1948.38630982744	6539.75
1950.71704829419	6621.5
1953.04709655832	6590.5
1955.376454923	6650.75
1957.70512369126	6686.25
1960.03310316599	6744.25
1962.36039364999	6740.5
1964.68699544589	6771.5
1967.01290885622	6917.25
1969.33813418338	6925.75
1971.66267172965	6986.25
1973.98652179718	7053
1976.309684688	7103.25
1978.63216070402	7163.5
1980.95395014705	7268
1983.27505331873	7256
1985.59547052063	7327.25
1987.9152020542	7405.25
1990.23424822074	7435
1992.55260932146	7507.75
1994.87028565746	7625.5
1997.18727752968	7533
1999.503585239	7682.25
2001.81920908618	7728.25
2004.13414937184	7806
2006.44840639651	7960.25
2008.7619804606	7973.25
2011.07487186442	7997.5
2013.38708090815	8181.25
2015.6986078919	8225
2018.00945311564	8328.5
2020.31961687923	8353.75
2022.62909948246	8444.75
2024.93790122498	8465.75
2027.24602240636	8570
2029.55346332604	8614.75
2031.86022428337	8655
2034.16630557761	8802.75
2036.47170750791	8862.75
2038.77643037331	8887
2041.08047447275	9016.25
2043.38384010509	8982
2045.68652756907	9122
2047.98853716335	9160.75
2050.28986918648	9184.25
2052.59052393692	9293.5
2054.89050171302	9298
2057.18980281306	9374
2059.4884275352	9441.75
2061.78637617753	9432.75
2064.08364903802	9523.25
2066.38024641457	9533.5
2068.67616860497	9650.25
2070.97141590694	9629
2073.26598861809	9684.5
2075.55988703595	9686.75
2077.85311145796	9776.25
2080.14566218145	9804.75
2082.43753950371	9846.75
2084.72874372188	9895
2087.01927513307	9962.5
2089.30913403428	9954.25
2091.59832072241	10045
2093.88683549429	10040.25
2096.17467864666	10197.75
2098.46185047619	10194.75
2100.74835127944	10250.25
2103.03418135292	10265
2105.31934099303	10245
2107.6038304961	10299.75
2109.88765015838	10408
2112.17080027602	10427.75
2114.45328114513	10573.75
2116.7350930617	10504
2119.01623632165	10578.75
2121.29671122085	10570.75
2123.57651805505	10688.75
2125.85565711996	10675.5
2128.13412871117	10773
2130.41193312424	10740
2132.68907065462	10844.5
2134.96554159771	10872.75
2137.24134624881	10894
2139.51648490317	10955.75
2141.79095785593	10936.75
2144.0647654022	10934
2146.33790783698	11003
2148.61038545524	10934.25
2150.88219855182	11112
2153.15334742154	11105.5
2155.42383235911	11109.25
2157.6936536592	11161.25
2159.9628116164	11117.75
2162.23130652522	11007.25
2164.49913868011	11141.75
2166.76630837544	11099.25
2169.03281590552	11084.5
2171.2986615646	11088.5
2173.56384564685	11175
2175.82836844637	11110.75
2178.0922302572	11077.75
2180.35543137332	11090.25
2182.61797208862	11092.75
2184.87985269695	11027.75
2187.14107349208	11029
2189.40163476773	11034
2191.66153681753	11011
2193.92077993507	10953.75
2196.17936441386	10919.75
2198.43729054735	10919
2200.69455862894	10920.75
2202.95116895194	10900.25
2205.20712180962	10851.75
2207.46241749519	10804.5
2209.71705630179	10831.75
2211.97103852248	10840.25
2214.2243644503	10768.25
2216.47703437819	10719.75
2218.72904859905	10641.25
2220.98040740571	10706
2223.23111109095	10703.75
2225.4811599475	10621.25
2227.73055426799	10583.5
2229.97929434504	10553.75
2232.22738047118	10474.25
2234.47481293889	10509.5
2236.72159204058	10562.5
2238.96771806864	10513.25
2241.21319131536	10435.75
2243.458012073	10387.5
2245.70218063374	10374.75
2247.94569728973	10366.25
2250.18856233304	10294.75
2252.4307760557	10208.75
2254.67233874967	10181.25
2256.91325070687	10196.75
2259.15351221915	10168.75
2261.39312357831	10124
2263.63208507611	10036.25
2265.87039700422	9979
2268.1080596543	10023.5
2270.34507331792	9916
2272.5814382866	9924.5
2274.81715485183	9942.75
2277.05222330502	9903.5
2279.28664393755	9858
2281.52041704072	9848.5
2283.75354290581	9859.75
2285.98602182401	9727.25
2288.21785408648	9729.5
2290.44903998434	9665
2292.67957980862	9726.75
2294.90947385033	9561.5
2297.1387224004	9651.25
2299.36732574975	9613.5
2301.59528418921	9511.5
2303.82259800958	9491.75
2306.04926750158	9468
2308.27529295593	9411.25
2310.50067466325	9400
2312.72541291412	9404.5
2314.9495079991	9338.75
2317.17296020866	9278.75
2319.39576983323	9276.75
2321.61793716322	9251.25
2323.83946248894	9212
2326.06034610069	9182
2328.28058828871	9173.5
2330.50018934317	9086.75
2332.7191495542	9120.25
2334.93746921192	9002.75
2337.15514860633	9026.75
2339.37218802743	8927.75
2341.58858776516	8915.25
2343.80434810941	8902.5
2346.01946935001	8900.5
2348.23395177675	8828.5
2350.44779567939	8800.25
2352.66100134759	8811.5
2354.87356907101	8745.75
2357.08549913925	8718.5
2359.29679184185	8710.25
2361.50744746829	8705
2363.71746630804	8647
2365.92684865048	8584.25
2368.13559478499	8607
2370.34370500083	8540.75
2372.55117958727	8530.75
2374.75801883352	8452.25
2376.96422302874	8406.25
2379.16979246202	8354.5
2381.37472742243	8327.75
2383.57902819898	8369
2385.78269508063	8326.5
2387.98572835629	8285.75
2390.18812831482	8251.5
2392.38989524505	8257.75
2394.59102943573	8185
2396.79153117559	8252.5
2398.9914007533	8122.5
2401.19063845748	8137.25
2403.38924457672	8080
2405.58721939951	8026.25
2407.78456321435	7971
2409.98127630966	8040.5
2412.17735897382	8063.5
2414.37281149517	8054
2416.56763416198	7990.5
2418.76182726249	8039.75
2420.95539108487	7943.75
2423.14832591726	7924.75
2425.34063204776	7856
2427.53230976439	7818.5
2429.72335935513	7844.25
2431.91378110795	7833.75
2434.10357531071	7765.75
2436.29274225125	7782
2438.48128221739	7710
2440.66919549683	7740.25
2442.8564823773	7706.75
2445.04314314641	7712
2447.22917809176	7651.5
2449.4145875009	7755
2451.59937166131	7635
2453.78353086044	7610.5
2455.96706538568	7663.25
2458.14997552436	7606.75
2460.33226156379	7495.25
2462.51392379119	7548
2464.69496249376	7455.75
2466.87537795862	7462
2469.05517047288	7412.5
2471.23434032357	7391
2473.41288779767	7439.25
2475.59081318211	7372.25
2477.76811676378	7319
2479.9447988295	7277.25
2482.12085966605	7269.25
2484.29629956016	7276.25
2486.4711187985	7324
2488.64531766769	7287.75
2490.8188964543	7249.25
2492.99185544484	7197
2495.16419492579	7183.5
2497.33591518353	7138.75
2499.50701650444	7131.5
2501.67749917482	7156.25
2503.84736348091	7132.5
2506.01660970891	7109
2508.18523814496	7080
2510.35324907514	7121.5
2512.52064278551	7114.5
2514.68741956201	7100
2516.85357969058	7152
2519.01912345709	7139
2521.18405114735	7064.25
2523.34836304711	7076
2525.51205944208	7048.25
2527.6751406179	7062
2529.83760686016	7052.5
2531.99945845439	7011.75
2534.16069568606	7025.5
2536.3213188406	6992
2538.48132820336	6985
2540.64072405965	6944.75
2542.79950669471	6930.5
2544.95767639373	6995.5
2547.11523344184	6876.5
2549.27217812411	6916.25
2551.42851072555	6904
2553.58423153111	6912.75
2555.73934082569	6829.25
2557.89383889412	6836.25
2560.04772602118	6850
2562.20100249158	6784.75
2564.35366858996	6765.75
2566.50572460093	6749.5
2568.65717080901	6719
2570.80800749867	6720.5
2572.95823495433	6696.25
2575.10785346031	6599.5
2577.25686330093	6587.25
2579.40526476038	6600
2581.55305812282	6516
2583.70024367237	6535.75
2585.84682169303	6509.5
2587.99279246879	6513.75
2590.13815628354	6464.25
2592.28291342112	6485
2594.42706416531	6498.5
2596.5706087998	6415.75
2598.71354760826	6466
2600.85588087425	6444
2602.99760888127	6415.75
2605.13873191278	6347
2607.27925025214	6387.5
2609.41916418269	6374.75
2611.55847398764	6393.25
2613.69717995017	6334
2615.83528235339	6362
2617.97278148034	6401.75
2620.10967761398	6322
2622.2459710372	6313.25
2624.38166203284	6385.5
2626.51675088365	6335
2628.65123787231	6255.25
2630.78512328145	6330.5
2632.9184073936	6291.75
2635.05109049124	6325.25
2637.18317285676	6302.5
2639.31465477248	6268.75
2641.44553652067	6301.75
2643.5758183835	6253
2645.70550064309	6249.75
2647.83458358144	6289.25
2649.96306748053	6256.75
2652.09095262223	6234.75
2654.21823928836	6297
2656.34492776063	6202
2658.47101832071	6196.75
2660.59651125015	6175.5
2662.72140683047	6214
2664.84570534309	6243.5
2666.96940706934	6198.25
2669.0925122905	6160.25
2671.21502128773	6171.75
2673.33693434215	6217.25
2675.45825173479	6195.25
2677.57897374658	6157.25
2679.69910065839	6181.25
2681.818632751	6119.75
2683.93757030511	6130.5
2686.05591360133	6145.75
2688.17366292021	6083
2690.29081854218	6129.5
2692.40738074762	6019.75
2694.52334981681	6050.75
2696.63872602995	6005.75
2698.75350966713	6088.25
2700.86770100841	6063
2702.98130033371	6035
2705.09430792289	6011
2707.20672405571	6018
2709.31854901185	6065.25
2711.42978307091	5989.25
2713.54042651238	5995.5
2715.65047961567	6032.75
2717.7599426601	6025.75
2719.86881592491	6007.75
2721.97709968924	5985.5
2724.08479423213	5957.75
2726.19189983255	5968.25
2728.29841676934	5964.25
2730.4043453213	5988.75
2732.5096857671	5974.5
2734.61443838532	5941
2736.71860345444	5956.75
2738.82218125286	5976.5
2740.92517205889	5976.5
2743.02757615072	5966
2745.12939380646	5907.75
2747.23062530411	5934.75
2749.33127092159	5943.5
2751.4313309367	5920
2753.53080562716	5939.5
2755.62969527058	5979.5
2757.72800014448	5921.5
2759.82572052625	5891.25
2761.92285669323	5906.5
2764.0194089226	5895.25
2766.11537749147	5872.25
2768.21076267686	5921.5
2770.30556475566	5835.5
2772.39978400465	5861.75
2774.49342070054	5870.25
2776.58647511991	5870.75
2778.67894753923	5826.25
2780.77083823487	5898.25
2782.8621474831	5827.5
2784.95287556007	5821.75
2787.04302274184	5766.75
2789.13258930433	5844
2791.22157552338	5831
2793.30998167471	5806
2795.39780803392	5834.25
2797.4850548765	5744.25
2799.57172247786	5792
2801.65781111324	5745.5
2803.74332105781	5786.5
2805.82825258661	5739.5
2807.91260597457	5741.5
2809.9963814965	5698.5
2812.07957942711	5712.75
2814.16220004096	5714
2816.24424361252	5672.5
2818.32571041614	5715.75
2820.40660072604	5721
2822.48691481631	5721.25
2824.56665296098	5719.75
2826.64581543388	5685.5
2828.72440250876	5745.5
2830.80241445925	5677.75
2832.87985155885	5705.25
2834.95671408093	5739.75
2837.03300229875	5708
2839.10871648544	5718
2841.18385691399	5786.5
2843.25842385729	5782
2845.33241758808	5834
2847.40583837898	5837.75
2849.4786865025	5816.25
2851.550962231	5894.75
2853.6226658367	5864.5
2855.69379759173	5834.25
2857.76435776806	5881.25
2859.83434663753	5763.75
2861.90376447184	5839
2863.97261154259	5774.5
2866.0408881212	5835.25
2868.10859447901	5802.25
2870.17573088717	5788.75
2872.24229761673	5818.75
2874.30829493859	5811
2876.37372312352	5758.25
2878.43858244215	5795.5
2880.50287316496	5838.5
2882.56659556231	5779
2884.62974990439	5836.25
2886.69233646129	5762
2888.75435550293	5781.75
2890.81580729909	5848
2892.87669211941	5766.75
2894.93701023339	5800.25
2896.99676191039	5790.25
2899.05594741961	5790.5
2901.1145670301	5726
2903.1726210108	5773.5
2905.23010963045	5760.5
2907.28703315768	5703.5
2909.34339186096	5763.75
2911.39918600861	5791.5
2913.45441586879	5728.25
2915.50908170952	5759.75
2917.56318379867	5708
2919.61672240395	5791.25
2921.66969779291	5712.25
2923.72211023295	5765
2925.77395999134	5717.75
2927.82524733515	5780.25
2929.87597253132	5749
2931.92613584663	5737.25
2933.97573754769	5679.25
2936.02477790097	5687.25
2938.07325717276	5676.5
2940.1211756292	5639.25
2942.16853353626	5657
2944.21533115976	5697.25
2946.26156876536	5616.5
2948.30724661853	5621.75
2950.3523649846	5690.5
2952.39692412872	5668
2954.44092431587	5648.25
2956.48436581089	5654.5
2958.52724887843	5599.25
2960.56957378296	5601.5
2962.6113407888	5601
2964.65255016011	5616.25
2966.69320216083	5694.5
2968.73329705479	5645.25
2970.77283510559	5636.25
2972.81181657671	5624
2974.8502417314	5629.75
2976.88811083279	5657.5
2978.92542414378	5630.75
2980.96218192713	5673.5
2982.99838444541	5677
2985.034031961	5663.5
2987.06912473612	5690.75
2989.1036630328	5690.25
2991.13764711288	5654.75
2993.17107723804	5654.25
2995.20395366974	5695.5
2997.23627666931	5703.25
2999.26804649782	5737
3001.29926341624	5736
3003.32992768528	5796.75
3005.3600395655	5810
3007.38959931726	5774.75
3009.41860720076	5774.25
3011.44706347595	5868.75
3013.47496840263	5785.75
3015.50232224041	5866
3017.5291252487	5895.25
3019.5553776867	5868.75
3021.58107981344	5896.5
3023.60623188773	5904.25
3025.63083416822	5899.5
3027.65488691331	5942
3029.67839038125	5947.75
3031.70134483007	5909
3033.72375051759	5985.5
3035.74560770144	5966.25
3037.76691663907	5955.25
3039.78767758768	6001
3041.80789080431	5956.75
3043.82755654577	5966.75
3045.84667506867	6027.75
3047.8652466294	6026.75
3049.88327148418	6033.25
3051.90074988899	5992.5
3053.91768209961	6033.5
3055.9340683716	5993.75
3057.94990896033	6005.25
3059.96520412095	6077.25
3061.97995410838	6041
3063.99415917734	6076.25
3066.00781958234	6045.5
3068.02093557766	6095
3070.03350741738	6047.75
3072.04553535535	6097.5
3074.05701964521	6095
3076.06796054036	6083.5
3078.078358294	6031.75
3080.08821315912	6106.75
3082.09752538846	6158.75
3084.10629523454	6029.25
3086.11452294967	6108
3088.12220878592	6108
3090.12935299515	6146.75
3092.13595582898	6153
3094.1420175388	6192
3096.14753837579	6176
3098.15251859088	6126.75
3100.15695843477	6205.25
3102.16085815793	6165.25
3104.16421801061	6150.25
3106.16703824282	6191.25
3108.16931910432	6222.25
3110.17106084464	6180
3112.17226371308	6212.5
3114.17292795872	6278.75
3116.17305383034	6279.75
3118.17264157657	6304.25
3120.17169144571	6283.5
3122.17020368587	6300
3124.16817854492	6276
3126.16561627044	6339.25
3128.16251710982	6388.25
3130.15888131017	6363.5
3132.15470911837	6445.5
3134.15000078104	6394.25
3136.14475654455	6468
3138.13897665502	6475.75
3140.13266135835	6469
3142.12581090014	6460.5
3144.11842552577	6530
3146.11050548036	6480.25
3148.10205100875	6535.5
3150.09306235557	6596.25
3152.08353976515	6512.5
3154.07348348158	6449.25
3156.06289374869	6570
3158.05177081006	6596.75
3160.04011490899	6590.5
3162.02792628852	6653.75
3164.01520519145	6597.75
3166.00195186029	6623.5
3167.98816653728	6680.75
3169.97384946442	6696
3171.95900088344	6670
3173.94362103577	6617.25
3175.92771016259	6728.25
3177.91126850484	6743.75
3179.89429630312	6719.5
3181.87679379782	6682.5
3183.85876122903	6790.25
3185.84019883657	6736
3187.82110685997	6752.25
3189.80148553851	6803.5
3191.78133511116	6860.75
3193.76065581664	6836
3195.73944789337	6834.75
3197.7177115795	6853.5
3199.6954471129	6931.5
3201.67265473114	6896
3203.64933467153	6936.75
3205.62548717107	6903.75
3207.60111246648	6969.25
3209.57621079421	6936.75
3211.55078239041	6965.25
3213.52482749093	6971
3215.49834633133	7096.5
3217.4713391469	7082.75
3219.44380617262	7068
3221.41574764317	7079
3223.38716379296	7080.5
3225.35805485607	7122.5
3227.32842106631	7113
3229.29826265718	7248.5
3231.26757986187	7246.25
3233.2363729133	7255.5
3235.20464204405	7264.75
3237.17238748643	7253.25
3239.13960947243	7298.25
3241.10630823374	7306.75
3243.07248400174	7310.5
3245.03813700748	7396
3247.00326748177	7330.25
3248.96787565503	7339.25
3250.93196175742	7408.5
3252.89552601877	7414.5
3254.8585686686	7451.75
3256.82108993612	7485.75
3258.78309005022	7463.75
3260.74456923948	7458
3262.70552773215	7532.5
3264.66596575617	7601.5
3266.62588353916	7513.25
3268.58528130843	7480
3270.54415929094	7506.5
3272.50251771336	7582
3274.46035680201	7648.5
3276.4176767829	7688.75
3278.37447788171	7603
3280.33076032379	7654
3282.28652433416	7597.5
3284.24177013751	7684.75
3286.1964979582	7680.75
3288.15070802027	7700.5
3290.10440054741	7779.5
3292.05757576298	7731.5
3294.01023389001	7790.25
3295.96237515119	7770.25
3297.91399976887	7830
3299.86510796506	7853
3301.81569996142	7851
3303.76577597932	7839.25
3305.7153362397	7855.75
3307.66438096324	7817.5
3309.61291037024	7838.75
3311.56092468064	7850.5
3313.50842411404	7881
3315.45540888971	7975.25
3317.40187922656	7922
3319.34783534315	8020.25
3321.29327745768	7960
3323.23820578801	7886.75
3325.18262055164	7923
3327.1265219657	7914.75
3329.06991024699	8004.75
3331.01278561194	8036
3332.95514827662	7988.75
3334.89699845674	8050.25
3336.83833636766	8072
3338.77916222434	7946
3340.71947624143	8070
3342.65927863317	8088.5
3344.59856961346	8025.75
3346.53734939584	8148.75
3348.47561819344	8078.25
3350.41337621906	8146.75
3352.35062368513	8185.75
3354.28736080368	8176
3356.22358778637	8161.5
3358.15930484452	8208.25
3360.09451218904	8275
3362.02921003047	8270.25
3363.96339857898	8293.5
3365.89707804436	8286.5
3367.83024863602	8297
3369.76291056299	8275.5
3371.69506403389	8317.75
3373.62670925699	8346
3375.55784644016	8438.5
3377.4884757909	8377.25
3379.41859751629	8469.75
3381.34821182305	8455.75
3383.27731891749	8455.25
3385.20591900555	8490.75
3387.13401229276	8562.5
3389.06159898426	8620.25
3390.9886792848	8606.5
3392.91525339872	8635
3394.84132152998	8639.5
3396.76688388213	8647.25
3398.69194065833	8639.25
3400.61649206133	8698.5
3402.54053829348	8709.25
3404.46407955672	8767.25
3406.3871160526	8796.25
3408.30964798225	8792.25
3410.23167554639	8812.25
3412.15319894535	8879
3414.07421837904	8839.25
3415.99473404695	8874
3417.91474614817	8941.25
3419.83425488136	8972.5
3421.75326044479	8981.25
3423.67176303631	8910.25
3425.58976285332	8954.25
3427.50726009282	8986.5
3429.42425495143	9009.75
3431.34074762528	8982.25
3433.25673831012	8938.5
3435.17222720127	8990.75
3437.08721449362	9021.25
3439.00170038164	8946.75
3440.91568505936	8982.25
3442.82916872039	8964.75
3444.74215155791	9067.5
3446.65463376468	9092
3448.566615533	9095
3450.47809705476	9018
3452.3890785214	9038.5
3454.29956012393	9137
3456.20954205293	9099.75
3458.11902449853	9161.75
3460.02800765041	9122.25
3461.93649169784	9069
3463.84447682962	9087.75
3465.75196323412	9126.5
3467.65895109925	9152.5
3469.56544061249	9170.5
3471.47143196086	9133.75
3473.37692533093	9153.25
3475.28192090884	9161.25
3477.18641888026	9223.75
3479.09041943039	9185.75
3480.99392274402	9160.75
3482.89692900545	9215.5
3484.79943839853	9219.25
3486.70145110666	9216.75
3488.60296731277	9261.5
3490.50398719933	9203.25
3492.40451094836	9179.75
3494.30453874141	9182.5
3496.20407075956	9247
3498.10310718342	9251
3500.00164819315	9243.5