201.866871357051	29635
204.754250281454	29719
207.640596790938	29564
210.525911876299	29671
213.410196525689	29697
216.293451724508	29702
219.175678455485	29581
222.056877698662	29567
224.937050431388	29489
227.816197628363	29981
230.694320261602	29995
233.571419300504	29709
236.447495711764	29932
239.322550459507	30002
242.196584505182	30173
245.069598807626	30163
247.941594323078	30062
250.812572005154	30057
253.682532804884	30170
256.551477670699	30239
259.419407548456	30128
262.286323381439	30088
265.152226110364	30104
268.017116673389	30084
270.880996006115	30214
273.743865041622	30064
276.605724710436	30278
279.466575940562	30195
282.326419657496	30149
285.1852567842	30181
288.043088241157	30236
290.899914946349	30176
293.75573781526	30300
296.610557760898	30184
299.464375693817	30342
302.317192522078	30058
305.169009151297	29890
308.019826484655	29949
310.86964542287	30124
313.718466864233	29870
316.566291704614	29920
319.413120837457	29750
322.258955153804	29762
325.103795542291	29537
327.947642889128	29558
330.79049807819	29537
333.632361990927	29561
336.473235506444	29365
339.31311950145	29349
342.152014850322	29636
344.989922425062	29791
347.826843095354	29720
350.662777728528	29673
353.497727189577	29636
356.331692341195	29812
359.164674043732	29719
361.996673155267	29647
364.827690531536	29765
367.65772702602	29829
370.486783489887	29630
373.314860772047	29771
376.14195971912	29533
378.968081175466	29398
381.793225983212	29287
384.617394982201	29327
387.44058901005	29335
390.262808902131	28947
393.08405549161	28934
395.904329609395	29183
398.723632084213	29084
401.541963742569	28757
404.359325408779	28817
407.175717904938	28870
409.991142050982	29056
412.805598664665	28898
415.619088561551	28963
418.43161255505	28972
421.243171456415	28758
424.053766074758	28919
426.863397217017	28839
429.672065688024	28826
432.479772290455	28785
435.286517824879	28914
438.092303089736	28930
440.897128881359	28741
443.70099599399	28727
446.503905219761	28529
449.305857348711	28251
452.106853168796	28331
454.906893465919	28280
457.705979023885	28041
460.504110624439	28239
463.3012890473	27902
466.097515070087	27912
468.892789468424	27687
471.687113015869	27990
474.48048648395	27528
477.272910642198	27642
480.064386258109	27290
482.854914097159	27344
485.644494922839	27392
488.433129496636	27505
491.220818578047	27261
494.007562924584	27353
496.793363291785	27560
499.578220433217	27438
502.362135100473	27439
505.145108043209	27529
507.927140009098	27386
510.708231743909	27255
513.488383991433	27326
516.267597493556	27444
519.04587299022	27139
521.82321121946	27083
524.599612917398	27049
527.375078818233	27007
530.149609654287	26575
532.923206155967	26904
535.695869051804	26629
538.467599068448	26452
541.238396930665	26185
544.008263361364	26235
546.777199081578	25964
549.545204810493	26163
552.312281265436	26058
555.078429161898	26003
557.843649213533	26067
560.607942132156	25714
563.371308627753	25702
566.133749408495	25771
568.895265180756	26107
571.655856649064	25738
574.415524516189	25799
577.174269483075	25612
579.932092248884	25928
582.688993510994	25545
585.444973965023	25453
588.200034304795	25730
590.95417522237	25553
593.70739740807	25321
596.459701550433	25533
599.21108833628	25271
601.961558450668	25238
604.711112576933	24956
607.459751396673	24859
610.207475589748	24737
612.954285834338	24918
615.700182806879	24405
618.445167182101	24636
621.189239633055	24219
623.932400831087	24292
626.674651445839	24061
629.415992145303	23933
632.156423595745	23886
634.895946461813	23618
637.634561406449	23727
640.37226909096	23840
643.109070174978	23662
645.844965316508	23708
648.579955171888	23686
651.314040395846	23469
654.047221641456	23586
656.779499560176	23420
659.510874801828	23297
662.241348014642	23413
664.97091984524	23409
667.699590938606	23435
670.427361938164	23189
673.15423348573	23070
675.880206221526	23175
678.605280784206	23316
681.329457810829	23174
684.05273793692	23135
686.775121796389	23043
689.49661002163	22767
692.217203243454	22827
694.936902091144	22564
697.655707192425	22693
700.373619173493	22451
703.09063865901	22198
705.806766272093	22179
708.522002634378	22120
711.236348365946	22206
713.94980408538	22119
716.662370409762	21786
719.374047954676	21979
722.08483733419	21754
724.794739160909	21584
727.503754045949	21666
730.21188259892	21720
732.919125427998	21576
735.625483139855	21682
738.330956339723	21401
741.035545631374	21572
743.739251617106	21656
746.44207489779	21493
749.144016072852	21560
751.845075740272	21373
754.545254496603	21557
757.244552936976	21453
759.94297165508	21257
762.640511243222	21341
765.337172292249	21383
768.032955391649	21231
770.727861129482	21389
773.421890092413	21116
776.11504286572	21233
778.807320033298	21011
781.49872217765	20774
784.18924987991	20722
786.87890371984	20594
789.567684275826	20470
792.255592124908	20744
794.94262784276	20322
797.628792003703	20339
800.314085180715	20118
802.998507945427	20318
805.682060868145	19989
808.364744517821	20233
811.046559462105	20201
813.727506267311	19962
816.407585498422	19929
819.08679771913	19976
821.765143491822	19789
824.442623377563	19951
827.119237936127	20087
829.794987726003	19834
832.469873304377	19935
835.143895227167	19695
837.817054048985	19752
840.489350323205	19789
843.160784601892	19822
845.831357435894	19853
848.501069374739	19594
851.169920966753	19474
853.837912758987	19430
856.505045297232	19484
859.171319126071	19433
861.836734788823	19392
864.501292827579	19290
867.164993783208	19109
869.827838195361	19184
872.489826602454	19098
875.150959541701	19247
877.811237549104	19098
880.470661159456	19191
883.129230906357	18900
885.786947322205	18777
888.443810938206	18969
891.099822284385	18676
893.754981889586	18699
896.409290281452	18607
899.062747986485	18586
901.715355529999	18514
904.367113436154	18587
907.01802222793	18657
909.668082427172	18482
912.317294554574	18439
914.965659129659	18584
917.613176670835	18272
920.259847695364	18494
922.90567271936	18462
925.550652257825	18359
928.194786824621	18329
930.838076932512	18427
933.480523093109	18183
936.122125816953	18212
938.762885613447	18302
941.402802990899	18168
944.041878456523	18329
946.680112516428	18195
949.31750567563	18293
951.954058438081	18219
954.589771306633	18259
957.224644783048	17976
959.858679368044	18006
962.491875561238	17887
965.12423386121	17981
967.75575476545	17977
970.386438770423	17819
973.016286371501	17767
975.645298063046	17641
978.273474338355	17629
980.900815689674	17556
983.527322608243	17489
986.152995584245	17605
988.777835106834	17583
991.401841664148	17577
994.025015743307	17387
996.647357830407	17286
999.268868410534	17429
1001.88954796777	17105
1004.50939698518	17370
1007.12841594484	17498
1009.74660532783	17139
1012.36396561423	17345
1014.98049728314	17265
1017.59620081267	17238
1020.21107667995	17216
1022.82512536112	17327
1025.43834733138	17296
1028.05074306493	17455
1030.66231303501	17439
1033.27305771392	17355
1035.88297757299	17230
1038.49207308257	17227
1041.10034471211	17046
1043.70779293008	17321
1046.31441820402	17061
1048.92022100052	17107
1051.52520178525	17174
1054.12936102295	17263
1056.73269917742	17245
1059.33521671154	17334
1061.93691408729	17374
1064.53779176571	17242
1067.13785020694	17073
1069.73708987022	16975
1072.33551121386	17032
1074.93311469528	16634
1077.52990077103	16740
1080.12586989674	16642
1082.72102252714	16703
1085.31535911611	16730
1087.90888011663	16811
1090.50158598078	16673
1093.09347715979	16614
1095.68455410403	16446
1098.27481726296	16426
1100.86426708523	16516
1103.45290401857	16544
1106.04072850991	16600
1108.6277410053	16422
1111.21394194993	16487
1113.79933178816	16538
1116.3839109635	16454
1118.96767991862	16555
1121.55063909539	16542
1124.13278893477	16825
1126.71412987696	16671
1129.29466236132	16871
1131.87438682637	16716
1134.45330370982	16611
1137.03141344858	16526
1139.60871647872	16319
1142.18521323554	16317
1144.7609041535	16317
1147.33578966629	16506
1149.90987020676	16261
1152.48314620702	16357
1155.05561809835	16310
1157.62728631125	16151
1160.19815127545	16412
1162.76821341988	16408
1165.33747317271	16436
1167.90593096133	16262
1170.47358721235	16256
1173.04044235163	16152
1175.60649680425	16080
1178.17175099454	15962
1180.73620534607	16094
1183.29986028165	16012
1185.86271622336	15955
1188.42477359249	15905
1190.98603280964	15694
1193.54649429462	15698
1196.10615846653	15714
1198.66502574372	15789
1201.22309654385	15659
1203.78037128378	15515
1206.33685037971	15595
1208.89253424709	15842
1211.44742330063	15627
1214.00151795438	15556
1216.55481862163	15552
1219.10732571497	15521
1221.65903964631	15386
1224.20996082683	15473
1226.760089667	15358
1229.30942657664	15624
1231.85797196483	15526
1234.40572623998	15571
1236.95268980981	15580
1239.49886308136	15601
1242.04424646098	15291
1244.58884035435	15654
1247.13264516647	15596
1249.67566130166	15640
1252.21788916358	15448
1254.75932915524	15815
1257.29998167896	15803
1259.83984713639	15653
1262.37892592857	15563
1264.91721845586	15669
1267.45472511795	15747
1269.9914463139	15725
1272.52738244213	15793
1275.0625339004	15714
1277.59690108587	15833
1280.130484395	15813
1282.66328422367	15608
1285.19530096712	15863
1287.72653501993	15956
1290.25698677608	15875
1292.78665662894	16261
1295.31554497125	16173
1297.8436521951	16076
1300.37097869203	15755
1302.89752485292	15650
1305.42329106805	15558
1307.94827772713	15652
1310.47248521921	15417
1312.99591393279	15799
1315.51856425575	15500
1318.04043657536	15532
1320.56153127836	15602
1323.08184875083	15615
1325.6013893783	15504
1328.12015354572	15648
1330.63814163744	15765
1333.15535403727	15751
1335.67179112839	15868
1338.18745329347	15843
1340.70234091454	15841
1343.21645437314	15816
1345.72979405019	15859
1348.24236032607	15790
1350.75415358059	16121
1353.26517419303	15729
1355.7754225421	15947
1358.28489900594	15993
1360.79360396218	16088
1363.30153778787	16155
1365.80870085955	15908
1368.31509355319	15781
1370.82071624424	15815
1373.32556930762	15923
1375.8296531177	15664
1378.33296804832	15805
1380.83551447282	15748
1383.33729276399	15591
1385.83830329408	15396
1388.33854643489	15451
1390.83802255762	15656
1393.33673203301	15352
1395.83467523128	15362
1398.33185252211	15204
1400.82826427471	15342
1403.32391085777	15228
1405.81879263947	15302
1408.31290998752	15322
1410.80626326908	15158
1413.29885285087	15336
1415.79067909909	15462
1418.28174237944	15353
1420.77204305717	15335
1423.26158149702	15271
1425.75035806323	15590
1428.2383731196	15350
1430.72562702942	15208
1433.21212015554	15632
1435.69785286028	15694
1438.18282550555	15898
1440.66703845275	15694
1443.15049206284	15758
1445.6331866963	15511
1448.11512271316	15702
1450.59630047298	15750
1453.07672033486	15714
1455.55638265748	15802
1458.03528779902	15785
1460.51343611725	15802
1462.99082796946	15736
1465.46746371252	15810
1467.94334370285	15636
1470.41846829642	15576
1472.89283784878	15445
1475.36645271503	15595
1477.83931324983	15468
1480.31141980743	15593
1482.78277274164	15479
1485.25337240583	15360
1487.72321915297	15155
1490.19231333557	15305
1492.66065530578	15282
1495.12824541525	15098
1497.5950840153	15116
1500.06117145678	15055
1502.52650809014	15184
1504.99109426543	15132
1507.45493033227	15002
1509.91801663992	15032
1512.38035353717	15118
1514.84194137248	15133
1517.30278049386	15224
1519.76287124894	15211
1522.22221398497	14966
1524.68080904876	15080
1527.13865678681	14790
1529.59575754514	15064
1532.05211166945	15151
1534.50771950503	15027
1536.96258139678	14999
1539.41669768924	15077
1541.87006872656	15075
1544.32269485252	15135
1546.77457641051	15159
1549.22571374357	15258
1551.67610719434	15249
1554.12575710513	15172
1556.57466381785	15311
1559.02282767408	15087
1561.47024901499	15293
1563.91692818144	15556
1566.3628655139	15343
1568.80806135249	15355
1571.252516037	15395
1573.6962299068	15620
1576.13920330099	15318
1578.58143655828	15545
1581.02293001704	15577
1583.46368401528	15416
1585.90369889071	15619
1588.34297498065	15498
1590.7815126221	15533
1593.21931215173	15501
1595.65637390588	15351
1598.09269822053	15279
1600.52828543135	15382
1602.96313587367	15430
1605.3972498825	15215
1607.83062779252	15222
1610.26326993808	15269
1612.69517665322	15271
1615.12634827165	15331
1617.55678512676	15140
1619.98648755163	14981
1622.41545587902	15066
1624.84369044138	14949
1627.27119157085	15200
1629.69795959924	15142
1632.12399485808	15079
1634.54929767859	14862
1636.97386839165	15016
1639.39770732789	15011
1641.8208148176	15107
1644.24319119078	14982
1646.66483677715	15059
1649.0857519061	15133
1651.50593690677	15095
1653.92539210795	15296
1656.3441178382	15030
1658.76211442575	15093
1661.17938219855	15184
1663.59592148428	15199
1666.01173261032	15136
1668.42681590377	15274
1670.84117169145	15337
1673.25480029991	15117
1675.66770205541	15131
1678.07987728393	15322
1680.49132631119	15425
1682.90204946263	15356
1685.31204706342	15245
1687.72131943846	15385
1690.1298669124	15398
1692.53768980957	15562
1694.94478845411	15347
1697.35116316982	15284
1699.75681428031	15251
1702.16174210887	15269
1704.56594697858	15182
1706.96942921222	15354
1709.37218913235	15308
1711.77422706125	15295
1714.17554332098	15150
1716.5761382333	15340
1718.97601211977	15039
1721.37516530169	15193
1723.77359810006	15035
1726.17131083572	14970
1728.56830382922	14968
1730.96457740087	15170
1733.36013187075	14928
1735.75496755868	15070
1738.14908478428	14944
1740.54248386689	14866
1742.93516512565	14814
1745.32712887946	14919
1747.71837544697	14801
1750.10890514662	14850
1752.49871829661	14619
1754.88781521492	14883
1757.27619621929	14797
1759.66386162726	14931
1762.05081175612	14858
1764.43704692297	14739
1766.82256744465	14630
1769.20737363782	14769
1771.59146581887	14573
1773.97484430405	14827
1776.35750940932	14770
1778.73946145048	14820
1781.12070074309	14790
1783.50122760249	14814
1785.88104234385	14858
1788.26014528209	14851
1790.63853673196	14858
1793.01621700796	14808
1795.39318642443	14972
1797.76944529549	14875
1800.14499393503	14897
1802.51983265681	14767
1804.8939617743	14823
1807.26738160085	14889
1809.64009244957	14811
1812.01209463339	14685
1814.38338846504	14899
1816.75397425706	14615
1819.12385232181	14814
1821.49302297142	14713
1823.86148651789	14651
1826.22924327299	14495
1828.59629354831	14742
1830.96263765526	14651
1833.32827590507	14547
1835.69320860877	14723
1838.05743607724	14517
1840.42095862113	14525
1842.78377655097	14491
1845.14589017707	14533
1847.50729980956	14452
1849.86800575843	14446
1852.22800833346	14280
1854.58730784427	14328
1856.94590460032	14491
1859.30379891087	14431
1861.66099108503	14496
1864.01748143175	14533
1866.37327025978	14475
1868.72835787773	14475
1871.08274459403	14461
1873.43643071697	14487
1875.78941655464	14525
1878.14170241498	14451
1880.4932886058	14541
1882.84417543469	14553
1885.19436320915	14458
1887.54385223646	14402
1889.89264282378	14697
1892.24073527809	14634
1894.58812990625	14617
1896.93482701493	14769
1899.28082691067	14547
1901.62612989984	14832
1903.97073628868	14745
1906.31464638326	14706
1908.6578604895	14695
1911.00037891321	14800
1913.34220196	14842
1915.68332993537	14717
1918.02376314468	14914
1920.36350189311	14681
1922.70254648573	14665
1925.04089722744	14687
1927.37855442303	14690
1929.71551837715	14694
1932.05178939426	14706
1934.38736777876	14608
1936.72225383484	14426
1939.0564478666	14743
1941.38995017799	14375
1943.72276107283	14637
1946.05488085479	14532
1948.38630982744	14366
1950.71704829419	14441
1953.04709655832	14495
1955.376454923	14310
1957.70512369126	14121
1960.03310316599	14263
1962.36039364999	14163
1964.68699544589	14103
1967.01290885622	14450
1969.33813418338	14200
1971.66267172965	14326
1973.98652179718	14215
1976.309684688	14230
1978.63216070402	14284
1980.95395014705	14408
1983.27505331873	14132
1985.59547052063	14124
1987.9152020542	14173
1990.23424822074	14364
1992.55260932146	14081
1994.87028565746	14158
1997.18727752968	14097
1999.503585239	14296
2001.81920908618	14096
2004.13414937184	14285
2006.44840639651	14399
2008.7619804606	14498
2011.07487186442	14272
2013.38708090815	14376
2015.6986078919	14360
2018.00945311564	14391
2020.31961687923	14594
2022.62909948246	14470
2024.93790122498	14611
2027.24602240636	14483
2029.55346332604	14551
2031.86022428337	14527
2034.16630557761	14542
2036.47170750791	14545
2038.77643037331	14550
2041.08047447275	14646
2043.38384010509	14484
2045.68652756907	14548
2047.98853716335	14502
2050.28986918648	14325
2052.59052393692	14379
2054.89050171302	14257
2057.18980281306	14420
2059.4884275352	14509
2061.78637617753	14265
2064.08364903802	14257
2066.38024641457	14253
2068.67616860497	14312
2070.97141590694	14155
2073.26598861809	14365
2075.55988703595	14131
2077.85311145796	14194
2080.14566218145	14245
2082.43753950371	14212
2084.72874372188	14177
2087.01927513307	14098
2089.30913403428	14169
2091.59832072241	14201
2093.88683549429	14070
2096.17467864666	13987
2098.46185047619	14166
2100.74835127944	14216
2103.03418135292	14109
2105.31934099303	13886
2107.6038304961	14063
2109.88765015838	14201
2112.17080027602	14011
2114.45328114513	14077
2116.7350930617	13984
2119.01623632165	14096
2121.29671122085	14116
2123.57651805505	14045
2125.85565711996	14030
2128.13412871117	14060
2130.41193312424	14210
2132.68907065462	13965
2134.96554159771	14129
2137.24134624881	14126
2139.51648490317	14193
2141.79095785593	14218
2144.0647654022	14100
2146.33790783698	14148
2148.61038545524	14109
2150.88219855182	14388
2153.15334742154	14189
2155.42383235911	14176
2157.6936536592	14187
2159.9628116164	14141
2162.23130652522	14062
2164.49913868011	14234
2166.76630837544	14018
2169.03281590552	14063
2171.2986615646	14214
2173.56384564685	14169
2175.82836844637	14047
2178.0922302572	14064
2180.35543137332	14173
2182.61797208862	14034
2184.87985269695	14060
2187.14107349208	14066
2189.40163476773	14074
2191.66153681753	14043
2193.92077993507	13920
2196.17936441386	13840
2198.43729054735	13904
2200.69455862894	14006
2202.95116895194	13950
2205.20712180962	13943
2207.46241749519	13807
2209.71705630179	13998
2211.97103852248	13836
2214.2243644503	13835
2216.47703437819	13940
2218.72904859905	13769
2220.98040740571	13774
2223.23111109095	13807
2225.4811599475	13688
2227.73055426799	13747
2229.97929434504	13580
2232.22738047118	13653
2234.47481293889	13544
2236.72159204058	13725
2238.96771806864	13714
2241.21319131536	13577
2243.458012073	13549
2245.70218063374	13649
2247.94569728973	13713
2250.18856233304	13729
2252.4307760557	13548
2254.67233874967	13636
2256.91325070687	13537
2259.15351221915	13805
2261.39312357831	13522
2263.63208507611	13589
2265.87039700422	13619
2268.1080596543	13672
2270.34507331792	13399
2272.5814382866	13551
2274.81715485183	13600
2277.05222330502	13519
2279.28664393755	13575
2281.52041704072	13561
2283.75354290581	13603
2285.98602182401	13544
2288.21785408648	13447
2290.44903998434	13690
2292.67957980862	13504
2294.90947385033	13292
2297.1387224004	13406
2299.36732574975	13420
2301.59528418921	13497
2303.82259800958	13424
2306.04926750158	13366
2308.27529295593	13344
2310.50067466325	13404
2312.72541291412	13433
2314.9495079991	13452
2317.17296020866	13273
2319.39576983323	13241
2321.61793716322	13341
2323.83946248894	13332
2326.06034610069	13253
2328.28058828871	13246
2330.50018934317	13313
2332.7191495542	13364
2334.93746921192	13300
2337.15514860633	13173
2339.37218802743	13340
2341.58858776516	13174
2343.80434810941	13160
2346.01946935001	13138
2348.23395177675	13195
2350.44779567939	13179
2352.66100134759	13111
2354.87356907101	13140
2357.08549913925	12808
2359.29679184185	13017
2361.50744746829	12986
2363.71746630804	13048
2365.92684865048	12967
2368.13559478499	12851
2370.34370500083	12964
2372.55117958727	12886
2374.75801883352	12832
2376.96422302874	12793
2379.16979246202	12769
2381.37472742243	12698
2383.57902819898	12794
2385.78269508063	12687
2387.98572835629	12732
2390.18812831482	12641
2392.38989524505	12726
2394.59102943573	12763
2396.79153117559	12639
2398.9914007533	12725
2401.19063845748	12529
2403.38924457672	12510
2405.58721939951	12603
2407.78456321435	12421
2409.98127630966	12472
2412.17735897382	12486
2414.37281149517	12435
2416.56763416198	12493
2418.76182726249	12476
2420.95539108487	12353
2423.14832591726	12378
2425.34063204776	12269
2427.53230976439	12211
2429.72335935513	12429
2431.91378110795	12379
2434.10357531071	12228
2436.29274225125	12257
2438.48128221739	12235
2440.66919549683	12219
2442.8564823773	12058
2445.04314314641	12210
2447.22917809176	12032
2449.4145875009	12047
2451.59937166131	12060
2453.78353086044	11981
2455.96706538568	12000
2458.14997552436	12050
2460.33226156379	12028
2462.51392379119	11980
2464.69496249376	11887
2466.87537795862	11904
2469.05517047288	11805
2471.23434032357	11874
2473.41288779767	11736
2475.59081318211	11728
2477.76811676378	11787
2479.9447988295	11594
2482.12085966605	11714
2484.29629956016	11734
2486.4711187985	11684
2488.64531766769	11684
2490.8188964543	11636
2492.99185544484	11461
2495.16419492579	11551
2497.33591518353	11512
2499.50701650444	11500
2501.67749917482	11627
2503.84736348091	11500
2506.01660970891	11469
2508.18523814496	11408
2510.35324907514	11557
2512.52064278551	11533
2514.68741956201	11524
2516.85357969058	11618
2519.01912345709	11517
2521.18405114735	11357
2523.34836304711	11376
2525.51205944208	11431
2527.6751406179	11462
2529.83760686016	11468
2531.99945845439	11473
2534.16069568606	11388
2536.3213188406	11516
2538.48132820336	11411
2540.64072405965	11335
2542.79950669471	11409
2544.95767639373	11413
2547.11523344184	11418
2549.27217812411	11302
2551.42851072555	11371
2553.58423153111	11282
2555.73934082569	11183
2557.89383889412	11274
2560.04772602118	11220
2562.20100249158	11216
2564.35366858996	11117
2566.50572460093	11061
2568.65717080901	10864
2570.80800749867	11093
2572.95823495433	11006
2575.10785346031	10940
2577.25686330093	11054
2579.40526476038	10796
2581.55305812282	10912
2583.70024367237	10662
2585.84682169303	10865
2587.99279246879	10790
2590.13815628354	10798
2592.28291342112	10790
2594.42706416531	10739
2596.5706087998	10689
2598.71354760826	10905
2600.85588087425	10773
2602.99760888127	10723
2605.13873191278	10735
2607.27925025214	10639
2609.41916418269	10600
2611.55847398764	10716
2613.69717995017	10633
2615.83528235339	10644
2617.97278148034	10648
2620.10967761398	10604
2622.2459710372	10715
2624.38166203284	10629
2626.51675088365	10623
2628.65123787231	10560
2630.78512328145	10676
2632.9184073936	10433
2635.05109049124	10548
2637.18317285676	10563
2639.31465477248	10643
2641.44553652067	10654
2643.5758183835	10577
2645.70550064309	10582
2647.83458358144	10471
2649.96306748053	10672
2652.09095262223	10625
2654.21823928836	10666
2656.34492776063	10415
2658.47101832071	10434
2660.59651125015	10478
2662.72140683047	10450
2664.84570534309	10576
2666.96940706934	10301
2669.0925122905	10289
2671.21502128773	10429
2673.33693434215	10421
2675.45825173479	10358
2677.57897374658	10494
2679.69910065839	10528
2681.818632751	10249
2683.93757030511	10384
2686.05591360133	10406
2688.17366292021	10333
2690.29081854218	10349
2692.40738074762	10266
2694.52334981681	10326
2696.63872602995	10363
2698.75350966713	10380
2700.86770100841	10335
2702.98130033371	10352
2705.09430792289	10215
2707.20672405571	10407
2709.31854901185	10309
2711.42978307091	10362
2713.54042651238	10256
2715.65047961567	10296
2717.7599426601	10412
2719.86881592491	10325
2721.97709968924	10460
2724.08479423213	10379
2726.19189983255	10335
2728.29841676934	10303
2730.4043453213	10198
2732.5096857671	10258
2734.61443838532	10209
2736.71860345444	10059
2738.82218125286	10110
2740.92517205889	10218
2743.02757615072	10132
2745.12939380646	9992
2747.23062530411	10135
2749.33127092159	10211
2751.4313309367	10114
2753.53080562716	10210
2755.62969527058	10127
2757.72800014448	9986
2759.82572052625	10072
2761.92285669323	9944
2764.0194089226	10017
2766.11537749147	10029
2768.21076267686	10027
2770.30556475566	10007
2772.39978400465	9846
2774.49342070054	9960
2776.58647511991	10111
2778.67894753923	9910
2780.77083823487	9954
2782.8621474831	9910
2784.95287556007	9966
2787.04302274184	9849
2789.13258930433	9921
2791.22157552338	9816
2793.30998167471	9771
2795.39780803392	9853
2797.4850548765	10008
2799.57172247786	9812
2801.65781111324	9829
2803.74332105781	9775
2805.82825258661	9830
2807.91260597457	9941
2809.9963814965	9719
2812.07957942711	9798
2814.16220004096	9766
2816.24424361252	9784
2818.32571041614	9895
2820.40660072604	9856
2822.48691481631	9892
2824.56665296098	10008
2826.64581543388	9970
2828.72440250876	10185
2830.80241445925	10139
2832.87985155885	10422
2834.95671408093	10792
2837.03300229875	11043
2839.10871648544	11663
2841.18385691399	12250
2843.25842385729	12767
2845.33241758808	13214
2847.40583837898	13341
2849.4786865025	13203
2851.550962231	12903
2853.6226658367	12527
2855.69379759173	12307
2857.76435776806	12075
2859.83434663753	11821
2861.90376447184	11837
2863.97261154259	11633
2866.0408881212	11524
2868.10859447901	11464
2870.17573088717	11583
2872.24229761673	11775
2874.30829493859	11966
2876.37372312352	12552
2878.43858244215	13588
2880.50287316496	14486
2882.56659556231	14120
2884.62974990439	13306
2886.69233646129	12359
2888.75435550293	11782
2890.81580729909	11722
2892.87669211941	11631
2894.93701023339	11479
2896.99676191039	11480
2899.05594741961	11457
2901.1145670301	11297
2903.1726210108	11142
2905.23010963045	11222
2907.28703315768	10973
2909.34339186096	10926
2911.39918600861	10789
2913.45441586879	10728
2915.50908170952	10548
2917.56318379867	10567
2919.61672240395	10557
2921.66969779291	10606
2923.72211023295	10501
2925.77395999134	10417
2927.82524733515	10575
2929.87597253132	10503
2931.92613584663	10391
2933.97573754769	10361
2936.02477790097	10145
2938.07325717276	9983
2940.1211756292	10086
2942.16853353626	9748
2944.21533115976	9816
2946.26156876536	9636
2948.30724661853	9615
2950.3523649846	9640
2952.39692412872	9531
2954.44092431587	9485
2956.48436581089	9398
2958.52724887843	9370
2960.56957378296	9404
2962.6113407888	9375
2964.65255016011	9305
2966.69320216083	9440
2968.73329705479	9312
2970.77283510559	9217
2972.81181657671	9405
2974.8502417314	9445
2976.88811083279	9369
2978.92542414378	9296
2980.96218192713	9384
2982.99838444541	9387
2985.034031961	9284
2987.06912473612	9373
2989.1036630328	9275
2991.13764711288	9346
2993.17107723804	9206
2995.20395366974	9427
2997.23627666931	9270
2999.26804649782	9347
3001.29926341624	9417
3003.32992768528	9342
3005.3600395655	9348
3007.38959931726	9576
3009.41860720076	9347
3011.44706347595	9485
3013.47496840263	9313
3015.50232224041	9407
3017.5291252487	9347
3019.5553776867	9269
3021.58107981344	9372
3023.60623188773	9458
3025.63083416822	9345
3027.65488691331	9554
3029.67839038125	9310
3031.70134483007	9314
3033.72375051759	9507
3035.74560770144	9351
3037.76691663907	9371
3039.78767758768	9397
3041.80789080431	9429
3043.82755654577	9454
3045.84667506867	9349
3047.8652466294	9398
3049.88327148418	9329
3051.90074988899	9379
3053.91768209961	9374
3055.9340683716	9347
3057.94990896033	9401
3059.96520412095	9389
3061.97995410838	9312
3063.99415917734	9441
3066.00781958234	9401
3068.02093557766	9294
3070.03350741738	9278
3072.04553535535	9379
3074.05701964521	9307
3076.06796054036	9271
3078.078358294	9132
3080.08821315912	9178
3082.09752538846	9199
3084.10629523454	9096
3086.11452294967	9237
3088.12220878592	9149
3090.12935299515	9097
3092.13595582898	9187
3094.1420175388	9212
3096.14753837579	9153
3098.15251859088	9088
3100.15695843477	9108
3102.16085815793	9122
3104.16421801061	9028
3106.16703824282	9055
3108.16931910432	9176
3110.17106084464	9157
3112.17226371308	9152
3114.17292795872	9116
3116.17305383034	9270
3118.17264157657	9077
3120.17169144571	9159
3122.17020368587	9093
3124.16817854492	8968
3126.16561627044	9046
3128.16251710982	9163
3130.15888131017	9124
3132.15470911837	9256
3134.15000078104	9075
3136.14475654455	9166
3138.13897665502	9143
3140.13266135835	9126
3142.12581090014	9066
3144.11842552577	9071
3146.11050548036	9310
3148.10205100875	9064
3150.09306235557	9132
3152.08353976515	9145
3154.07348348158	9005
3156.06289374869	9096
3158.05177081006	9002
3160.04011490899	9063
3162.02792628852	9103
3164.01520519145	9005
3166.00195186029	9056
3167.98816653728	8980
3169.97384946442	9075
3171.95900088344	9092
3173.94362103577	9082
3175.92771016259	9013
3177.91126850484	9163
3179.89429630312	8951
3181.87679379782	8999
3183.85876122903	9136
3185.84019883657	9025
3187.82110685997	9016
3189.80148553851	9035
3191.78133511116	9132
3193.76065581664	9086
3195.73944789337	9036
3197.7177115795	8949
3199.6954471129	8939
3201.67265473114	8993
3203.64933467153	8853
3205.62548717107	9027
3207.60111246648	8946
3209.57621079421	8839
3211.55078239041	8957
3213.52482749093	8967
3215.49834633133	8988
3217.4713391469	8932
3219.44380617262	8930
3221.41574764317	8978
3223.38716379296	8950
3225.35805485607	9166
3227.32842106631	8952
3229.29826265718	9116
3231.26757986187	9051
3233.2363729133	9069
3235.20464204405	9053
3237.17238748643	9063
3239.13960947243	8989
3241.10630823374	9096
3243.07248400174	8984
3245.03813700748	8979
3247.00326748177	8995
3248.96787565503	9011
3250.93196175742	9043
3252.89552601877	8987
3254.8585686686	9065
3256.82108993612	9045
3258.78309005022	9098
3260.74456923948	8987
3262.70552773215	8975
3264.66596575617	8982
3266.62588353916	8928
3268.58528130843	8945
3270.54415929094	8863
3272.50251771336	8952
3274.46035680201	8954
3276.4176767829	8983
3278.37447788171	8887
3280.33076032379	8875
3282.28652433416	8853
3284.24177013751	8952
3286.1964979582	9018
3288.15070802027	8922
3290.10440054741	8802
3292.05757576298	8843
3294.01023389001	8803
3295.96237515119	8891
3297.91399976887	8958
3299.86510796506	8903
3301.81569996142	8902
3303.76577597932	8893
3305.7153362397	8891
3307.66438096324	8836
3309.61291037024	8763
3311.56092468064	8720
3313.50842411404	8756
3315.45540888971	8812
3317.40187922656	8729
3319.34783534315	8687
3321.29327745768	8702
3323.23820578801	8633
3325.18262055164	8697
3327.1265219657	8660
3329.06991024699	8700
3331.01278561194	8676
3332.95514827662	8703
3334.89699845674	8710
3336.83833636766	8649
3338.77916222434	8504
3340.71947624143	8604
3342.65927863317	8621
3344.59856961346	8718
3346.53734939584	8600
3348.47561819344	8643
3350.41337621906	8522
3352.35062368513	8584
3354.28736080368	8540
3356.22358778637	8684
3358.15930484452	8491
3360.09451218904	8672
3362.02921003047	8617
3363.96339857898	8588
3365.89707804436	8548
3367.83024863602	8566
3369.76291056299	8593
3371.69506403389	8515
3373.62670925699	8512
3375.55784644016	8535
3377.4884757909	8513
3379.41859751629	8494
3381.34821182305	8457
3383.27731891749	8572
3385.20591900555	8566
3387.13401229276	8550
3389.06159898426	8453
3390.9886792848	8588
3392.91525339872	8584
3394.84132152998	8594
3396.76688388213	8502
3398.69194065833	8483
3400.61649206133	8558
3402.54053829348	8665
3404.46407955672	8475
3406.3871160526	8509
3408.30964798225	8576
3410.23167554639	8509
3412.15319894535	8625
3414.07421837904	8431
3415.99473404695	8564
3417.91474614817	8492
3419.83425488136	8509
3421.75326044479	8472
3423.67176303631	8416
3425.58976285332	8520
3427.50726009282	8384
3429.42425495143	8375
3431.34074762528	8519
3433.25673831012	8412
3435.17222720127	8400
3437.08721449362	8337
3439.00170038164	8287
3440.91568505936	8349
3442.82916872039	8450
3444.74215155791	8394
3446.65463376468	8258
3448.566615533	8234
3450.47809705476	8249
3452.3890785214	8203
3454.29956012393	8361
3456.20954205293	8291
3458.11902449853	8216
3460.02800765041	8190
3461.93649169784	8271
3463.84447682962	8199
3465.75196323412	8156
3467.65895109925	8219
3469.56544061249	8186
3471.47143196086	8045
3473.37692533093	8185
3475.28192090884	8118
3477.18641888026	8104
3479.09041943039	8119
3480.99392274402	8143
3482.89692900545	8091
3484.79943839853	8043
3486.70145110666	8038
3488.60296731277	8096
3490.50398719933	8027
3492.40451094836	8051
3494.30453874141	8084
3496.20407075956	7999
3498.10310718342	8135
3500.00164819315	7862