201.866871357051	947.5
204.754250281454	945.75
207.640596790938	937
210.525911876299	947.25
213.410196525689	940.75
216.293451724508	942.25
219.175678455485	963
222.056877698662	954.25
224.937050431388	961
227.816197628363	941.75
230.694320261602	951.75
233.571419300504	943.5
236.447495711764	940.75
239.322550459507	944.5
242.196584505182	963.75
245.069598807626	950.75
247.941594323078	970
250.812572005154	971
253.682532804884	966.5
256.551477670699	976.75
259.419407548456	988.25
262.286323381439	991
265.152226110364	1012.75
268.017116673389	1004.25
270.880996006115	1010.75
273.743865041622	1025
276.605724710436	1011.5
279.466575940562	1017.5
282.326419657496	1019.75
285.1852567842	983.5
288.043088241157	991.5
290.899914946349	967.5
293.75573781526	969
296.610557760898	970
299.464375693817	944
302.317192522078	948.25
305.169009151297	952.25
308.019826484655	945.75
310.86964542287	945.5
313.718466864233	938
316.566291704614	939
319.413120837457	937.75
322.258955153804	932
325.103795542291	932.5
327.947642889128	932.25
330.79049807819	920.75
333.632361990927	926.25
336.473235506444	916.25
339.31311950145	929
342.152014850322	933.5
344.989922425062	949
347.826843095354	935.75
350.662777728528	941.5
353.497727189577	945
356.331692341195	923.25
359.164674043732	947.75
361.996673155267	946
364.827690531536	940.75
367.65772702602	944.75
370.486783489887	943.75
373.314860772047	944.5
376.14195971912	946
378.968081175466	934
381.793225983212	936.25
384.617394982201	949.75
387.44058901005	952
390.262808902131	940.75
393.08405549161	941.25
395.904329609395	938
398.723632084213	945.25
401.541963742569	942
404.359325408779	954.75
407.175717904938	949.25
409.991142050982	953.5
412.805598664665	945.5
415.619088561551	946.5
418.43161255505	952
421.243171456415	940
424.053766074758	949
426.863397217017	954.5
429.672065688024	942.75
432.479772290455	952.5
435.286517824879	953.25
438.092303089736	956
440.897128881359	947.25
443.70099599399	936.75
446.503905219761	960
449.305857348711	959.5
452.106853168796	957
454.906893465919	954.25
457.705979023885	944.5
460.504110624439	946.25
463.3012890473	947
466.097515070087	957.5
468.892789468424	945.75
471.687113015869	958.5
474.48048648395	943.75
477.272910642198	942.25
480.064386258109	940.75
482.854914097159	952.25
485.644494922839	954
488.433129496636	944
491.220818578047	958.5
494.007562924584	959.25
496.793363291785	947.5
499.578220433217	972.5
502.362135100473	950
505.145108043209	944.25
507.927140009098	965.75
510.708231743909	967.5
513.488383991433	967.25
516.267597493556	963.75
519.04587299022	960.25
521.82321121946	961.5
524.599612917398	965.5
527.375078818233	958.75
530.149609654287	955
532.923206155967	972
535.695869051804	953.5
538.467599068448	967.5
541.238396930665	957.75
544.008263361364	960.25
546.777199081578	948.25
549.545204810493	957.75
552.312281265436	960.75
555.078429161898	959.75
557.843649213533	956.5
560.607942132156	965.25
563.371308627753	960.5
566.133749408495	950.5
568.895265180756	969.25
571.655856649064	973.5
574.415524516189	978.5
577.174269483075	972.75
579.932092248884	969.25
582.688993510994	954.5
585.444973965023	970
588.200034304795	974.75
590.95417522237	966.25
593.70739740807	967.5
596.459701550433	977
599.21108833628	968.5
601.961558450668	958.5
604.711112576933	977.75
607.459751396673	980
610.207475589748	961.5
612.954285834338	962
615.700182806879	970.5
618.445167182101	961
621.189239633055	970.75
623.932400831087	1014.75
626.674651445839	1082.5
629.415992145303	1195.25
632.156423595745	1237.25
634.895946461813	1158.25
637.634561406449	1057.5
640.37226909096	987.5
643.109070174978	967.75
645.844965316508	963
648.579955171888	957.25
651.314040395846	954.25
654.047221641456	965.75
656.779499560176	970.25
659.510874801828	968.5
662.241348014642	967.75
664.97091984524	963.5
667.699590938606	974.75
670.427361938164	965.25
673.15423348573	954.75
675.880206221526	962
678.605280784206	962.5
681.329457810829	967
684.05273793692	970.25
686.775121796389	961.5
689.49661002163	955.25
692.217203243454	970.5
694.936902091144	984.75
697.655707192425	1009
700.373619173493	1045.5
703.09063865901	1058.25
705.806766272093	1036.5
708.522002634378	1005.75
711.236348365946	981
713.94980408538	972.75
716.662370409762	970
719.374047954676	954
722.08483733419	958
724.794739160909	959
727.503754045949	966
730.21188259892	965.5
732.919125427998	965.25
735.625483139855	961.25
738.330956339723	962.75
741.035545631374	970.5
743.739251617106	983.75
746.44207489779	970.75
749.144016072852	964
751.845075740272	969
754.545254496603	976
757.244552936976	964.75
759.94297165508	977.25
762.640511243222	979
765.337172292249	971.5
768.032955391649	966.75
770.727861129482	971
773.421890092413	978.25
776.11504286572	995.75
778.807320033298	980.75
781.49872217765	988.25
784.18924987991	990
786.87890371984	1011.25
789.567684275826	1018.5
792.255592124908	1049.5
794.94262784276	1055.25
797.628792003703	1038.25
800.314085180715	1034.75
802.998507945427	1012.5
805.682060868145	1016
808.364744517821	1021.25
811.046559462105	1030.75
813.727506267311	1034
816.407585498422	1023
819.08679771913	1035.5
821.765143491822	1044.25
824.442623377563	1033.25
827.119237936127	1048.5
829.794987726003	1044.5
832.469873304377	1054.5
835.143895227167	1039
837.817054048985	1066.25
840.489350323205	1073.75
843.160784601892	1104.25
845.831357435894	1139.25
848.501069374739	1199.5
851.169920966753	1258
853.837912758987	1326
856.505045297232	1379.5
859.171319126071	1370.25
861.836734788823	1295.25
864.501292827579	1192.5
867.164993783208	1127.5
869.827838195361	1085.25
872.489826602454	1081
875.150959541701	1068
877.811237549104	1063.25
880.470661159456	1071.5
883.129230906357	1052.25
885.786947322205	1050.5
888.443810938206	1057.75
891.099822284385	1044.75
893.754981889586	1041.75
896.409290281452	1028
899.062747986485	1023.25
901.715355529999	1022.5
904.367113436154	1009
907.01802222793	1007.5
909.668082427172	1014.5
912.317294554574	981.75
914.965659129659	995.75
917.613176670835	993
920.259847695364	990.5
922.90567271936	994
925.550652257825	973.75
928.194786824621	976
930.838076932512	988.75
933.480523093109	987.25
936.122125816953	988.75
938.762885613447	988
941.402802990899	986.25
944.041878456523	999.5
946.680112516428	997.25
949.31750567563	993
951.954058438081	1000.25
954.589771306633	996.25
957.224644783048	998
959.858679368044	984.75
962.491875561238	993.5
965.12423386121	998.25
967.75575476545	1001
970.386438770423	1009.25
973.016286371501	997.5
975.645298063046	989.75
978.273474338355	1022.75
980.900815689674	1005.75
983.527322608243	1003.75
986.152995584245	1007.5
988.777835106834	1011.5
991.401841664148	1023.25
994.025015743307	1014.25
996.647357830407	1048.5
999.268868410534	1042.25
1001.88954796777	1047.5
1004.50939698518	1034
1007.12841594484	1041
1009.74660532783	1035
1012.36396561423	1031.5
1014.98049728314	1016.75
1017.59620081267	1023.25
1020.21107667995	1038
1022.82512536112	1033.5
1025.43834733138	1039
1028.05074306493	1032.75
1030.66231303501	1032
1033.27305771392	1054.75
1035.88297757299	1032
1038.49207308257	1037.5
1041.10034471211	1033
1043.70779293008	1039
1046.31441820402	1020.5
1048.92022100052	1022.25
1051.52520178525	1020.25
1054.12936102295	1032.5
1056.73269917742	1017
1059.33521671154	1026.5
1061.93691408729	1017.75
1064.53779176571	1018
1067.13785020694	1032.75
1069.73708987022	1030.75
1072.33551121386	1039.25
1074.93311469528	1037.75
1077.52990077103	1055
1080.12586989674	1057.5
1082.72102252714	1079.25
1085.31535911611	1095.5
1087.90888011663	1122
1090.50158598078	1142.75
1093.09347715979	1175.25
1095.68455410403	1196
1098.27481726296	1180.25
1100.86426708523	1143.25
1103.45290401857	1162.25
1106.04072850991	1159.75
1108.6277410053	1151.75
1111.21394194993	1162.25
1113.79933178816	1186
1116.3839109635	1194
1118.96767991862	1184.5
1121.55063909539	1181.5
1124.13278893477	1171.5
1126.71412987696	1130.25
1129.29466236132	1123.5
1131.87438682637	1097.25
1134.45330370982	1099
1137.03141344858	1078.25
1139.60871647872	1073.5
1142.18521323554	1069.5
1144.7609041535	1061
1147.33578966629	1053.5
1149.90987020676	1057.75
1152.48314620702	1046.75
1155.05561809835	1051.5
1157.62728631125	1040.75
1160.19815127545	1062.75
1162.76821341988	1056
1165.33747317271	1073
1167.90593096133	1097.75
1170.47358721235	1087.5
1173.04044235163	1123.25
1175.60649680425	1137.5
1178.17175099454	1146
1180.73620534607	1133.75
1183.29986028165	1123
1185.86271622336	1115
1188.42477359249	1102.25
1190.98603280964	1078.75
1193.54649429462	1066.5
1196.10615846653	1054.5
1198.66502574372	1061.5
1201.22309654385	1043.25
1203.78037128378	1058.75
1206.33685037971	1035
1208.89253424709	1044
1211.44742330063	1050.75
1214.00151795438	1032.75
1216.55481862163	1050.5
1219.10732571497	1043.5
1221.65903964631	1051.5
1224.20996082683	1041
1226.760089667	1051
1229.30942657664	1061.75
1231.85797196483	1059.25
1234.40572623998	1061
1236.95268980981	1083.5
1239.49886308136	1080.25
1242.04424646098	1094.5
1244.58884035435	1078.75
1247.13264516647	1095.5
1249.67566130166	1114.5
1252.21788916358	1117.75
1254.75932915524	1133.5
1257.29998167896	1140.25
1259.83984713639	1150
1262.37892592857	1167.5
1264.91721845586	1207
1267.45472511795	1236.25
1269.9914463139	1248.75
1272.52738244213	1295
1275.0625339004	1339.5
1277.59690108587	1397.25
1280.130484395	1422.5
1282.66328422367	1456.5
1285.19530096712	1482.5
1287.72653501993	1490.75
1290.25698677608	1474.75
1292.78665662894	1454.5
1295.31554497125	1399
1297.8436521951	1363.75
1300.37097869203	1290.75
1302.89752485292	1273.5
1305.42329106805	1252.25
1307.94827772713	1241.75
1310.47248521921	1224.5
1312.99591393279	1210
1315.51856425575	1181.5
1318.04043657536	1159
1320.56153127836	1169.75
1323.08184875083	1141.25
1325.6013893783	1139
1328.12015354572	1117.5
1330.63814163744	1120.75
1333.15535403727	1129
1335.67179112839	1124.25
1338.18745329347	1116
1340.70234091454	1118
1343.21645437314	1106
1345.72979405019	1121
1348.24236032607	1113.25
1350.75415358059	1122.5
1353.26517419303	1129.25
1355.7754225421	1125.75
1358.28489900594	1126.5
1360.79360396218	1132
1363.30153778787	1139.5
1365.80870085955	1135.75
1368.31509355319	1142.75
1370.82071624424	1153.25
1373.32556930762	1157.75
1375.8296531177	1139.25
1378.33296804832	1138.75
1380.83551447282	1137.5
1383.33729276399	1137.5
1385.83830329408	1122.5
1388.33854643489	1124
1390.83802255762	1129.75
1393.33673203301	1118.75
1395.83467523128	1135.25
1398.33185252211	1126
1400.82826427471	1148.5
1403.32391085777	1139
1405.81879263947	1150.25
1408.31290998752	1178
1410.80626326908	1174.25
1413.29885285087	1187.5
1415.79067909909	1170
1418.28174237944	1169
1420.77204305717	1146.75
1423.26158149702	1132
1425.75035806323	1140.25
1428.2383731196	1134
1430.72562702942	1137.25
1433.21212015554	1152.25
1435.69785286028	1159.75
1438.18282550555	1180.5
1440.66703845275	1175.25
1443.15049206284	1186.25
1445.6331866963	1184
1448.11512271316	1200.5
1450.59630047298	1182.5
1453.07672033486	1210.5
1455.55638265748	1204
1458.03528779902	1197.5
1460.51343611725	1189.75
1462.99082796946	1204
1465.46746371252	1177
1467.94334370285	1167.25
1470.41846829642	1163.25
1472.89283784878	1155.75
1475.36645271503	1152.5
1477.83931324983	1161.25
1480.31141980743	1164.5
1482.78277274164	1162.5
1485.25337240583	1145.5
1487.72321915297	1144.25
1490.19231333557	1138.5
1492.66065530578	1120.75
1495.12824541525	1148.75
1497.5950840153	1148
1500.06117145678	1147
1502.52650809014	1142
1504.99109426543	1139.25
1507.45493033227	1142
1509.91801663992	1144
1512.38035353717	1147.25
1514.84194137248	1149.75
1517.30278049386	1149.5
1519.76287124894	1158
1522.22221398497	1145.5
1524.68080904876	1151.25
1527.13865678681	1143.5
1529.59575754514	1157.25
1532.05211166945	1162.25
1534.50771950503	1164.25
1536.96258139678	1166.25
1539.41669768924	1157.25
1541.87006872656	1152
1544.32269485252	1162.25
1546.77457641051	1164
1549.22571374357	1160.5
1551.67610719434	1172.25
1554.12575710513	1173.25
1556.57466381785	1182.75
1559.02282767408	1177
1561.47024901499	1180.5
1563.91692818144	1185.75
1566.3628655139	1195.25
1568.80806135249	1203.5
1571.252516037	1202.25
1573.6962299068	1217.25
1576.13920330099	1218
1578.58143655828	1227.75
1581.02293001704	1236.5
1583.46368401528	1224.25
1585.90369889071	1241
1588.34297498065	1238.5
1590.7815126221	1260.5
1593.21931215173	1293.5
1595.65637390588	1304
1598.09269822053	1360
1600.52828543135	1462
1602.96313587367	1595.5
1605.3972498825	1789.25
1607.83062779252	2119
1610.26326993808	2542
1612.69517665322	2876
1615.12634827165	2844
1617.55678512676	2379.75
1619.98648755163	1879.25
1622.41545587902	1561.75
1624.84369044138	1388.75
1627.27119157085	1312.25
1629.69795959924	1286.75
1632.12399485808	1256.5
1634.54929767859	1232.75
1636.97386839165	1224.5
1639.39770732789	1219.5
1641.8208148176	1230.25
1644.24319119078	1220.25
1646.66483677715	1231.25
1649.0857519061	1211.5
1651.50593690677	1216.5
1653.92539210795	1231.25
1656.3441178382	1210.75
1658.76211442575	1218.75
1661.17938219855	1214.75
1663.59592148428	1225.75
1666.01173261032	1229.75
1668.42681590377	1245
1670.84117169145	1228.75
1673.25480029991	1225.75
1675.66770205541	1245.75
1678.07987728393	1265.75
1680.49132631119	1240.5
1682.90204946263	1257.25
1685.31204706342	1276.75
1687.72131943846	1262.75
1690.1298669124	1269.25
1692.53768980957	1270.75
1694.94478845411	1282.5
1697.35116316982	1279
1699.75681428031	1299.75
1702.16174210887	1305
1704.56594697858	1353.5
1706.96942921222	1383
1709.37218913235	1468.25
1711.77422706125	1518.75
1714.17554332098	1685.75
1716.5761382333	1811.25
1718.97601211977	1938.5
1721.37516530169	2054.75
1723.77359810006	2166.25
1726.17131083572	2214
1728.56830382922	2155.5
1730.96457740087	2037
1733.36013187075	1916.75
1735.75496755868	1818.5
1738.14908478428	1697
1740.54248386689	1583.25
1742.93516512565	1519.25
1745.32712887946	1432.5
1747.71837544697	1410.5
1750.10890514662	1362.75
1752.49871829661	1330.75
1754.88781521492	1305
1757.27619621929	1295
1759.66386162726	1290.75
1762.05081175612	1300.25
1764.43704692297	1272.75
1766.82256744465	1291
1769.20737363782	1271.75
1771.59146581887	1274.5
1773.97484430405	1279
1776.35750940932	1268.75
1778.73946145048	1285
1781.12070074309	1265.75
1783.50122760249	1277
1785.88104234385	1295.25
1788.26014528209	1276.5
1790.63853673196	1285.5
1793.01621700796	1279.75
1795.39318642443	1290.5
1797.76944529549	1281.5
1800.14499393503	1285.5
1802.51983265681	1275.75
1804.8939617743	1284
1807.26738160085	1296.5
1809.64009244957	1276
1812.01209463339	1286
1814.38338846504	1311.5
1816.75397425706	1283.25
1819.12385232181	1294.75
1821.49302297142	1316.5
1823.86148651789	1292.75
1826.22924327299	1290
1828.59629354831	1300.5
1830.96263765526	1303
1833.32827590507	1291.25
1835.69320860877	1298.5
1838.05743607724	1289.25
1840.42095862113	1299.25
1842.78377655097	1296.25
1845.14589017707	1292
1847.50729980956	1284.25
1849.86800575843	1292
1852.22800833346	1307.75
1854.58730784427	1294.75
1856.94590460032	1303.5
1859.30379891087	1288
1861.66099108503	1297.5
1864.01748143175	1309
1866.37327025978	1307
1868.72835787773	1314.5
1871.08274459403	1318.25
1873.43643071697	1309.25
1875.78941655464	1327.75
1878.14170241498	1308.5
1880.4932886058	1310
1882.84417543469	1330.75
1885.19436320915	1330.75
1887.54385223646	1349.5
1889.89264282378	1322.5
1892.24073527809	1341.75
1894.58812990625	1348.75
1896.93482701493	1341.75
1899.28082691067	1366.5
1901.62612989984	1353.75
1903.97073628868	1350
1906.31464638326	1348.75
1908.6578604895	1351.5
1911.00037891321	1369
1913.34220196	1378.5
1915.68332993537	1371.5
1918.02376314468	1396
1920.36350189311	1381.75
1922.70254648573	1368
1925.04089722744	1372.5
1927.37855442303	1382
1929.71551837715	1378.75
1932.05178939426	1387.25
1934.38736777876	1386.75
1936.72225383484	1377.75
1939.0564478666	1390
1941.38995017799	1376.5
1943.72276107283	1369.25
1946.05488085479	1388.75
1948.38630982744	1379.25
1950.71704829419	1384.25
1953.04709655832	1371.25
1955.376454923	1367.75
1957.70512369126	1377.5
1960.03310316599	1385.75
1962.36039364999	1391.25
1964.68699544589	1401.5
1967.01290885622	1410.75
1969.33813418338	1419.5
1971.66267172965	1390.25
1973.98652179718	1406
1976.309684688	1405
1978.63216070402	1387
1980.95395014705	1406.75
1983.27505331873	1401.5
1985.59547052063	1411.75
1987.9152020542	1405
1990.23424822074	1411
1992.55260932146	1397.5
1994.87028565746	1421.25
1997.18727752968	1415
1999.503585239	1437.25
2001.81920908618	1448.25
2004.13414937184	1451
2006.44840639651	1453.25
2008.7619804606	1457.75
2011.07487186442	1462
2013.38708090815	1457.75
2015.6986078919	1472
2018.00945311564	1474.75
2020.31961687923	1464
2022.62909948246	1476.5
2024.93790122498	1471.75
2027.24602240636	1481.25
2029.55346332604	1461.5
2031.86022428337	1500
2034.16630557761	1495
2036.47170750791	1495
2038.77643037331	1507.75
2041.08047447275	1489
2043.38384010509	1495.75
2045.68652756907	1509.75
2047.98853716335	1502.25
2050.28986918648	1494.25
2052.59052393692	1516.75
2054.89050171302	1528.5
2057.18980281306	1521.5
2059.4884275352	1528
2061.78637617753	1525
2064.08364903802	1522.25
2066.38024641457	1516.5
2068.67616860497	1526.75
2070.97141590694	1536.5
2073.26598861809	1535.5
2075.55988703595	1546.5
2077.85311145796	1532.75
2080.14566218145	1527
2082.43753950371	1541.25
2084.72874372188	1534.75
2087.01927513307	1523
2089.30913403428	1541.25
2091.59832072241	1573
2093.88683549429	1556.25
2096.17467864666	1559.25
2098.46185047619	1566
2100.74835127944	1549.5
2103.03418135292	1572
2105.31934099303	1569.25
2107.6038304961	1602.25
2109.88765015838	1588.5
2112.17080027602	1584.25
2114.45328114513	1597.75
2116.7350930617	1589.5
2119.01623632165	1604
2121.29671122085	1603.25
2123.57651805505	1611.75
2125.85565711996	1620
2128.13412871117	1621.5
2130.41193312424	1632.5
2132.68907065462	1632.5
2134.96554159771	1620.25
2137.24134624881	1624.5
2139.51648490317	1657.5
2141.79095785593	1653.75
2144.0647654022	1650
2146.33790783698	1623.75
2148.61038545524	1649
2150.88219855182	1667.25
2153.15334742154	1653.75
2155.42383235911	1669.5
2157.6936536592	1690.25
2159.9628116164	1678.25
2162.23130652522	1685.25
2164.49913868011	1698.5
2166.76630837544	1696
2169.03281590552	1690
2171.2986615646	1707.75
2173.56384564685	1717
2175.82836844637	1687.5
2178.0922302572	1707.5
2180.35543137332	1713.75
2182.61797208862	1740.25
2184.87985269695	1729.75
2187.14107349208	1729.75
2189.40163476773	1744.5
2191.66153681753	1759
2193.92077993507	1749.5
2196.17936441386	1737.25
2198.43729054735	1745
2200.69455862894	1735.75
2202.95116895194	1767
2205.20712180962	1775.75
2207.46241749519	1768.75
2209.71705630179	1791.75
2211.97103852248	1774.5
2214.2243644503	1780
2216.47703437819	1780.75
2218.72904859905	1774.25
2220.98040740571	1781
2223.23111109095	1797.25
2225.4811599475	1795.25
2227.73055426799	1808.25
2229.97929434504	1803.5
2232.22738047118	1788.75
2234.47481293889	1806
2236.72159204058	1832.5
2238.96771806864	1826.75
2241.21319131536	1839.25
2243.458012073	1839
2245.70218063374	1845
2247.94569728973	1867.5
2250.18856233304	1874.25
2252.4307760557	1859
2254.67233874967	1854.5
2256.91325070687	1873.5
2259.15351221915	1856.25
2261.39312357831	1879.75
2263.63208507611	1879.5
2265.87039700422	1883.25
2268.1080596543	1877
2270.34507331792	1908.5
2272.5814382866	1905.25
2274.81715485183	1919.5
2277.05222330502	1939
2279.28664393755	1923.25
2281.52041704072	1943.25
2283.75354290581	1947.75
2285.98602182401	1925
2288.21785408648	1964
2290.44903998434	1954.75
2292.67957980862	1952.5
2294.90947385033	1956
2297.1387224004	1936
2299.36732574975	1998.5
2301.59528418921	1985.25
2303.82259800958	1972.25
2306.04926750158	2008.25
2308.27529295593	1998.75
2310.50067466325	2023.5
2312.72541291412	2023.75
2314.9495079991	2019.5
2317.17296020866	2014.5
2319.39576983323	2059
2321.61793716322	2050.25
2323.83946248894	2065.25
2326.06034610069	2054
2328.28058828871	2053.75
2330.50018934317	2043
2332.7191495542	2072
2334.93746921192	2058.5
2337.15514860633	2072.25
2339.37218802743	2086.25
2341.58858776516	2091
2343.80434810941	2106.75
2346.01946935001	2101.5
2348.23395177675	2109
2350.44779567939	2137
2352.66100134759	2135.75
2354.87356907101	2123.25
2357.08549913925	2136.5
2359.29679184185	2137
2361.50744746829	2161.5
2363.71746630804	2140.5
2365.92684865048	2144.5
2368.13559478499	2180.75
2370.34370500083	2151.5
2372.55117958727	2159.75
2374.75801883352	2160.75
2376.96422302874	2159.75
2379.16979246202	2182.25
2381.37472742243	2194.25
2383.57902819898	2208.75
2385.78269508063	2212.5
2387.98572835629	2187.75
2390.18812831482	2215
2392.38989524505	2222.5
2394.59102943573	2221.75
2396.79153117559	2226
2398.9914007533	2239.5
2401.19063845748	2242
2403.38924457672	2240.5
2405.58721939951	2251.75
2407.78456321435	2247.5
2409.98127630966	2280.25
2412.17735897382	2299
2414.37281149517	2276.5
2416.56763416198	2261
2418.76182726249	2312.25
2420.95539108487	2257.5
2423.14832591726	2299.75
2425.34063204776	2297.5
2427.53230976439	2330
2429.72335935513	2310
2431.91378110795	2333.5
2434.10357531071	2307
2436.29274225125	2330
2438.48128221739	2319.75
2440.66919549683	2337.75
2442.8564823773	2326.75
2445.04314314641	2344.25
2447.22917809176	2360.75
2449.4145875009	2351
2451.59937166131	2348.25
2453.78353086044	2344
2455.96706538568	2392.5
2458.14997552436	2378.25
2460.33226156379	2371.25
2462.51392379119	2377.5
2464.69496249376	2405.25
2466.87537795862	2390.75
2469.05517047288	2410
2471.23434032357	2406.25
2473.41288779767	2422.5
2475.59081318211	2458.5
2477.76811676378	2434.75
2479.9447988295	2416.75
2482.12085966605	2423.5
2484.29629956016	2428.25
2486.4711187985	2458
2488.64531766769	2469.25
2490.8188964543	2483
2492.99185544484	2456
2495.16419492579	2487
2497.33591518353	2512.5
2499.50701650444	2499.75
2501.67749917482	2500.5
2503.84736348091	2506.25
2506.01660970891	2524
2508.18523814496	2507.25
2510.35324907514	2559.5
2512.52064278551	2547.25
2514.68741956201	2549.75
2516.85357969058	2583
2519.01912345709	2589
2521.18405114735	2572.5
2523.34836304711	2586.5
2525.51205944208	2594.5
2527.6751406179	2626.25
2529.83760686016	2613.75
2531.99945845439	2597.75
2534.16069568606	2637.75
2536.3213188406	2649.25
2538.48132820336	2627.75
2540.64072405965	2641
2542.79950669471	2680.25
2544.95767639373	2701.25
2547.11523344184	2681
2549.27217812411	2676
2551.42851072555	2687.25
2553.58423153111	2697.25
2555.73934082569	2709.75
2557.89383889412	2686.5
2560.04772602118	2715.5
2562.20100249158	2719.75
2564.35366858996	2724.5
2566.50572460093	2725
2568.65717080901	2751.25
2570.80800749867	2738.5
2572.95823495433	2760.25
2575.10785346031	2729.75
2577.25686330093	2734
2579.40526476038	2715.25
2581.55305812282	2760.5
2583.70024367237	2755.75
2585.84682169303	2768
2587.99279246879	2755.75
2590.13815628354	2771.75
2592.28291342112	2768.25
2594.42706416531	2779.25
2596.5706087998	2812
2598.71354760826	2834.5
2600.85588087425	2818.5
2602.99760888127	2836
2605.13873191278	2820
2607.27925025214	2786.5
2609.41916418269	2847.75
2611.55847398764	2844.75
2613.69717995017	2870.5
2615.83528235339	2895.5
2617.97278148034	2878.25
2620.10967761398	2873.25
2622.2459710372	2897.5
2624.38166203284	2906.5
2626.51675088365	2906
2628.65123787231	2922.5
2630.78512328145	2899
2632.9184073936	2921.25
2635.05109049124	2920.5
2637.18317285676	2940
2639.31465477248	2947.25
2641.44553652067	2964.75
2643.5758183835	2964.5
2645.70550064309	2984.75
2647.83458358144	2968.75
2649.96306748053	2975.5
2652.09095262223	2973.25
2654.21823928836	2993.5
2656.34492776063	2970
2658.47101832071	3011
2660.59651125015	3026
2662.72140683047	3018.25
2664.84570534309	3003.75
2666.96940706934	3037.5
2669.0925122905	3044.75
2671.21502128773	3015
2673.33693434215	3044.25
2675.45825173479	3058
2677.57897374658	3055.25
2679.69910065839	3066.25
2681.818632751	3080.25
2683.93757030511	3080
2686.05591360133	3058.5
2688.17366292021	3092
2690.29081854218	3106.5
2692.40738074762	3069.25
2694.52334981681	3125.5
2696.63872602995	3118.5
2698.75350966713	3146.5
2700.86770100841	3145.75
2702.98130033371	3127
2705.09430792289	3125
2707.20672405571	3112.5
2709.31854901185	3151.75
2711.42978307091	3147.75
2713.54042651238	3158.75
2715.65047961567	3167.75
2717.7599426601	3136.25
2719.86881592491	3132
2721.97709968924	3203.75
2724.08479423213	3185.75
2726.19189983255	3192
2728.29841676934	3168
2730.4043453213	3242.75
2732.5096857671	3255.5
2734.61443838532	3244.25
2736.71860345444	3252.75
2738.82218125286	3240.75
2740.92517205889	3229.5
2743.02757615072	3259
2745.12939380646	3262.25
2747.23062530411	3264.25
2749.33127092159	3277.75
2751.4313309367	3269.75
2753.53080562716	3284
2755.62969527058	3323.25
2757.72800014448	3338.75
2759.82572052625	3320.5
2761.92285669323	3310.25
2764.0194089226	3329.75
2766.11537749147	3337.25
2768.21076267686	3391
2770.30556475566	3327.25
2772.39978400465	3348
2774.49342070054	3393.25
2776.58647511991	3378.5
2778.67894753923	3398.75
2780.77083823487	3408.5
2782.8621474831	3399.75
2784.95287556007	3372
2787.04302274184	3362.5
2789.13258930433	3379.25
2791.22157552338	3383.5
2793.30998167471	3391
2795.39780803392	3446
2797.4850548765	3411
2799.57172247786	3411
2801.65781111324	3368
2803.74332105781	3437.75
2805.82825258661	3417.5
2807.91260597457	3473.75
2809.9963814965	3454.25
2812.07957942711	3440
2814.16220004096	3396.25
2816.24424361252	3456.5
2818.32571041614	3429.25
2820.40660072604	3450.5
2822.48691481631	3459.25
2824.56665296098	3467.75
2826.64581543388	3458
2828.72440250876	3517.5
2830.80241445925	3470.25
2832.87985155885	3463.25
2834.95671408093	3490
2837.03300229875	3447.75
2839.10871648544	3501.75
2841.18385691399	3533.75
2843.25842385729	3506
2845.33241758808	3525
2847.40583837898	3511.75
2849.4786865025	3531.25
2851.550962231	3615
2853.6226658367	3579
2855.69379759173	3591.25
2857.76435776806	3584.75
2859.83434663753	3587.5
2861.90376447184	3607
2863.97261154259	3592.75
2866.0408881212	3632
2868.10859447901	3620.25
2870.17573088717	3647.75
2872.24229761673	3659.25
2874.30829493859	3653.25
2876.37372312352	3666.25
2878.43858244215	3670.5
2880.50287316496	3657.75
2882.56659556231	3670.5
2884.62974990439	3680.5
2886.69233646129	3704.75
2888.75435550293	3725.5
2890.81580729909	3763.5
2892.87669211941	3766
2894.93701023339	3748.75
2896.99676191039	3751.25
2899.05594741961	3770.25
2901.1145670301	3778.5
2903.1726210108	3726.25
2905.23010963045	3791
2907.28703315768	3778.25
2909.34339186096	3832.25
2911.39918600861	3816
2913.45441586879	3752.25
2915.50908170952	3749
2917.56318379867	3773
2919.61672240395	3811
2921.66969779291	3768.5
2923.72211023295	3793.5
2925.77395999134	3787.75
2927.82524733515	3798.25
2929.87597253132	3794.5
2931.92613584663	3802.5
2933.97573754769	3776
2936.02477790097	3803.75
2938.07325717276	3768.75
2940.1211756292	3818
2942.16853353626	3837.75
2944.21533115976	3878
2946.26156876536	3900.75
2948.30724661853	3917.5
2950.3523649846	3987.5
2952.39692412872	3981.75
2954.44092431587	4035.5
2956.48436581089	4052.5
2958.52724887843	4075.75
2960.56957378296	4089
2962.6113407888	4148.75
2964.65255016011	4172.5
2966.69320216083	4134
2968.73329705479	4065.5
2970.77283510559	4071.5
2972.81181657671	4043
2974.8502417314	4034
2976.88811083279	3999.75
2978.92542414378	4014.5
2980.96218192713	3983.75
2982.99838444541	4001
2985.034031961	3937
2987.06912473612	3983.75
2989.1036630328	3936.75
2991.13764711288	3942.5
2993.17107723804	3967.25
2995.20395366974	3980.75
2997.23627666931	4017.5
2999.26804649782	3996.5
3001.29926341624	4061.25
3003.32992768528	4004.5
3005.3600395655	4025.75
3007.38959931726	3996.75
3009.41860720076	4003
3011.44706347595	4004.75
3013.47496840263	3950.75
3015.50232224041	3956.75
3017.5291252487	4015.25
3019.5553776867	3902.5
3021.58107981344	3988.5
3023.60623188773	3983.25
3025.63083416822	3957.5
3027.65488691331	3955.25
3029.67839038125	3961.5
3031.70134483007	3904.5
3033.72375051759	3958.25
3035.74560770144	3953
3037.76691663907	3942.75
3039.78767758768	3955.25
3041.80789080431	3953.25
3043.82755654577	3979.5
3045.84667506867	3940
3047.8652466294	3974
3049.88327148418	3967
3051.90074988899	3979.5
3053.91768209961	4028
3055.9340683716	3977.75
3057.94990896033	4016.75
3059.96520412095	4046.25
3061.97995410838	4093.75
3063.99415917734	4156
3066.00781958234	4178.5
3068.02093557766	4236.5
3070.03350741738	4242.75
3072.04553535535	4316.75
3074.05701964521	4405
3076.06796054036	4510.75
3078.078358294	4615
3080.08821315912	4753.75
3082.09752538846	4751.25
3084.10629523454	4577.75
3086.11452294967	4482
3088.12220878592	4369
3090.12935299515	4315.25
3092.13595582898	4204.25
3094.1420175388	4085.25
3096.14753837579	4099
3098.15251859088	4029.5
3100.15695843477	4024.25
3102.16085815793	4050.25
3104.16421801061	3948
3106.16703824282	3989
3108.16931910432	3967.75
3110.17106084464	3946
3112.17226371308	4015.25
3114.17292795872	3977.25
3116.17305383034	3996.5
3118.17264157657	3950.25
3120.17169144571	3981
3122.17020368587	3923.5
3124.16817854492	3926
3126.16561627044	3947.75
3128.16251710982	3976.75
3130.15888131017	3966
3132.15470911837	3950.5
3134.15000078104	3989
3136.14475654455	3975.25
3138.13897665502	3986.5
3140.13266135835	3969.75
3142.12581090014	3967.25
3144.11842552577	3997
3146.11050548036	4043.75
3148.10205100875	3978
3150.09306235557	4017.5
3152.08353976515	3988.25
3154.07348348158	3909.5
3156.06289374869	3992.25
3158.05177081006	3961.75
3160.04011490899	3967.5
3162.02792628852	4008.5
3164.01520519145	3938.5
3166.00195186029	3955.5
3167.98816653728	3969.5
3169.97384946442	3977.5
3171.95900088344	3920.5
3173.94362103577	3965.25
3175.92771016259	3915.75
3177.91126850484	3964.25
3179.89429630312	3973
3181.87679379782	3952.75
3183.85876122903	3995.5
3185.84019883657	3989.25
3187.82110685997	3937
3189.80148553851	3937.75
3191.78133511116	4004.75
3193.76065581664	3984.25
3195.73944789337	3996
3197.7177115795	3934.75
3199.6954471129	3955.5
3201.67265473114	3974.75
3203.64933467153	3953.75
3205.62548717107	3979
3207.60111246648	3970.75
3209.57621079421	3960.5
3211.55078239041	3988.5
3213.52482749093	3985.5
3215.49834633133	3995.5
3217.4713391469	4048
3219.44380617262	4022.75
3221.41574764317	4072.5
3223.38716379296	4045
3225.35805485607	4022.75
3227.32842106631	4037.75
3229.29826265718	4061.75
3231.26757986187	4016.25
3233.2363729133	4048.5
3235.20464204405	4020.25
3237.17238748643	4035
3239.13960947243	4030.75
3241.10630823374	4070.25
3243.07248400174	4014.25
3245.03813700748	4049.75
3247.00326748177	4016
3248.96787565503	4021.25
3250.93196175742	4052
3252.89552601877	4024.5
3254.8585686686	4020.75
3256.82108993612	4051
3258.78309005022	4027
3260.74456923948	4027
3262.70552773215	4018.5
3264.66596575617	4032
3266.62588353916	4027.5
3268.58528130843	4015
3270.54415929094	3977.5
3272.50251771336	4010.5
3274.46035680201	4024
3276.4176767829	4048.5
3278.37447788171	4001
3280.33076032379	4049.75
3282.28652433416	4071.25
3284.24177013751	4040.25
3286.1964979582	4030.5
3288.15070802027	4056.25
3290.10440054741	4028
3292.05757576298	3971.25
3294.01023389001	4000
3295.96237515119	4035.5
3297.91399976887	4011.25
3299.86510796506	4050.25
3301.81569996142	3997
3303.76577597932	4026.5
3305.7153362397	4010.25
3307.66438096324	4010
3309.61291037024	4028.25
3311.56092468064	3981.5
3313.50842411404	3972.75
3315.45540888971	3997
3317.40187922656	4013.5
3319.34783534315	4017.5
3321.29327745768	3989.25
3323.23820578801	3966
3325.18262055164	4002
3327.1265219657	3979
3329.06991024699	4015.25
3331.01278561194	3962.5
3332.95514827662	3971.75
3334.89699845674	3982
3336.83833636766	3979
3338.77916222434	3942.25
3340.71947624143	3993
3342.65927863317	3984.5
3344.59856961346	3990.75
3346.53734939584	3937
3348.47561819344	3960.5
3350.41337621906	3947.75
3352.35062368513	3945.75
3354.28736080368	3943.25
3356.22358778637	3956
3358.15930484452	3960.5
3360.09451218904	3968
3362.02921003047	3925
3363.96339857898	3977.5
3365.89707804436	3989.5
3367.83024863602	3943
3369.76291056299	3916.25
3371.69506403389	3956.25
3373.62670925699	3993
3375.55784644016	3995
3377.4884757909	3982.5
3379.41859751629	3970.5
3381.34821182305	3980.5
3383.27731891749	3960.5
3385.20591900555	3998.25
3387.13401229276	3995.75
3389.06159898426	3985
3390.9886792848	4004.75
3392.91525339872	3976.75
3394.84132152998	3971.25
3396.76688388213	3978
3398.69194065833	3993.25
3400.61649206133	3971
3402.54053829348	3989
3404.46407955672	3982.5
3406.3871160526	3992
3408.30964798225	4006
3410.23167554639	3984
3412.15319894535	4010
3414.07421837904	3978.75
3415.99473404695	3978.25
3417.91474614817	3966.25
3419.83425488136	4007
3421.75326044479	4017.75
3423.67176303631	3996
3425.58976285332	3975.75
3427.50726009282	3996.25
3429.42425495143	4003
3431.34074762528	3977.5
3433.25673831012	3968.5
3435.17222720127	3966.25
3437.08721449362	3954.25
3439.00170038164	3961.5
3440.91568505936	3969.25
3442.82916872039	3932
3444.74215155791	3997.25
3446.65463376468	3979.75
3448.566615533	3972.75
3450.47809705476	3950.25
3452.3890785214	3914
3454.29956012393	3929.5
3456.20954205293	3948
3458.11902449853	3946.5
3460.02800765041	3942
3461.93649169784	3918.25
3463.84447682962	3907.5
3465.75196323412	3973.5
3467.65895109925	3914.25
3469.56544061249	3909.5
3471.47143196086	3923.5
3473.37692533093	3933.5
3475.28192090884	3924
3477.18641888026	3914.25
3479.09041943039	3928
3480.99392274402	3918.75
3482.89692900545	3904.25
3484.79943839853	3899
3486.70145110666	3930.75
3488.60296731277	3883
3490.50398719933	3926.75
3492.40451094836	3848.75
3494.30453874141	3867.75
3496.20407075956	3898.5
3498.10310718342	3926.25
3500.00164819315	3869.75