
200.475549058548	734.5
203.359249075907	743.5
206.241936533635	729.25
209.123612299129	730.5
212.004277237673	736
214.883932212466	739.75
217.762578084596	733.5
220.640215713076	731.25
223.516845954837	733.75
226.392469664723	730
229.26708769552	735.75
232.14070089794	740.25
235.013310120656	736
237.884916210263	735
240.755520011335	745.5
243.625122366404	739.5
246.493724115942	747
249.361326098424	743.25
252.227929150296	743
255.093534105978	743.25
257.958141797884	749
260.821753056447	745.25
263.684368710063	747
266.545989585164	746
269.406616506196	742.75
272.266250295612	745
275.124891773896	735.25
277.982541759568	743.75
280.839201069171	748.75
283.69487051732	746.25
286.549550916647	751.75
289.403243077853	742.75
292.255947809714	753
295.10766591904	739.25
297.958398210747	740
300.808145487801	745
303.656908551278	749
306.504688200319	745.75
309.351485232171	754
312.197300442189	752
315.042134623818	751.75
317.885988568629	760
320.72886306631	757.5
323.570758904654	751.5
326.411676869615	755.5
329.251617745253	763
332.09058231378	757.5
334.928571355551	746.25
337.765585649082	748.75
340.601625971023	750
343.436693096224	753.5
346.270787797657	759.75
349.103910846512	751.75
351.936063012115	749.25
354.767245062016	757.75
357.597457761927	754.25
360.426701875771	759
363.25497816566	752.75
366.082287391928	759.5
368.908630313104	757.25
371.734007685947	753.5
374.558420265435	754.75
377.381868804758	762.25
380.204354055371	763
383.02587676694	756.5
385.846437687393	764
388.666037562889	770
391.484677137862	779.25
394.302357154986	787
397.119078355226	805
399.934841477789	807
402.749647260174	804
405.563496438161	799.75
408.376389745808	787.25
411.188327915483	781.25
413.999311677824	774.75
416.809341761793	761.25
419.61841889465	770.25
422.426543801968	769
425.233717207637	762.5
428.039939833878	762.25
430.845212401226	776.75
433.64953562856	779.25
436.452910233093	773.5
439.255336930382	761
442.056816434335	773
444.857349457205	777.5
447.65693670962	770.75
450.455578900554	776.75
453.253276737363	777.75
456.050030925759	781.5
458.84584216986	782.75
461.640711172138	774
464.434638633487	775.75
467.227625253163	773.75
470.019671728842	769.25
472.810778756586	771.5
475.600947030889	779.25
478.390177244633	773.25
481.178470089144	771.5
483.965826254145	776
486.752246427819	776.5
489.537731296754	771.25
492.322281545992	773
495.105897859008	770.25
497.888580917748	767.25
500.670331402573	769.5
503.451149992328	777.75
506.231037364323	775.5
509.009994194319	781.75
511.788021156572	770.75
514.565118923787	780
517.341288167165	780.25
520.116529556395	788.5
522.890843759669	790.75
525.664231443643	789.25
528.436693273514	788.25
531.208229912947	792.25
533.978842024138	787
536.7485302678	790.75
539.517295303154	777.75
542.285137787949	773.75
545.052058378482	784.75
547.818057729542	769.75
550.583136494504	778.5
553.347295325253	782.25
556.110534872227	776.5
558.872855784437	772.5
561.63425870943	777.25
564.39474429332	773.75
567.154313180785	793.25
569.912966015068	791.5
572.67070343802	775.75
575.427526090021	782.75
578.183434610073	778.75
580.938429635768	784
583.692511803256	787.25
586.445681747326	780.25
589.197940101341	793.5
591.949287497293	774.25
594.699724565755	793.25
597.449251935952	785.25
600.197870235697	782
602.945580091462	786.5
605.692382128313	779.75
608.43827696997	779
611.183265238786	788.5
613.92734755576	779.25
616.670524540528	787
619.412796811394	790.25
622.154164985306	791.5
624.894629677859	787.25
627.634191503348	789.75
630.372851074691	795.75
633.110609003535	779.75
635.847465900133	784.5
638.5834223735	789.25
641.31847903127	781.5
644.052636479799	789.5
646.78589532413	796.75
649.518256168005	786.75
652.249719613883	793.75
654.9802862629	783.25
657.709956714938	791.75
660.438731568556	784.25
663.166611421075	793.75
665.893596868511	784.25
668.619688505609	798.25
671.344886925857	787.25
674.06919272149	795.5
676.792606483454	790.5
679.515128801468	785.5
682.236760263971	783.75
684.95750145819	805
687.677352970088	800.5
690.396315384383	782.5
693.114389284579	793.25
695.831575252931	787.5
698.547873870488	780
701.26328571705	790.5
703.977811371216	785
706.691451410374	799.5
709.404206410691	796.25
712.116076947135	794.75
714.827063593468	788
717.537166922259	789.75
720.246387504871	792.25
722.954725911495	787.5
725.662182711119	788.25
728.368758471555	786
731.074453759451	798.25
733.779269140254	800
736.483205178258	796.25
739.186262436579	793
741.888441477189	798.5
744.589742860895	802.25
747.290167147334	798.25
749.989714895015	798.75
752.688386661259	798.25
755.386183002312	795
758.083104473222	792
760.779151627929	801.75
763.474325019226	799.5
766.168625198792	786.25
768.86205271717	812
771.554608123806	804
774.246291966996	803.5
776.937104793953	801
779.627047150767	799
782.316119582421	795.5
785.004322632802	794.25
787.691656844701	800
790.378122759819	794.75
793.063720918755	799.75
795.74845186104	809
798.432316125098	810
801.115314248287	825.25
803.797446766894	830.75
806.478714216137	842.25
809.159117130155	875.75
811.838656042029	867.75
814.517331483774	851
817.19514398637	825.75
819.872094079703	818.5
822.548182292652	809.75
825.223409153026	831.5
827.897775187597	830.25
830.571280922097	821.25
833.243926881234	830
835.915713588667	826.25
838.586641567043	867.25
841.256711337974	862.5
843.925923422052	847.25
846.594278338864	847
849.261776606963	828.25
851.928418743908	817.25
854.594205266247	813.5
857.259136689525	817.75
859.923213528287	814.25
862.586436296082	813.75
865.24880550546	808.5
867.910321667994	811.5
870.570985294264	800.5
873.230796893869	810.75
875.88975697543	807.5
878.5478660466	809
881.205124614036	807.25
883.861533183448	796.25
886.517092259586	809.75
889.171802346213	799.75
891.825663946165	810.25
894.478677561296	803
897.130843692517	811.5
899.782162839801	801.75
902.432635502166	814.75
905.082262177682	804
907.73104336351	810.5
910.378979555833	808.75
913.026071249948	819.75
915.672318940189	812.25
918.317723119977	814.75
920.96228428181	802.75
923.606002917288	808.75
926.248879517054	817.5
928.890914570882	811.5
931.532108567604	820
934.172461995178	808.75
936.811975340628	823
939.450649090111	812.25
942.088483728854	820.5
944.725479741231	824
947.361637610698	816.5
949.996957819825	818
952.63144085032	813.25
955.26508718299	818.5
957.897897297789	820.75
960.529871673774	815.75
963.161010789143	813.75
965.791315121223	819.25
968.420785146496	818.25
971.049421340547	832
973.677224178144	849
976.304194133165	832
978.930331678668	831.75
981.555637286841	823.25
984.180111429039	819.5
986.803754575769	824.25
989.426567196693	821
992.048549760653	823.5
994.669702735642	822
997.290026588849	845.25
999.909521786598	836.5
1002.52818879443	826.5
1005.14602807703	825.5
1007.76304009828	828.5
1010.37922532126	824.5
1012.99458420824	813.25
1015.60911722064	830.5
1018.22282481911	809.75
1020.8357074635	816.25
1023.44776561284	834.25
1026.05899972539	823
1028.66941025859	819.5
1031.27899766911	833.25
1033.8877624128	844
1036.49570494477	840
1039.1028257193	836.5
1041.70912518995	834.75
1044.31460380945	834
1046.91926202978	832.5
1049.52310030213	826
1052.12611907697	828.5
1054.72831880395	829.5
1057.329699932	826.25
1059.93026290926	825.5
1062.53000818313	832.75
1065.12893620026	828
1067.72704740654	823
1070.32434224711	820.25
1072.92082116639	817.5
1075.51648460802	825
1078.11133301493	823.5
1080.70536682931	827.25
1083.29858649259	818.5
1085.89099244551	841
1088.48258512806	836.75
1091.07336497949	825.75
1093.66333243836	837.75
1096.2524879425	831.5
1098.84083192899	822.5
1101.42836483425	833
1104.01508709395	834
1106.60099914306	832.25
1109.18610141586	831
1111.77039434588	830.5
1114.35387836603	825.5
1116.93655390844	832.75
1119.51842140458	851.75
1122.09948128525	827.5
1124.67973398051	822.5
1127.25917991977	837.5
1129.83781953174	838.5
1132.41565324445	838.75
1134.99268148526	845.75
1137.56890468084	835.5
1140.14432325718	838
1142.71893763963	843.25
1145.29274825285	863.75
1147.86575552081	875.25
1150.43795986686	874.5
1153.00936171367	891
1155.57996148323	868.5
1158.14975959691	862.75
1160.7187564754	884.25
1163.28695253876	880.25
1165.85434820638	865
1168.42094389704	874.75
1170.98674002881	864.25
1173.55173701918	860
1176.11593528499	865.75
1178.67933524243	862
1181.24193730705	836.75
1183.8037418938	853.5
1186.36474941697	850.25
1188.92496029025	847.75
1191.48437492668	848.5
1194.0429937387	852.5
1196.60081713811	851.5
1199.15784553612	857.25
1201.71407934332	855.75
1204.26951896966	851.75
1206.82416482453	846
1209.37801731668	853.5
1211.93107685425	857
1214.4833438448	853.5
1217.03481869529	854.25
1219.58550181206	874.25
1222.13539360089	867
1224.68449446692	856.5
1227.23280481476	860.75
1229.78032504839	868
1232.32705557121	856.5
1234.87299678605	854.75
1237.41814909516	857.75
1239.96251290019	864.5
1242.50608860226	855.75
1245.04887660185	868
1247.59087729894	860.75
1250.13209109286	867.75
1252.67251838247	867.75
1255.21215956601	862.25
1257.75101504113	870.75
1260.28908520499	879.25
1262.82637045415	876.25
1265.36287118461	872.5
1267.89858779184	876.25
1270.43352067075	877.75
1272.96767021569	875
1275.5010368205	869.75
1278.03362087842	867
1280.56542278221	876.75
1283.09644292403	886.25
1285.62668169556	888.5
1288.1561394879	881.75
1290.68481669165	887.5
1293.21271369685	876
1295.73983089304	883.25
1298.2661686692	883
1300.79172741383	888.5
1303.31650751487	891.25
1305.84050935976	894
1308.36373333541	900.75
1310.88617982822	902.75
1313.4078492241	894
1315.92874190839	895.25
1318.44885826599	899.5
1320.96819868124	906.25
1323.48676353801	916.75
1326.00455321965	932.75
1328.521568109	947.5
1331.03780858842	956
1333.55327503978	934.75
1336.06796784442	925
1338.58188738323	926.5
1341.09503403658	915
1343.60740818437	917.5
1346.11901020598	924
1348.62984048037	928.25
1351.13989938596	925.75
1353.6491873007	937.25
1356.15770460209	931
1358.66545166712	943.5
1361.17242887233	931.5
1363.67863659378	944.25
1366.18407520705	933.5
1368.68874508726	933.25
1371.19264660907	937.75
1373.69578014668	929
1376.19814607381	931.75
1378.69974476373	928.5
1381.20057658924	944.25
1383.7006419227	937.25
1386.19994113603	920.75
1388.69847460065	923.25
1391.19624268756	922.5
1393.69324576732	929.5
1396.18948421004	915.75
1398.68495838535	920
1401.17966866248	920
1403.6736154102	907
1406.16679899686	930.75
1408.65921979033	919
1411.1508781581	918.25
1413.64177446718	924.5
1416.13190908416	933.5
1418.62128237524	933.25
1421.10989470614	932.25
1423.59774644217	932.5
1426.08483794823	939.25
1428.57116958879	945.75
1431.05674172789	954.5
1433.54155472916	964.25
1436.02560895582	982.5
1438.50890477068	963
1440.99144253608	981.25
1443.47322261404	966.5
1445.9542453661	991.5
1448.43451115342	989
1450.91402033676	1000
1453.39277327646	1013.75
1455.87077033246	1022
1458.34801186431	1023
1460.82449823115	1048.75
1463.30022979173	1018
1465.77520690441	1008.5
1468.24942992714	997
1470.72289921748	999.5
1473.19561513262	992.5
1475.66757802934	998
1478.13878826404	977.5
1480.60924619276	995.75
1483.0789521711	975.25
1485.54790655434	981.5
1488.01610969734	985.5
1490.48356195459	971.25
1492.95026368022	983
1495.41621522796	977.5
1497.88141695119	979
1500.3458692029	988
1502.80957233573	978.75
1505.27252670192	993.75
1507.7347326534	987
1510.19619054165	1003
1512.65690071788	999.25
1515.11686353289	999.75
1517.5760793371	991
1520.0345484806	999.75
1522.49227131314	997.75
1524.94924818408	992.25
1527.40547944245	1003
1529.86096543691	1002.75
1532.31570651578	1013.5
1534.76970302704	1012.25
1537.2229553183	1018.75
1539.67546373685	1013
1542.1272286296	1024.75
1544.57825034318	1023
1547.0285292238	1021
1549.4780656174	1018
1551.92685986953	1018.5
1554.37491232545	1034.5
1556.82222333005	1039.75
1559.26879322789	1040.25
1561.71462236323	1047.75
1564.15971107996	1042.25
1566.60405972167	1039.5
1569.0476686316	1040.25
1571.49053815268	1039
1573.93266862751	1050.25
1576.37406039838	1055.75
1578.81471380725	1065
1581.25462919573	1053.25
1583.69380690517	1062.75
1586.13224727656	1074
1588.56995065059	1085
1591.00691736765	1077.25
1593.44314776777	1063.75
1595.87864219074	1072.5
1598.31340097597	1085
1600.74742446261	1077
1603.18071298948	1072.5
1605.61326689511	1071.25
1608.04508651771	1081.25
1610.47617219521	1067.25
1612.90652426521	1079
1615.33614306503	1089
1617.7650289317	1080
1620.19318220193	1082
1622.62060321214	1075.75
1625.04729229848	1096.25
1627.47324979677	1088.5
1629.89847604256	1088.75
1632.32297137112	1086.5
1634.74673611742	1097.25
1637.16977061614	1089.75
1639.59207520166	1078.75
1642.01365020812	1089
1644.43449596933	1086
1646.85461281884	1094.25
1649.27400108993	1109.25
1651.69266111558	1104.5
1654.11059322849	1117.5
1656.52779776111	1115.25
1658.9442750456	1125.25
1661.36002541383	1119
1663.77504919742	1127.75
1666.18934672772	1120
1668.60291833579	1129.75
1671.01576435243	1144.5
1673.42788510819	1124.75
1675.83928093333	1147.5
1678.24995215785	1159.5
1680.65989911149	1164.25
1683.06912212375	1166.5
1685.47762152383	1160
1687.88539764068	1173.25
1690.29245080301	1157.75
1692.69878133927	1171.25
1695.10438957763	1172.75
1697.50927584602	1173.5
1699.91344047213	1171.5
1702.31688378338	1196.75
1704.71960610694	1198.5
1707.12160776972	1213.75
1709.52288909843	1194.25
1711.92345041946	1205
1714.32329205902	1207
1716.72241434301	1206.75
1719.12081759716	1201.25
1721.51850214689	1199.75
1723.91546831742	1200.5
1726.31171643371	1204.25
1728.70724682049	1198.25
1731.10205980225	1212
1733.49615570323	1212.75
1735.88953484746	1226
1738.28219755871	1230.25
1740.67414416053	1212.5
1743.06537497623	1217.5
1745.4558903289	1225.5
1747.84569054139	1231.25
1750.23477593633	1238.25
1752.6231468361	1242.5
1755.01080356288	1245.75
1757.3977464386	1227.75
1759.783975785	1239
1762.16949192355	1251.5
1764.55429517554	1252
1766.93838586201	1253.5
1769.32176430379	1259.5
1771.70443082149	1262
1774.08638573552	1272
1776.46762936603	1276.25
1778.84816203299	1286.25
1781.22798405614	1271.5
1783.60709575502	1282.75
1785.98549744894	1301.75
1788.363189457	1292
1790.74017209811	1293
1793.11644569094	1307.5
1795.49201055396	1301.75
1797.86686700545	1308.25
1800.24101536348	1289.75
1802.61445594588	1323
1804.98718907032	1319.75
1807.35921505424	1337
1809.73053421488	1333.75
1812.10114686928	1338.25
1814.47105333431	1319.5
1816.84025392657	1345.75
1819.20874896252	1356
1821.57653875842	1361
1823.9436236303	1360
1826.31000389401	1345.5
1828.67567986522	1346.25
1831.0406518594	1362.5
1833.40492019179	1372.25
1835.7684851775	1372.25
1838.1313471314	1379.25
1840.49350636819	1370.25
1842.85496320238	1409.5
1845.21571794829	1395.25
1847.57577092004	1386
1849.9351224316	1415.25
1852.29377279671	1402.5
1854.65172232894	1408.25
1857.00897134171	1424.25
1859.36552014821	1407
1861.72136906146	1431.5
1864.07651839433	1416.5
1866.43096845946	1416.25
1868.78471956935	1425.25
1871.13777203631	1416.25
1873.49012617247	1414.75
1875.84178228977	1441.25
1878.19274070001	1442.5
1880.54300171478	1472.5
1882.89256564551	1461.25
1885.24143280346	1476.5
1887.58960349972	1485.25
1889.93707804519	1476
1892.28385675061	1493.25
1894.62993992657	1467.25
1896.97532788346	1490.25
1899.32002093153	1504.25
1901.66401938082	1512.75
1904.00732354126	1520.5
1906.34993372257	1537.75
1908.69185023433	1531.25
1911.03307338592	1533
1913.37360348663	1528.5
1915.7134408455	1538.25
1918.05258577147	1524
1920.3910385733	1547
1922.72879955958	1548.5
1925.06586903876	1545.25
1927.4022473191	1539.75
1929.73793470875	1554.75
1932.07293151565	1553.5
1934.40723804763	1566.5
1936.74085461234	1565.5
1939.07378151727	1574.25
1941.40601906977	1578
1943.73756757704	1578
1946.06842734612	1568.25
1948.39859868389	1582.5
1950.7280818971	1561
1953.05687729233	1586.25
1955.38498517601	1583.5
1957.71240585444	1591
1960.03913963377	1572.75
1962.36518681997	1577
1964.69054771891	1594.25
1967.01522263627	1583.25
1969.33921187762	1589.25
1971.66251574837	1580
1973.98513455379	1595
1976.30706859901	1608.25
1978.62831818899	1595.75
1980.94888362858	1604.25
1983.2687652225	1606.75
1985.58796327528	1632.25
1987.90647809136	1614
1990.224309975	1625.25
1992.54145923038	1642.25
1994.85792616145	1615.5
1997.17371107212	1616.5
1999.4888142661	1631.75
2001.80323604699	1636.25
2004.11697671825	1648.25
2006.4300365832	1634.75
2008.74241594504	1638.25
2011.05411510683	1667.5
2013.36513437149	1682.5
2015.6754740418	1665.75
2017.98513442044	1648
2020.29411580994	1674.25
2022.60241851269	1653.25
2024.91004283098	1667
2027.21698906692	1669.25
2029.52325752256	1670
2031.82884849977	1688.75
2034.1337623003	1690.5
2036.4379992258	1662.5
2038.74155957777	1675.75
2041.04444365759	1691.25
2043.34665176652	1701
2045.64818420569	1678.75
2047.9490412761	1684.25
2050.24922327865	1703.25
2052.54873051409	1702.25
2054.84756328307	1690.25
2057.14572188611	1703
2059.44320662359	1685
2061.74001779581	1683.25
2064.03615570292	1679.75
2066.33162064497	1683
2068.62641292185	1659.5
2070.9205328334	1689.25
2073.21398067927	1693
2075.50675675905	1693.5
2077.79886137218	1655.75
2080.090294818	1682.5
2082.38105739572	1675.25
2084.67114940445	1687
2086.96057114319	1682.75
2089.24932291079	1700.5
2091.53740500603	1676.75
2093.82481772755	1658.25
2096.11156137388	1668.5
2098.39763624345	1665
2100.68304263458	1686.5
2102.96778084545	1662.25
2105.25185117417	1677.5
2107.5352539187	1684.5
2109.81798937692	1665.75
2112.1000578466	1682.75
2114.38145962537	1672
2116.66219501079	1678
2118.94226430028	1689.5
2121.22166779118	1674
2123.50040578071	1677.75
2125.77847856598	1681.25
2128.05588644399	1677.75
2130.33262971165	1678.25
2132.60870866575	1654
2134.88412360298	1671
2137.15887481995	1669.25
2139.43296261311	1673.75
2141.70638727887	1663
2143.97914911348	1660.5
2146.25124841312	1694.25
2148.52268547387	1666
2150.79346059169	1672.25
2153.06357406245	1683
2155.33302618192	1681.5
2157.60181724576	1698.75
2159.86994754953	1672.75
2162.1374173887	1680.75
2164.40422705864	1689.75
2166.6703768546	1689
2168.93586707177	1668.5
2171.20069800519	1682
2173.46486994985	1676.25
2175.72838320061	1667.75
2177.99123805226	1682.5
2180.25343479946	1666.75
2182.5149737368	1667.75
2184.77585515876	1651.25
2187.03607935974	1693.25
2189.295646634	1660.5
2191.55455727578	1685.5
2193.81281157915	1676.75
2196.07040983813	1648
2198.32735234663	1666.75
2200.58363939848	1653.5
2202.83927128737	1657.25
2205.09424830697	1655.25
2207.34857075081	1650
2209.60223891231	1650.75
2211.85525308485	1649
2214.10761356169	1625
2216.35932063598	1645.25
2218.61037460082	1648
2220.86077574918	1623.25
2223.11052437395	1636.25
2225.35962076795	1632
2227.60806522389	1639
2229.85585803439	1629.5
2232.10299949198	1630
2234.34948988911	1634.75
2236.59532951813	1597.25
2238.84051867131	1639.25
2241.08505764082	1644.75
2243.32894671876	1639
2245.57218619713	1632
2247.81477636783	1630.75
2250.05671752269	1638
2252.29800995345	1635
2254.53865395175	1635.5
2256.77864980916	1621.75
2259.01799781714	1630
2261.2566982671	1607.25
2263.49475145035	1605
2265.73215765808	1587
2267.96891718143	1603.75
2270.20503031145	1614.25
2272.44049733909	1627.5
2274.67531855524	1606.75
2276.90949425067	1627.25
2279.1430247161	1600
2281.37591024214	1635.25
2283.60815111933	1616.75
2285.83974763813	1596.25
2288.07070008888	1619.75
2290.30100876189	1613
2292.53067394735	1570.5
2294.75969593537	1594.5
2296.98807501599	1591.25
2299.21581147916	1598.75
2301.44290561476	1599.5
2303.66935771254	1598.25
2305.89516806224	1589.75
2308.12033695344	1611.5
2310.34486467572	1603.25
2312.5687515185	1589.25
2314.79199777118	1567.25
2317.01460372303	1597.75
2319.23656966327	1581
2321.45789588102	1583.25
2323.67858266534	1600.25
2325.89863030519	1569.25
2328.11803908946	1588
2330.33680930694	1568.75
2332.55494124637	1563.75
2334.77243519638	1577.75
2336.98929144553	1579.75
2339.20551028232	1559.5
2341.42109199514	1557.25
2343.63603687231	1559.75
2345.85034520207	1564.75
2348.0640172726	1555
2350.27705337195	1544.25
2352.48945378815	1547
2354.70121880911	1556.75
2356.91234872269	1558.25
2359.12284381662	1565.25
2361.33270437861	1549
2363.54193069626	1527.5
2365.7505230571	1548.5
2367.95848174858	1558.5
2370.16580705805	1561.75
2372.37249927281	1537
2374.57855868008	1524.5
2376.78398556699	1522.25
2378.98878022058	1536.75
2381.19294292784	1541.25
2383.39647397565	1550
2385.59937365084	1533.5
2387.80164224015	1524.75
2390.00328003024	1519.5
2392.20428730769	1520.5
2394.40466435902	1524.5
2396.60441147062	1518.75
2398.80352892888	1517.5
2401.00201702004	1523.25
2403.19987603033	1513.75
2405.39710624582	1521.5
2407.59370795257	1519
2409.78968143654	1507
2411.9850269836	1515.5
2414.17974487957	1516.25
2416.37383541016	1513.25
2418.56729886102	1521.5
2420.76013551771	1484.5
2422.95234566575	1490
2425.14392959054	1511
2427.33488757741	1506
2429.52521991161	1497
2431.71492687834	1472.75
2433.90400876269	1486.5
2436.0924658497	1494.25
2438.2802984243	1495
2440.46750677137	1477
2442.6540911757	1499
2444.840051922	1470.75
2447.0253892949	1459
2449.21010357898	1471
2451.3941950587	1484.25
2453.57766401846	1486.25
2455.7605107426	1468.25
2457.94273551536	1472.5
2460.12433862091	1448.5
2462.30532034333	1459.25
2464.48568096665	1478.75
2466.66542077478	1473
2468.8445400516	1454.75
2471.02303908088	1478.5
2473.20091814631	1457.5
2475.37817753152	1460.5
2477.55481752005	1448.75
2479.73083839537	1445.75
2481.90624044087	1439.25
2484.08102393984	1456
2486.25518917552	1443.25
2488.42873643105	1449
2490.60166598952	1448.5
2492.77397813391	1442.25
2494.94567314713	1446
2497.11675131202	1436.75
2499.28721291133	1446
2501.45705822775	1440.5
2503.62628754386	1434.25
2505.7949011422	1423.75
2507.96289930518	1445
2510.13028231518	1444
2512.29705045447	1440.5
2514.46320400525	1449.25
2516.62874324964	1431.25
2518.79366846969	1444.5
2520.95797994734	1416.5
2523.12167796448	1437.75
2525.28476280291	1433.25
2527.44723474435	1433.75
2529.60909407043	1447
2531.77034106272	1434.75
2533.93097600269	1439.25
2536.09099917173	1440.25
2538.25041085116	1443.25
2540.40921132222	1426.75
2542.56740086606	1421.75
2544.72497976374	1437.75
2546.88194829626	1423.25
2549.03830674452	1420.75
2551.19405538936	1413.75
2553.34919451152	1436.25
2555.50372439165	1439.5
2557.65764531034	1419.75
2559.81095754807	1417.5
2561.96366138529	1429.75
2564.1157571023	1430
2566.26724497936	1430.25
2568.41812529664	1433.5
2570.56839833422	1401.5
2572.71806437208	1406.25
2574.86712369017	1407
2577.01557656829	1392.75
2579.16342328621	1408.5
2581.31066412358	1400.5
2583.45729936	1404
2585.60332927493	1409
2587.74875414781	1394
2589.89357425796	1393.5
2592.0377898846	1396.25
2594.18140130691	1396
2596.32440880395	1408
2598.4668126547	1402.75
2600.60861313806	1408.5
2602.74981053284	1380.25
2604.89040511778	1384.5
2607.0303971715	1375.75
2609.16978697256	1373.5
2611.30857479943	1384
2613.44676093048	1378.25
2615.584345644	1387.25
2617.72132921821	1402.25
2619.8577119312	1393.5
2621.99349406102	1391.5
2624.1286758856	1397
2626.2632576828	1385.5
2628.39723973037	1382.5
2630.53062230598	1383
2632.66340568723	1383
2634.7955901516	1393.25
2636.92717597651	1385
2639.05816343927	1400
2641.18855281709	1383
2643.31834438712	1389.5
2645.44753842641	1386
2647.5761352119	1377.75
2649.70413502044	1385.75
2651.83153812884	1384.5
2653.95834481374	1387.25
2656.08455535174	1404
2658.21017001934	1392.5
2660.33518909294	1397.5
2662.45961284885	1391.5
2664.58344156328	1399.5
2666.70667551235	1393.25
2668.82931497211	1355.5
2670.95136021848	1372
2673.0728115273	1383.25
2675.19366917432	1379.5
2677.31393343519	1385.5
2679.43360458548	1373.75
2681.55268290064	1398.75
2683.67116865603	1382.25
2685.78906212694	1370.25
2687.90636358854	1372.25
2690.02307331589	1390
2692.13919158398	1390.75
2694.2547186677	1402.25
2696.36965484184	1400.75
2698.48400038108	1373.75
2700.59775556002	1380.75
2702.71092065314	1389.5
2704.82349593485	1378.75
2706.93548167942	1386
2709.04687816108	1403.75
2711.1576856539	1366.5
2713.26790443188	1399
2715.37753476892	1402.25
2717.48657693883	1404.5
2719.59503121528	1402.25
2721.70289787187	1397.25
2723.8101771821	1403.25
2725.91686941936	1417
2728.02297485693	1397.5
2730.128493768	1400.75
2732.23342642565	1373.5
2734.33777310285	1383
2736.4415340725	1399.5
2738.54470960735	1389.75
2740.64729998007	1403.25
2742.74930546322	1376
2744.85072632927	1380.25
2746.95156285056	1377.75
2749.05181529934	1386
2751.15148394775	1373
2753.25056906782	1381.25
2755.34907093148	1386.75
2757.44698981056	1387
2759.54432597675	1375.25
2761.64107970166	1355.25
2763.7372512568	1365.5
2765.83284091354	1380
2767.92784894316	1362.75
2770.02227561683	1392.5
2772.11612120562	1366.5
2774.20938598047	1375.25
2776.3020702122	1372.25
2778.39417417156	1382
2780.48569812916	1379.5
2782.57664235549	1361.5
2784.66700712095	1361.75
2786.75679269582	1398.5
2788.84599935027	1382.75
2790.93462735434	1377
2793.02267697797	1377
2795.11014849098	1365.25
2797.19704216309	1389
2799.28335826389	1375.25
2801.36909706286	1388.25
2803.45425882935	1357
2805.53884383263	1380.75
2807.6228523418	1362.25
2809.7062846259	1380.25
2811.78914095381	1388.25
2813.87142159431	1376
2815.95312681606	1397.75
2818.0342568876	1398.25
2820.11481207734	1393
2822.19479265359	1386.75
2824.27419888454	1402.75
2826.35303103823	1407.75
2828.43128938261	1436.25
2830.5089741855	1448.25
2832.58608571459	1470.5
2834.66262423745	1538.75
2836.73859002154	1575
2838.81398333418	1609.25
2840.88880444257	1602.25
2842.96305361381	1590.25
2845.03673111483	1560.75
2847.10983721247	1539.75
2849.18237217344	1516.5
2851.2543362643	1508.75
2853.32572975152	1504.5
2855.39655290143	1515
2857.46680598021	1516
2859.53648925393	1521
2861.60560298855	1578.75
2863.67414744986	1664.5
2865.74212290356	1734.5
2867.80952961519	1769.25
2869.87636785019	1766.25
2871.94263787384	1791.75
2874.00833995131	1809.25
2876.07347434762	1804.75
2878.13804132768	1852
2880.20204115624	1921.5
2882.26547409795	1929.5
2884.32834041729	1915
2886.39064037865	1904.75
2888.45237424623	1872.25
2890.51354228415	1868
2892.57414475635	1807
2894.63418192667	1783.75
2896.69365405878	1785.5
2898.75256141625	1774.25
2900.81090426247	1811
2902.86868286072	1803.75
2904.92589747415	1836.25
2906.98254836574	1839.25
2909.03863579836	1808.5
2911.09416003471	1779.25
2913.14912133738	1752.5
2915.20351996879	1705.5
2917.25735619126	1712.5
2919.31063026691	1733
2921.36334245776	1740.5
2923.41549302568	1740
2925.46708223239	1741.75
2927.51811033945	1731.25
2929.56857760831	1700.75
2931.61848430026	1673.75
2933.66783067643	1628.25
2935.71661699781	1590.5
2937.76484352525	1576.75
2939.81251051946	1575.25
2941.85961824097	1568.75
2943.90616695021	1568.25
2945.95215690742	1585.75
2947.9975883727	1622
2950.04246160601	1684.25
2952.08677686716	1722.5
2954.13053441577	1716.5
2956.17373451138	1686.5
2958.21637741331	1700.75
2960.25846338077	1681.5
2962.29999267279	1678.25
2964.34096554826	1676
2966.3813822659	1626.25
2968.42124308432	1598.5
2970.46054826191	1583.25
2972.49929805694	1542.5
2974.53749272752	1505.5
2976.5751325316	1516
2978.61221772697	1489
2980.64874857127	1503.25
2982.68472532196	1453.75
2984.72014823637	1478
2986.75501757164	1473.25
2988.78933358476	1483.5
2990.82309653258	1467.75
2992.85630667175	1460.25
2994.88896425879	1476.5
2996.92106955003	1449.5
2998.95262280165	1476.75
3000.98362426967	1448.25
3003.01407420993	1473.75
3005.04397287812	1472.25
3007.07332052976	1476.75
3009.1021174202	1470.25
3011.13036380461	1476.75
3013.15805993802	1458.25
3015.18520607526	1478
3017.21180247102	1502
3019.23784937979	1486.75
3021.26334705593	1481.5
3023.28829575358	1466
3025.31269572676	1491.5
3027.33654722926	1493.25
3029.35985051475	1483
3031.38260583668	1492.75
3033.40481344838	1476.5
3035.42647360296	1483
3037.44758655337	1491.75
3039.46815255237	1484.5
3041.48817185258	1491.5
3043.50764470642	1494.75
3045.5265713661	1485.25
3047.54495208372	1491.5
3049.56278711114	1476.25
3051.58007670007	1502.75
3053.59682110204	1499.25
3055.61302056838	1501.5
3057.62867535025	1498.75
3059.64378569864	1493.25
3061.65835186434	1498.75
3063.67237409796	1515
3065.68585264993	1515.5
3067.69878777049	1501.5
3069.71117970969	1496.25
3071.72302871742	1507.5
3073.73433504334	1494.75
3075.74509893695	1504.5
3077.75532064757	1519.75
3079.76500042431	1528.25
3081.7741385161	1510
3083.78273517168	1516.75
3085.7907906396	1497.25
3087.79830516821	1518.5
3089.80527900568	1525.75
3091.81171239998	1531.25
3093.81760559889	1520.75
3095.82295884999	1513.5
3097.82777240067	1507.25
3099.83204649813	1523.25
3101.83578138937	1526
3103.83897732117	1521
3105.84163454016	1526.25
3107.84375329272	1522
3109.84533382508	1529.75
3111.84637638322	1505
3113.84688121298	1525.5
3115.84684855994	1534.5
3117.84627866951	1518.75
3119.84517178689	1522.75
3121.84352815709	1520.25
3123.84134802489	1545.25
3125.83863163489	1564.75
3127.83537923148	1542.5
3129.83159105884	1539.25
3131.82726736092	1550.25
3133.82240838151	1552.5
3135.81701436417	1539.25
3137.81108555224	1543.25
3139.80462218887	1548.25
3141.79762451699	1558.5
3143.79009277931	1568.25
3145.78202721835	1562.5
3147.77342807641	1571.75
3149.76429559556	1571.75
3151.75463001769	1574
3153.74443158445	1559.25
3155.73370053727	1585
3157.7224371174	1591
3159.71064156584	1591.5
3161.69831412337	1576.5
3163.68545503058	1574.5
3165.67206452784	1565.25
3167.65814285526	1573.5
3169.64369025279	1576.5
3171.6287069601	1574.5
3173.61319321668	1577.75
3175.59714926179	1578.5
3177.58057533446	1595.75
3179.56347167348	1584.75
3181.54583851746	1579.75
3183.52767610475	1599.25
3185.50898467348	1588.5
3187.48976446156	1610.5
3189.47001570668	1597
3191.44973864628	1595.5
3193.42893351758	1607
3195.40760055759	1590.5
3197.38574000308	1627.75
3199.36335209055	1596.5
3201.34043705634	1595.25
3203.3169951365	1609.75
3205.29302656687	1615.75
3207.26853158306	1593
3209.24351042042	1625.75
3211.21796331411	1616
3213.19189049901	1620
3215.16529220979	1635.75
3217.13816868087	1623.25
3219.11052014642	1638.5
3221.08234684042	1624
3223.05364899654	1650.25
3225.02442684826	1628.25
3226.99468062882	1620
3228.96441057117	1643.5
3230.93361690808	1661.25
3232.90229987202	1664
3234.87045969526	1649.75
3236.8380966098	1658.25
3238.8052108474	1669
3240.77180263957	1658.25
3242.73787221758	1663.5
3244.70341981245	1652.5
3246.66844565494	1664.75
3248.63294997559	1652
3250.59693300464	1662
3252.56039497213	1675.25
3254.52333610782	1668.75
3256.48575664121	1675.75
3258.44765680157	1667.75
3260.40903681791	1689.75
3262.36989691896	1670
3264.33023733323	1689.5
3266.29005828896	1691.75
3268.24936001411	1667.25
3270.20814273642	1678.75
3272.16640668333	1692.5
3274.12415208206	1697.25
3276.08137915954	1697.25
3278.03808814245	1670.5
3279.99427925722	1711.5
3281.94995272998	1692.75
3283.90510878664	1695.5
3285.85974765282	1730
3287.81386955387	1695.25
3289.7674747149	1699.75
3291.72056336072	1718.25
3293.6731357159	1695.5
3295.62519200472	1717.25
3297.57673245121	1710.75
3299.52775727911	1723.25
3301.4782667119	1702.75
3303.4282609728	1706
3305.37774028472	1724.75
3307.32670487034	1710
3309.27515495204	1700.75
3311.22309075193	1708.75
3313.17051249184	1708.75
3315.11742039334	1723.75
3317.06381467769	1716.5
3319.00969556592	1729.25
3320.95506327872	1702.75
3322.89991803656	1724
3324.84426005959	1693.75
3326.78808956769	1684
3328.73140678046	1695.25
3330.67421191721	1707.5
3332.61650519696	1708.25
3334.55828683848	1700.5
3336.4995570602	1702.5
3338.44031608032	1703.5
3340.3805641167	1712
3342.32030138695	1691
3344.25952810837	1711.75
3346.19824449799	1715.75
3348.13645077251	1714.5
3350.07414714839	1690
3352.01133384175	1724
3353.94801106845	1728.25
3355.88417904405	1694.75
3357.8198379838	1719.25
3359.75498810266	1697.5
3361.6896296153	1701.25
3363.62376273609	1731
3365.5573876791	1710.75
3367.4905046581	1715.5
3369.42311388656	1717.25
3371.35521557765	1710.5
3373.28680994422	1733
3375.21789719888	1701
3377.14847755385	1724.5
3379.07855122109	1715.5
3381.00811841228	1702
3382.93717933874	1741.75
3384.86573421152	1700
3386.79378324134	1716.5
3388.72132663863	1712.25
3390.64836461351	1717.75
3392.57489737576	1727.5
3394.50092513489	1724.25
3396.42644810007	1715.75
3398.35146648018	1718.75
3400.27598048375	1708.5
3402.19999031902	1743.75
3404.12349619393	1744.5
3406.04649831607	1725.5
3407.96899689273	1726.75
3409.89099213087	1717
3411.81248423716	1733.75
3413.73347341792	1747.5
3415.65395987914	1752
3417.57394382654	1734.5
3419.49342546547	1747
3421.41240500097	1718.25
3423.33088263775	1725
3425.24885858022	1710.5
3427.16633303244	1709.25
3429.08330619813	1733
3430.99977828072	1738.25
3432.91574948329	1712.5
3434.83122000859	1716.25
3436.74619005903	1724.75
3438.66065983671	1713.5
3440.57462954339	1707.75
3442.4880993805	1706.5
3444.40106954912	1727
3446.31354025	1694.5
3448.22551168358	1699.5
3450.13698404992	1695.5
3452.04795754877	1721.25
3453.95843237955	1705.75
3455.86840874132	1687
3457.7778868328	1682.25
3459.68686685238	1689.5
3461.5953489981	1676.75
3463.50333346766	1691
3465.41082045843	1690.25
3467.3178101674	1698
3469.22430279125	1677.75
3471.13029852629	1659.25
3473.0357975685	1701.25
3474.94080011349	1673.5
3476.84530635654	1694
3478.74931649257	1696.75
3480.65283071616	1675
3482.55584922151	1668.75
3484.45837220251	1676.75
3486.36039985266	1670.25
3488.26193236512	1667.75
3490.16296993268	1690.75
3492.0635127478	1640
3493.96356100256	1656.75
3495.86311488869	1665.75
3497.76217459756	1651.25
3499.66074032018	1665.5
