200.090469251518	4200
202.974751419362	4139
205.858021632263	4119
208.740280737522	4163
211.621529580443	4161
214.501769004371	4131
217.380999850626	4174
220.25922295859	4107
223.136439165646	4202
226.012649307235	4178
228.88785421682	4277
231.762054725918	4217
234.635251664113	4202
237.507445859021	4311
240.378638136346	4270
243.248829319855	4291
246.11802023137	4263
248.986211690826	4326
251.853404516227	4377
254.719599523654	4377
257.584797527335	4447
260.44899933954	4483
263.312205770682	4516
266.174417629303	4611
269.035635722015	4734
271.895860853609	4811
274.755093826978	4913
277.613335443144	4944
280.470586501309	4981
283.326847798766	4767
286.182120131019	4730
289.036404291684	4575
291.889701072574	4544
294.742011263643	4416
297.593335653048	4412
300.443675027094	4393
303.293030170295	4378
306.141401865367	4442
308.988790893174	4425
311.835198032837	4450
314.680624061635	4388
317.525069755113	4442
320.36853588697	4390
323.211023229178	4435
326.052532551923	4393
328.893064623604	4379
331.732620210885	4459
334.57120007867	4466
337.408804990093	4404
340.245435706565	4459
343.081092987733	4367
345.915777591523	4464
348.749490274145	4339
351.582231790049	4436
354.414002891997	4459
357.244804331021	4492
360.074636856443	4508
362.903501215886	4546
365.731398155265	4506
368.558328418814	4485
371.384292749062	4507
374.209291886869	4562
377.033326571407	4489
379.85639754017	4538
382.678505529009	4632
385.499651272065	4572
388.319835501872	4508
391.139058949258	4518
393.957322343453	4516
396.774626412011	4600
399.590971880847	4444
402.406359474258	4658
405.220789914893	4578
408.034263923801	4497
410.8467822204	4507
413.658345522483	4586
416.468954546242	4534
419.278610006277	4522
422.087312615557	4639
424.895063085503	4674
427.701862125901	4657
430.507710444981	4637
433.312608749366	4623
436.116557744146	4700
438.919558132791	4604
441.721610617238	4637
444.522715897856	4654
447.322874673457	4684
450.122087641299	4621
452.920355497092	4691
455.717678935009	4611
458.514058647681	4610
461.309495326219	4586
464.103989660191	4554
466.89754233765	4572
469.690154045114	4607
472.481825467625	4623
475.272557288674	4572
478.062350190281	4547
480.851204852952	4629
483.639121955683	4572
486.426102176007	4632
489.212146189955	4585
491.997254672093	4654
494.781428295471	4595
497.564667731716	4586
500.346973650958	4611
503.128346721878	4638
505.90878761169	4623
508.688296986151	4701
511.46687550957	4628
514.244523844831	4730
517.021242653354	4703
519.797032595132	4735
522.571894328732	4740
525.345828511279	4667
528.11883579849	4755
530.890916844655	4735
533.662072302668	4706
536.432302823985	4669
539.201609058684	4652
541.96999165542	4669
544.737451261473	4596
547.503988522723	4611
550.26960408366	4706
553.034298587394	4658
555.798072675669	4628
558.560926988819	4651
561.322862165849	4705
564.083878844369	4675
566.843977660654	4667
569.603159249604	4672
572.361424244769	4726
575.118773278369	4702
577.87520698124	4836
580.630725982905	4706
583.385330911566	4757
586.139022394076	4747
588.891801055954	4768
591.643667521406	4735
594.394622413318	4798
597.144666353273	4790
599.893799961512	4768
602.64202385701	4680
605.389338657413	4700
608.135744979089	4795
610.881243437092	4700
613.625834645191	4655
616.369519215881	4683
619.112297760374	4625
621.854170888604	4684
624.595139209225	4668
627.335203329614	4752
630.074363855914	4697
632.81262139299	4660
635.549976544436	4666
638.286429912612	4605
641.021982098635	4573
643.756633702364	4702
646.49038532241	4589
649.223237556176	4601
651.955190999808	4590
654.686246248224	4716
657.416403895135	4685
660.145664533011	4691
662.874028753133	4666
665.601497145537	4689
668.328070299071	4674
671.05374880138	4751
673.778533238885	4781
676.502424196839	4845
679.225422259297	4886
681.947528009099	4827
684.668742027927	4769
687.389064896281	4759
690.108497193465	4678
692.827039497621	4706
695.544692385724	4706
698.261456433585	4778
700.977332215847	4621
703.692320305981	4750
706.406421276337	4766
709.11963569808	4752
711.831964141256	4838
714.54340717474	4777
717.253965366304	4703
719.963639282552	4681
722.672429488961	4669
725.380336549904	4631
728.087361028596	4702
730.793503487166	4659
733.498764486594	4663
736.203144586758	4679
738.906644346447	4689
741.60926432331	4693
744.311005073912	4778
747.011867153727	4734
749.711851117121	4762
752.410957517375	4811
755.109186906677	4655
757.806539836132	4740
760.503016855779	4774
763.198618514551	4730
765.893345360346	4748
768.587197939964	4758
771.28017679914	4795
773.972282482566	4759
776.663515533859	4658
779.353876495581	4691
782.043365909241	4757
784.731984315327	4733
787.419732253235	4605
790.106610261366	4696
792.792618877058	4625
795.477758636618	4661
798.162030075313	4734
800.845433727423	4708
803.52797012615	4604
806.209639803714	4745
808.890443291304	4734
811.570381119098	4671
814.249453816265	4666
816.927661910959	4723
819.60500593036	4704
822.281486400603	4783
824.957103846864	4698
827.631858793316	4813
830.305751763135	4739
832.978783278519	4776
835.650953860677	4748
838.322264029848	4826
840.992714305292	4811
843.662305205289	4762
846.331037247157	4820
848.998910947241	4741
851.665926820933	4747
854.332085382674	4787
856.997387145915	4749
859.661832623191	4759
862.325422326066	4764
864.988156765172	4740
867.650036450181	4771
870.311061889846	4714
872.971233591961	4810
875.630552063409	4736
878.28901781013	4746
880.946631337138	4672
883.603393148533	4766
886.259303747484	4634
888.914363636246	4715
891.568573316155	4662
894.22193328767	4669
896.874444050281	4668
899.526106102625	4761
902.176919942416	4722
904.826886066483	4678
907.476004970747	4722
910.124277150255	4762
912.77170309913	4766
915.418283310642	4785
918.064018277175	4765
920.708908490222	4741
923.352954440405	4658
925.996156617486	4691
928.638515510334	4804
931.280031606966	4747
933.920705394521	4716
936.560537359303	4767
939.199527986737	4775
941.837677761392	4733
944.474987167006	4731
947.111456686438	4771
949.747086801734	4804
952.38187799407	4806
955.015830743792	4852
957.648945530418	4848
960.281222832633	4920
962.91266312826	4821
965.543266894336	4803
968.173034607058	4773
970.801966741779	4760
973.43006377307	4775
976.057326174661	4706
978.683754419471	4789
981.309348979623	4711
983.93411032642	4695
986.558038930361	4764
989.181135261144	4768
991.803399787692	4779
994.424832978086	4768
997.045435299653	4815
999.665207218906	4755
1002.2841492016	4753
1004.90226171266	4715
1007.51954521628	4770
1010.13600017584	4817
1012.75162705397	4803
1015.3664263125	4805
1017.9803984125	4741
1020.5935438143	4814
1023.20586297741	4843
1025.81735636063	4828
1028.42802442196	4756
1031.03786761869	4832
1033.64688640732	4790
1036.2550812436	4940
1038.86245258255	4861
1041.46900087844	4862
1044.07472658479	4852
1046.67963015438	4857
1049.28371203927	4910
1051.88697269075	4699
1054.48941255943	4832
1057.09103209513	4773
1059.691831747	4928
1062.29181196343	4835
1064.89097319211	4878
1067.48931587999	4879
1070.08684047333	4774
1072.68354741766	4820
1075.27943715779	4847
1077.87451013787	5098
1080.46876680127	5468
1083.06220759071	6092
1085.65483294822	6259
1088.24664331509	5741
1090.83763913194	5240
1093.42782083869	4941
1096.01718887459	4888
1098.60574367818	4784
1101.19348568732	4775
1103.78041533919	4805
1106.3665330703	4750
1108.95183931646	4852
1111.53633451284	4864
1114.12001909391	4847
1116.70289349349	4893
1119.2849581447	4831
1121.86621348005	4789
1124.44665993134	4860
1127.02629792973	4839
1129.60512790574	4848
1132.18315028919	4836
1134.76036550929	4862
1137.3367739946	4928
1139.912376173	4939
1142.48717247176	4977
1145.06116331748	4927
1147.63434913616	4969
1150.20673035312	4862
1152.77830739307	4904
1155.34908068007	4816
1157.91905063757	4877
1160.48821768838	4934
1163.05658225471	4863
1165.6241447581	4961
1168.19090561951	4938
1170.75686525927	4966
1173.32202409708	4906
1175.88638255206	4970
1178.44994104269	4896
1181.01269998684	4827
1183.57465980182	4918
1186.13582090427	4869
1188.69618371026	4900
1191.25574863529	4880
1193.8145160942	4887
1196.37248650129	4827
1198.92966027025	4783
1201.48603781416	4839
1204.04161954556	4906
1206.59640587635	4796
1209.15039721788	4808
1211.70359398092	4885
1214.25599657564	4797
1216.80760541166	4894
1219.35842089801	4817
1221.90844344314	4931
1224.45767345496	4732
1227.00611134077	4842
1229.55375750736	4824
1232.10061236092	4848
1234.64667630707	4843
1237.1919497509	4958
1239.73643309692	4958
1242.28012674912	4969
1244.82303111089	4948
1247.36514658511	4914
1249.9064735741	4985
1252.44701247964	5007
1254.98676370294	4912
1257.52572764469	4881
1260.06390470506	4940
1262.60129528365	4971
1265.13789977954	4946
1267.67371859128	5062
1270.20875211688	5103
1272.74300075384	4959
1275.2764648991	5033
1277.80914494911	4935
1280.34104129978	5063
1282.87215434652	4987
1285.40248448419	4944
1287.93203210715	5038
1290.46079760927	5040
1292.98878138385	4903
1295.51598382375	5091
1298.04240532127	4977
1300.56804626822	5091
1303.09290705593	5076
1305.6169880752	5150
1308.14028971632	5093
1310.66281236913	5019
1313.18455642292	4999
1315.70552226653	5024
1318.22571028829	5122
1320.74512087603	5113
1323.26375441711	5142
1325.7816112984	5252
1328.29869190629	5104
1330.81499662666	5203
1333.33052584497	5275
1335.84527994613	5381
1338.35925931464	5413
1340.87246433446	5381
1343.38489538916	5345
1345.89655286177	5296
1348.40743713487	5226
1350.91754859059	5209
1353.42688761059	5288
1355.93545457606	5284
1358.44324986772	5271
1360.95027386588	5332
1363.45652695032	5280
1365.96200950042	5278
1368.4667218951	5282
1370.97066451281	5264
1373.47383773156	5247
1375.97624192891	5219
1378.47787748199	5287
1380.97874476746	5315
1383.47884416157	5363
1385.97817604009	5217
1388.4767407784	5257
1390.9745387514	5248
1393.47157033358	5246
1395.96783589898	5283
1398.46333582124	5289
1400.95807047354	5262
1403.45204022864	5247
1405.94524545889	5162
1408.4376865362	5216
1410.92936383205	5219
1413.42027771752	5185
1415.91042856328	5199
1418.39981673955	5186
1420.88844261615	5201
1423.37630656249	5245
1425.86340894757	5229
1428.34975013999	5271
1430.83533050792	5307
1433.32015041912	5343
1435.80421024098	5332
1438.28751034045	5397
1440.77005108411	5433
1443.25183283812	5473
1445.73285596824	5621
1448.21312083984	5677
1450.69262781791	5579
1453.17137726702	5592
1455.64936955137	5443
1458.12660503477	5497
1460.60308408063	5396
1463.07880705197	5444
1465.55377431145	5606
1468.02798622133	5447
1470.50144314348	5531
1472.97414543941	5423
1475.44609347024	5536
1477.91728759673	5480
1480.38772817924	5561
1482.85741557777	5512
1485.32635015194	5393
1487.79453226103	5489
1490.26196226391	5384
1492.72864051911	5557
1495.1945673848	5366
1497.65974321874	5440
1500.1241683784	5532
1502.58784322083	5536
1505.05076810274	5446
1507.51294338049	5481
1509.97436941009	5521
1512.43504654717	5589
1514.89497514704	5576
1517.35415556462	5592
1519.81258815451	5736
1522.27027327095	5841
1524.72721126784	5957
1527.18340249874	5786
1529.63884731684	5773
1532.09354607502	5688
1534.5474991258	5648
1537.00070682136	5616
1539.45316951355	5619
1541.90488755388	5585
1544.35586129353	5645
1546.80609108336	5692
1549.25557727385	5643
1551.70432021519	5640
1554.15232025725	5713
1556.59957774953	5757
1559.04609304125	5721
1561.49186648127	5716
1563.93689841815	5768
1566.38118920011	5722
1568.82473917506	5773
1571.2675486906	5756
1573.70961809399	5813
1576.15094773219	5818
1578.59153795184	5815
1581.03138909928	5804
1583.47050152051	5792
1585.90887556123	5938
1588.34651156686	5861
1590.78340988246	5996
1593.21957085283	5951
1595.65499482245	6037
1598.08968213547	5998
1600.52363313578	6015
1602.95684816694	5864
1605.38932757224	5845
1607.82107169462	5828
1610.25208087677	5832
1612.68235546107	5899
1615.1118957896	5874
1617.54070220415	5802
1619.96877504621	5738
1622.39611465701	5782
1624.82272137746	5735
1627.24859554818	5708
1629.67373750953	5835
1632.09814760155	5691
1634.52182616404	5738
1636.94477353647	5720
1639.36699005806	5683
1641.78847606776	5813
1644.20923190418	5795
1646.62925790573	5767
1649.04855441048	5746
1651.46712175628	5840
1653.88496028066	5794
1656.3020703209	5831
1658.71845221401	5858
1661.13410629671	5906
1663.54903290547	6009
1665.96323237649	5897
1668.37670504571	6016
1670.78945124877	5985
1673.20147132109	6026
1675.61276559779	6173
1678.02333441377	6063
1680.43317810362	5988
1682.84229700171	6186
1685.25069144213	6152
1687.65836175872	6083
1690.06530828507	6201
1692.47153135451	6165
1694.87703130009	6149
1697.28180845467	6249
1699.6858631508	6164
1702.08919572081	6193
1704.49180649676	6240
1706.89369581049	6170
1709.29486399355	6235
1711.69531137731	6314
1714.09503829282	6220
1716.49404507095	6190
1718.89233204229	6228
1721.28989953721	6274
1723.68674788581	6201
1726.08287741798	6162
1728.47828846338	6212
1730.87298135139	6181
1733.26695641119	6350
1735.66021397173	6352
1738.05275436169	6341
1740.44457790954	6367
1742.83568494354	6265
1745.22607579168	6386
1747.61575078175	6367
1750.00471024128	6390
1752.39295449761	6439
1754.78048387783	6437
1757.16729870881	6306
1759.5533993172	6470
1761.93878602942	6411
1764.32345917168	6458
1766.70741906995	6446
1769.09066604999	6436
1771.47320043735	6459
1773.85502255735	6476
1776.2361327351	6521
1778.61653129548	6500
1780.99621856318	6613
1783.37519486264	6653
1785.75346051813	6601
1788.13101585368	6675
1790.5078611931	6605
1792.88399686002	6699
1795.25942317785	6757
1797.63414046977	6687
1800.00814905878	6776
1802.38144926766	6728
1804.75404141898	6770
1807.12592583514	6736
1809.49710283829	6862
1811.86757275039	6722
1814.23733589322	6938
1816.60639258834	6722
1818.97474315712	6785
1821.34238792073	6847
1823.70932720012	6963
1826.07556131608	6890
1828.44109058918	6860
1830.8059153398	6783
1833.17003588812	6847
1835.53345255413	6836
1837.89616565765	6918
1840.25817551827	6861
1842.61948245541	7010
1844.9800867883	6900
1847.33998883598	6978
1849.69918891729	7006
1852.05768735091	7154
1854.4154844553	7011
1856.77258054875	7084
1859.12897594938	7064
1861.4846709751	7026
1863.83966594366	7039
1866.19396117261	7171
1868.54755697932	7092
1870.90045368099	7084
1873.25265159463	7148
1875.60415103708	7299
1877.95495232501	7247
1880.30505577486	7249
1882.65446170299	7351
1885.00317042548	7399
1887.35118225832	7350
1889.69849751726	7437
1892.04511651792	7401
1894.39103957574	7481
1896.73626700596	7397
1899.08079912368	7562
1901.42463624384	7511
1903.76777868116	7595
1906.11022675025	7631
1908.4519807655	7601
1910.79304104117	7677
1913.13340789134	7696
1915.47308162992	7583
1917.81206257067	7680
1920.15035102718	7858
1922.48794731286	7681
1924.82485174096	7776
1927.16106462461	7666
1929.49658627672	7806
1931.83141701008	7740
1934.1655571373	7796
1936.49900697085	7886
1938.83176682301	7858
1941.16383700594	7941
1943.49521783161	7786
1945.82590961186	7757
1948.15591265835	7848
1950.48522728262	7705
1952.81385379602	7962
1955.14179250976	7939
1957.46904373489	7840
1959.79560778233	7861
1962.12148496284	7888
1964.44667558701	7966
1966.77117996529	7824
1969.09499840799	7972
1971.41813122527	7940
1973.74057872714	8022
1976.06234122345	8132
1978.38341902391	8025
1980.7038124381	7968
1983.02352177543	8022
1985.34254734518	8099
1987.66088945649	8231
1989.97854841833	8234
1992.29552453956	8194
1994.61181812887	8202
1996.92742949483	8184
1999.24235894586	8302
2001.55660679023	8225
2003.87017333608	8326
2006.18305889143	8304
2008.49526376413	8372
2010.80678826189	8387
2013.1176326923	8422
2015.42779736282	8349
2017.73728258075	8548
2020.04608865326	8508
2022.3542158874	8549
2024.66166459008	8575
2026.96843506807	8637
2029.274527628	8648
2031.57994257637	8726
2033.88468021957	8650
2036.18874086383	8682
2038.49212481526	8830
2040.79483237983	8705
2043.0968638634	8688
2045.39821957169	8747
2047.69889981028	8781
2049.99890488462	8617
2052.29823510006	8730
2054.59689076181	8790
2056.89487217492	8824
2059.19217964437	8767
2061.48881347497	8818
2063.7847739714	8810
2066.08006143826	8932
2068.37467618	8735
2070.66861850093	8785
2072.96188870527	8913
2075.25448709707	8820
2077.54641398031	8804
2079.83766965881	8899
2082.12825443629	8909
2084.41816861634	8878
2086.70741250242	8815
2088.99598639789	8949
2091.28389060597	8870
2093.57112542978	8932
2095.85769117232	8911
2098.14358813644	8944
2100.42881662491	8989
2102.71337694037	8957
2104.99726938532	8848
2107.28049426219	8842
2109.56305187325	8908
2111.84494252069	9043
2114.12616650655	9032
2116.40672413278	8942
2118.68661570121	8991
2120.96584151355	9119
2123.24440187138	9103
2125.52229707622	9119
2127.79952742943	9052
2130.07609323227	9144
2132.35199478588	9081
2134.62723239132	9035
2136.90180634949	9176
2139.17571696123	9282
2141.44896452723	9161
2143.72154934809	9313
2145.99347172429	9247
2148.26473195623	9331
2150.53533034415	9308
2152.80526718821	9374
2155.07454278848	9342
2157.3431574449	9316
2159.61111145728	9414
2161.87840512538	9344
2164.1450387488	9274
2166.41101262707	9497
2168.67632705959	9363
2170.94098234567	9425
2173.20497878451	9340
2175.46831667519	9476
2177.73099631672	9329
2179.99301800797	9475
2182.25438204772	9438
2184.51508873466	9396
2186.77513836735	9421
2189.03453124427	9525
2191.29326766378	9457
2193.55134792416	9397
2195.80877232355	9499
2198.06554116004	9579
2200.32165473157	9371
2202.577113336	9458
2204.83191727111	9460
2207.08606683453	9419
2209.33956232384	9390
2211.59240403648	9408
2213.84459226982	9397
2216.09612732112	9483
2218.34700948753	9398
2220.59723906612	9442
2222.84681635385	9463
2225.09574164758	9517
2227.34401524408	9514
2229.59163744002	9322
2231.83860853197	9356
2234.08492881639	9370
2236.33059858968	9307
2238.5756181481	9431
2240.81998778784	9483
2243.06370780499	9455
2245.30677849555	9555
2247.54920015539	9462
2249.79097308033	9483
2252.03209756607	9454
2254.27257390822	9320
2256.51240240228	9503
2258.75158334369	9448
2260.99011702777	9325
2263.22800374976	9471
2265.46524380477	9373
2267.70183748786	9492
2269.93778509399	9398
2272.17308691801	9441
2274.40774325467	9442
2276.64175439866	9391
2278.87512064454	9477
2281.10784228682	9372
2283.33991961987	9522
2285.571352938	9440
2287.80214253541	9409
2290.03228870623	9535
2292.26179174449	9431
2294.4906519441	9431
2296.71886959892	9573
2298.9464450027	9398
2301.1733784491	9467
2303.39967023169	9396
2305.62532064395	9426
2307.85032997926	9489
2310.07469853093	9561
2312.29842659216	9517
2314.52151445608	9568
2316.7439624157	9515
2318.96577076397	9410
2321.18693979374	9370
2323.40746979777	9512
2325.62736106873	9442
2327.8466138992	9527
2330.06522858166	9507
2332.28320540853	9515
2334.50054467212	9538
2336.71724666465	9455
2338.93331167827	9330
2341.14874000501	9519
2343.36353193685	9350
2345.57768776564	9467
2347.79120778319	9476
2350.00409228117	9419
2352.21634155121	9525
2354.42795588482	9448
2356.63893557342	9505
2358.84928090838	9485
2361.05899218094	9372
2363.26806968228	9428
2365.47651370347	9387
2367.68432453552	9502
2369.89150246933	9487
2372.09804779571	9398
2374.30396080541	9289
2376.50924178907	9382
2378.71389103725	9381
2380.91790884042	9408
2383.12129548897	9332
2385.3240512732	9339
2387.52617648332	9320
2389.72767140946	9301
2391.92853634165	9320
2394.12877156985	9290
2396.32837738392	9478
2398.52735407365	9243
2400.72570192873	9237
2402.92342123875	9336
2405.12051229325	9208
2407.31697538167	9231
2409.51281079333	9379
2411.70801881751	9143
2413.90259974339	9233
2416.09655386004	9313
2418.28988145648	9348
2420.48258282162	9324
2422.6746582443	9287
2424.86610801325	9302
2427.05693241713	9271
2429.24713174452	9228
2431.43670628389	9205
2433.62565632365	9234
2435.81398215212	9178
2438.00168405752	9330
2440.18876232799	9222
2442.37521725158	9118
2444.56104911628	9185
2446.74625820994	9199
2448.93084482038	9104
2451.1148092353	9162
2453.29815174233	9142
2455.480872629	9176
2457.66297218275	9132
2459.84445069097	9069
2462.02530844092	9200
2464.2055457198	8986
2466.38516281471	9117
2468.56416001267	8991
2470.74253760061	9095
2472.92029586537	8991
2475.09743509372	9034
2477.27395557232	8921
2479.44985758777	9148
2481.62514142655	9099
2483.79980737508	9043
2485.97385571969	8945
2488.14728674661	8922
2490.32010074198	9101
2492.49229799188	8930
2494.66387878228	9025
2496.83484339905	8982
2499.00519212802	9002
2501.17492525488	9122
2503.34404306528	8954
2505.51254584473	9040
2507.6804338787	8907
2509.84770745254	9003
2512.01436685153	9141
2514.18041236085	8922
2516.34584426561	9044
2518.51066285081	9034
2520.67486840138	9067
2522.83846120214	9066
2525.00144153784	9087
2527.16380969314	9105
2529.32556595261	9084
2531.48671060072	9130
2533.64724392186	9196
2535.80716620033	9206
2537.96647772034	9058
2540.12517876602	8987
2542.2832696214	9139
2544.44075057041	9030
2546.59762189691	8988
2548.75388388466	8926
2550.90953681735	9111
2553.06458097853	9039
2555.21901665172	8981
2557.37284412031	9003
2559.5260636676	8942
2561.67867557684	9094
2563.83068013113	9126
2565.98207761351	8996
2568.13286830695	9118
2570.28305249429	8926
2572.43263045829	8931
2574.58160248163	8834
2576.72996884689	8886
2578.87772983655	8959
2581.02488573303	8942
2583.1714368186	8887
2585.31738337549	9005
2587.46272568582	8914
2589.60746403161	8966
2591.75159869479	8837
2593.89512995722	8963
2596.03805810061	8913
2598.18038340665	8929
2600.32210615686	8848
2602.46322663274	8805
2604.60374511563	8861
2606.74366188683	8809
2608.88297722751	8823
2611.02169141875	8848
2613.15980474156	8818
2615.29731747681	8912
2617.43422990532	8815
2619.57054230779	8804
2621.70625496483	8876
2623.84136815694	8902
2625.97588216456	8940
2628.10979726799	8821
2630.24311374746	8888
2632.3758318831	9007
2634.50795195493	8856
2636.6394742429	8988
2638.77039902682	8907
2640.90072658645	8865
2643.0304572014	8999
2645.15959115123	8861
2647.28812871538	8869
2649.41607017319	8805
2651.5434158039	8982
2653.67016588665	8996
2655.79632070049	9054
2657.92188052436	8763
2660.04684563711	8966
2662.17121631749	8966
2664.29499284413	8984
2666.41817549558	8841
2668.54076455027	9009
2670.66276028656	8876
2672.78416298267	9019
2674.90497291675	8931
2677.02519036682	8959
2679.14481561082	9091
2681.26384892658	8957
2683.38229059182	8907
2685.50014088417	8971
2687.61740008114	9042
2689.73406846017	8836
2691.85014629854	9137
2693.96563387347	8932
2696.08053146206	9050
2698.1948393413	8910
2700.3085577881	8982
2702.42168707924	8978
2704.53422749139	8972
2706.64617930112	9007
2708.75754278492	8921
2710.86831821913	8926
2712.97850588002	9039
2715.08810604372	8900
2717.19711898628	9011
2719.30554498363	9044
2721.41338431158	8876
2723.52063724586	8913
2725.62730406206	8991
2727.73338503569	9118
2729.83888044213	8921
2731.94379055664	9056
2734.04811565441	9076
2736.15185601048	9067
2738.25501189979	8859
2740.35758359718	9036
2742.45957137738	9016
2744.56097551499	9101
2746.6617962845	9158
2748.7620339603	8900
2750.86168881666	8963
2752.96076112774	9031
2755.05925116758	9018
2757.15715921012	9065
2759.25448552917	9114
2761.35123039843	9004
2763.44739409148	9051
2765.5429768818	9044
2767.63797904275	9014
2769.73240084756	9071
2771.82624256934	9024
2773.91950448113	8946
2776.01218685579	9119
2778.10428996609	9078
2780.19581408469	9087
2782.28675948414	9041
2784.37712643683	9254
2786.46691521507	9028
2788.55612609104	9128
2790.64475933678	9090
2792.73281522425	8980
2794.82029402525	9059
2796.90719601149	9048
2798.99352145453	8985
2801.07927062583	8952
2803.16444379672	9029
2805.24904123841	9084
2807.33306322197	9032
2809.41651001838	9117
2811.49938189847	9124
2813.58167913296	9098
2815.66340199243	9181
2817.74455074734	9078
2819.82512566805	9102
2821.90512702475	9125
2823.98455508754	9138
2826.06341012637	9131
2828.14169241109	9074
2830.2194022114	9214
2832.29653979686	9089
2834.37310543694	9301
2836.44909940096	9342
2838.5245219581	9328
2840.59937337744	9346
2842.67365392791	9387
2844.74736387829	9235
2846.82050349727	9367
2848.8930730534	9308
2850.96507281506	9466
2853.03650305056	9457
2855.10736402802	9506
2857.17765601545	9472
2859.24737928074	9485
2861.31653409164	9574
2863.38512071574	9589
2865.45313942054	9498
2867.52059047335	9561
2869.58747414139	9733
2871.65379069173	9645
2873.7195403913	9602
2875.78472350688	9587
2877.84934030515	9539
2879.91339105262	9664
2881.97687601567	9620
2884.03979546053	9533
2886.10214965332	9621
2888.16393886	9736
2890.22516334639	9680
2892.28582337816	9598
2894.34591922087	9810
2896.40545113992	9585
2898.46441940054	9829
2900.52282426787	9736
2902.58066600687	9697
2904.63794488237	9706
2906.69466115906	9609
2908.75081510147	9686
2910.806406974	9617
2912.8614370409	9710
2914.91590556626	9906
2916.96981281404	9720
2919.02315904807	9832
2921.07594453199	9806
2923.12816952932	9715
2925.17983430343	9746
2927.23093911753	9658
2929.28148423469	9525
2931.33146991782	9570
2933.3808964297	9599
2935.42976403294	9574
2937.47807299	9525
2939.5258235632	9521
2941.57301601469	9566
2943.61965060648	9521
2945.66572760042	9548
2947.71124725823	9567
2949.75620984143	9550
2951.80061561143	9583
2953.84446482945	9613
2955.88775775656	9587
2957.9304946537	9538
2959.97267578162	9365
2962.01430140095	9435
2964.05537177211	9591
2966.09588715541	9422
2968.13584781097	9530
2970.17525399875	9493
2972.21410597859	9382
2974.25240401011	9477
2976.29014835283	9490
2978.32733926604	9552
2980.36397700892	9479
2982.40006184049	9547
2984.43559401955	9427
2986.4705738048	9383
2988.50500145473	9524
2990.53887722771	9673
2992.57220138189	9486
2994.6049741753	9582
2996.63719586576	9629
2998.66886671097	9496
3000.69998696843	9596
3002.73055689549	9688
3004.7605767493	9569
3006.79004678688	9696
3008.81896726505	9594
3010.84733844048	9513
3012.87516056966	9709
3014.9024339089	9665
3016.92915871433	9867
3018.95533524196	9872
3020.98096374756	9747
3023.00604448675	9829
3025.030577715	9875
3027.05456368757	9831
3029.07800265956	9904
3031.10089488589	9781
3033.12324062131	9858
3035.14504012038	9834
3037.16629363749	9895
3039.18700142685	9849
3041.20716374249	9949
3043.22678083826	9947
3045.24585296782	9926
3047.26438038468	9944
3049.28236334212	9926
3051.29980209329	9966
3053.31669689111	9878
3055.33304798835	9880
3057.34885563757	9822
3059.36412009117	9938
3061.37884160134	9823
3063.39302042011	9920
3065.40665679931	9928
3067.41975099058	9960
3069.43230324538	9853
3071.44431381495	9750
3073.45578295041	10028
3075.46671090261	9912
3077.47709792227	9832
3079.48694425989	9901
3081.49625016578	10041
3083.50501589008	9874
3085.5132416827	9957
3087.5209277934	9852
3089.52807447169	9934
3091.53468196695	9949
3093.54075052832	9795
3095.54628040476	9975
3097.55127184503	9992
3099.55572509769	9907
3101.55964041111	9927
3103.56301803346	9863
3105.5658582127	10042
3107.56816119661	10005
3109.56992723275	9858
3111.57115656849	9946
3113.571849451	9790
3115.57200612724	10023
3117.57162684397	9945
3119.57071184775	10056
3121.56926138493	9919
3123.56727570166	10037
3125.56475504389	10040
3127.56169965735	10024
3129.55810978757	10072
3131.55398567987	10093
3133.54932757937	10077
3135.54413573099	10115
3137.53841037939	10038
3139.53215176909	10113
3141.52536014435	10053
3143.51803574924	10184
3145.51017882762	10074
3147.50178962311	10281
3149.49286837916	10077
3151.48341533897	10185
3153.47343074553	10279
3155.46291484164	10295
3157.45186786985	10206
3159.44029007252	10139
3161.42818169179	10193
3163.41554296955	10209
3165.40237414753	10258
3167.38867546718	10227
3169.37444716975	10076
3171.35968949631	10241
3173.34440268764	10243
3175.32858698436	10304
3177.31224262682	10187
3179.29536985517	10289
3181.27796890934	10229
3183.26004002902	10195
3185.24158345368	10241
3187.22259942256	10359
3189.2030881747	10190
3191.18304994886	10320
3193.16248498363	10298
3195.14139351733	10300
3197.11977578807	10315
3199.09763203371	10441
3201.07496249191	10312
3203.05176740007	10303
3205.02804699537	10284
3207.00380151475	10325
3208.97903119493	10336
3210.95373627238	10418
3212.92791698335	10435
3214.90157356383	10302
3216.8747062496	10451
3218.84731527619	10494
3220.81940087889	10408
3222.79096329275	10491
3224.76200275259	10459
3226.73251949298	10463
3228.70251374825	10510
3230.67198575251	10431
3232.64093573959	10565
3234.6093639431	10693
3236.57727059641	10631
3238.54465593261	10654
3240.51152018461	10689
3242.47786358502	10621
3244.44368636621	10667
3246.40898876031	10656
3248.37377099923	10793
3250.33803331458	10704
3252.30177593775	10732
3254.26499909987	10797
3256.22770303184	10803
3258.18988796427	10775
3260.15155412755	10870
3262.1127017518	10644
3264.0733310669	10729
3266.03344230246	10684
3267.99303568784	10694
3269.95211145215	10672
3271.91066982422	10869
3273.86871103267	10651
3275.82623530581	10815
3277.7832428717	10811
3279.73973395818	10791
3281.69570879278	10800
3283.6511676028	11045
3285.60611061527	10824
3287.56053805694	10888
3289.51445015432	10774
3291.46784713364	10842
3293.42072922088	10881
3295.37309664173	10692
3297.32494962163	10742
3299.27628838575	10851
3301.227113159	10938
3303.17742416601	10928
3305.12722163114	10966
3307.07650577848	10933
3309.02527683185	10921
3310.9735350148	10919
3312.9212805506	11009
3314.86851366225	10881
3316.81523457249	10915
3318.76144350377	10992
3320.70714067825	10927
3322.65232631783	10761
3324.59700064415	10902
3326.54116387854	10880
3328.48481624207	10816
3330.42795795551	10778
3332.37058923938	10851
3334.31271031389	10848
3336.25432139898	10876
3338.19542271432	10912
3340.13601447927	10838
3342.07609691292	10768
3344.01567023407	10863
3345.95473466124	10774
3347.89329041266	10897
3349.83133770627	10775
3351.76887675973	10845
3353.70590779039	10847
3355.64243101534	10866
3357.57844665135	10698
3359.51395491492	10860
3361.44895602224	10795
3363.38345018922	10910
3365.31743763148	10864
3367.25091856432	10761
3369.18389320278	10798
3371.11636176156	10769
3373.0483244551	10828
3374.97978149754	10853
3376.91073310269	11014
3378.84117948409	10931
3380.77112085498	10831
3382.70055742826	11039
3384.62948941659	10965
3386.55791703227	10917
3388.48584048733	10944
3390.41325999348	11150
3392.34017576214	11068
3394.2665880044	11132
3396.19249693107	11160
3398.11790275263	10882
3400.04280567926	11095
3401.96720592084	11086
3403.89110368692	11053
3405.81449918675	11083
3407.73739262928	10992
3409.65978422311	11120
3411.58167417658	11101
3413.50306269768	11065
3415.42394999408	11127
3417.34433627316	11185
3419.26422174195	11152
3421.18360660721	10935
3423.10249107532	11009
3425.02087535239	10983
3426.93875964421	11024
3428.8561441562	11020
3430.77302909353	10964
3432.68941466097	11035
3434.60530106301	11103
3436.52068850383	11008
3438.43557718726	11006
3440.34996731681	10940
3442.26385909565	11047
3444.17725272664	10980
3446.09014841231	10956
3448.00254635486	11020
3449.91444675614	11003
3451.82584981771	10918
3453.73675574076	11012
3455.64716472616	11062
3457.55707697445	10786
3459.46649268584	10948
3461.37541206018	10912
3463.28383529703	10922
3465.19176259555	10900
3467.09919415464	10896
3469.00613017278	10823
3470.91257084817	10795
3472.81851637863	10918
3474.72396696168	11044
3476.62892279446	10864
3478.53338407379	10767
3480.43735099614	10714
3482.34082375764	10800
3484.24380255404	10924
3486.1462875808	10750
3488.048279033	10744
3489.94977710537	10931
3491.85078199231	10919
3493.75129388783	10767
3495.65131298566	10785
3497.5508394791	10850
3499.44987356115	10844