200.090469251518	2283
202.974751419362	2301.25
205.858021632263	2276.5
208.740280737522	2305
211.621529580443	2308
214.501769004371	2297.75
217.380999850626	2319
220.25922295859	2320.25
223.136439165646	2323.5
226.012649307235	2331
228.88785421682	2331.5
231.762054725918	2346
234.635251664113	2340
237.507445859021	2367.75
240.378638136346	2362.5
243.248829319855	2363
246.11802023137	2355
248.986211690826	2380.75
251.853404516227	2410.25
254.719599523654	2385
257.584797527335	2412.75
260.44899933954	2420.75
263.312205770682	2435.75
266.174417629303	2420
269.035635722015	2445
271.895860853609	2438.5
274.755093826978	2413.25
277.613335443144	2466.25
280.470586501309	2470
283.326847798766	2478.75
286.182120131019	2479.5
289.036404291684	2470.5
291.889701072574	2494.75
294.742011263643	2494.25
297.593335653048	2501.5
300.443675027094	2483.5
303.293030170295	2487
306.141401865367	2520
308.988790893174	2521.75
311.835198032837	2500.5
314.680624061635	2516.75
317.525069755113	2511.75
320.36853588697	2530.75
323.211023229178	2501.5
326.052532551923	2539.75
328.893064623604	2519.5
331.732620210885	2557.5
334.57120007867	2564.25
337.408804990093	2540.5
340.245435706565	2574.5
343.081092987733	2594.25
345.915777591523	2581
348.749490274145	2611.25
351.582231790049	2603.75
354.414002891997	2588.5
357.244804331021	2639.25
360.074636856443	2657.5
362.903501215886	2641.25
365.731398155265	2624
368.558328418814	2664.5
371.384292749062	2672
374.209291886869	2664.5
377.033326571407	2659.75
379.85639754017	2666.25
382.678505529009	2688.25
385.499651272065	2672.75
388.319835501872	2677.5
391.139058949258	2677
393.957322343453	2680
396.774626412011	2688.25
399.590971880847	2689.75
402.406359474258	2722.75
405.220789914893	2756
408.034263923801	2713.75
410.8467822204	2757.25
413.658345522483	2773.25
416.468954546242	2808
419.278610006277	2737
422.087312615557	2795.5
424.895063085503	2784.75
427.701862125901	2812.25
430.507710444981	2832.25
433.312608749366	2805.25
436.116557744146	2833.75
438.919558132791	2829.5
441.721610617238	2838.25
444.522715897856	2856.75
447.322874673457	2821.5
450.122087641299	2865
452.920355497092	2837
455.717678935009	2843.5
458.514058647681	2847.75
461.309495326219	2905
464.103989660191	2865.75
466.89754233765	2878
469.690154045114	2909.25
472.481825467625	2884.75
475.272557288674	2866
478.062350190281	2870.25
480.851204852952	2920.75
483.639121955683	2912.75
486.426102176007	2926
489.212146189955	2945.25
491.997254672093	2966.25
494.781428295471	2988.75
497.564667731716	2995.75
500.346973650958	3021.75
503.128346721878	3005
505.90878761169	2987.25
508.688296986151	3041.75
511.46687550957	3040.25
514.244523844831	3019
517.021242653354	3049
519.797032595132	3066.5
522.571894328732	3035.5
525.345828511279	3067.75
528.11883579849	3094
530.890916844655	3082
533.662072302668	3082.25
536.432302823985	3095.75
539.201609058684	3077
541.96999165542	3080
544.737451261473	3074.25
547.503988522723	3090.5
550.26960408366	3088
553.034298587394	3116.75
555.798072675669	3089.25
558.560926988819	3112.25
561.322862165849	3144
564.083878844369	3128.25
566.843977660654	3138.5
569.603159249604	3153.5
572.361424244769	3117.75
575.118773278369	3160.5
577.87520698124	3195
580.630725982905	3199.75
583.385330911566	3202.25
586.139022394076	3263.5
588.891801055954	3265
591.643667521406	3242.75
594.394622413318	3259
597.144666353273	3271.75
599.893799961512	3292.5
602.64202385701	3275.25
605.389338657413	3266
608.135744979089	3279.25
610.881243437092	3256.25
613.625834645191	3278.75
616.369519215881	3258.75
619.112297760374	3262
621.854170888604	3329.5
624.595139209225	3258.25
627.335203329614	3274.5
630.074363855914	3313.5
632.81262139299	3290.5
635.549976544436	3302
638.286429912612	3266.75
641.021982098635	3339.25
643.756633702364	3324.25
646.49038532241	3346.5
649.223237556176	3321
651.955190999808	3342.5
654.686246248224	3398.5
657.416403895135	3384.5
660.145664533011	3407
662.874028753133	3410
665.601497145537	3426.75
668.328070299071	3440.5
671.05374880138	3476
673.778533238885	3445
676.502424196839	3513
679.225422259297	3515.5
681.947528009099	3555
684.668742027927	3580.5
687.389064896281	3520
690.108497193465	3512
692.827039497621	3491.5
695.544692385724	3522.5
698.261456433585	3507
700.977332215847	3478.75
703.692320305981	3504.25
706.406421276337	3531.25
709.11963569808	3501
711.831964141256	3537.5
714.54340717474	3543.75
717.253965366304	3555.5
719.963639282552	3521.75
722.672429488961	3517
725.380336549904	3533.5
728.087361028596	3622.5
730.793503487166	3584
733.498764486594	3591.25
736.203144586758	3597.5
738.906644346447	3570.5
741.60926432331	3673.25
744.311005073912	3643.5
747.011867153727	3663.25
749.711851117121	3631.75
752.410957517375	3674.75
755.109186906677	3657
757.806539836132	3653.25
760.503016855779	3649
763.198618514551	3679
765.893345360346	3700.25
768.587197939964	3721.75
771.28017679914	3743.75
773.972282482566	3704
776.663515533859	3697.25
779.353876495581	3665.75
782.043365909241	3729.75
784.731984315327	3710.5
787.419732253235	3708.75
790.106610261366	3692.25
792.792618877058	3746.5
795.477758636618	3717.75
798.162030075313	3765.5
800.845433727423	3715.5
803.52797012615	3672.75
806.209639803714	3758.25
808.890443291304	3749.25
811.570381119098	3789.75
814.249453816265	3806
816.927661910959	3779.75
819.60500593036	3788.75
822.281486400603	3803.5
824.957103846864	3805.5
827.631858793316	3837.25
830.305751763135	3830.75
832.978783278519	3861
835.650953860677	3869.75
838.322264029848	3846.75
840.992714305292	3886.5
843.662305205289	3913.75
846.331037247157	3884
848.998910947241	3895
851.665926820933	3864.5
854.332085382674	3915.75
856.997387145915	3919.75
859.661832623191	3913.25
862.325422326066	3944.5
864.988156765172	3931.5
867.650036450181	3981
870.311061889846	3912.25
872.971233591961	3951.75
875.630552063409	3933
878.28901781013	3940.75
880.946631337138	3940.25
883.603393148533	3940
886.259303747484	3947.5
888.914363636246	3936.25
891.568573316155	3961.5
894.22193328767	3924.75
896.874444050281	3942.25
899.526106102625	3937
902.176919942416	3994.5
904.826886066483	3955.75
907.476004970747	3981.25
910.124277150255	4010
912.77170309913	4014.5
915.418283310642	4058
918.064018277175	4014.75
920.708908490222	4055.5
923.352954440405	4020.25
925.996156617486	4050.75
928.638515510334	4070.75
931.280031606966	4070.75
933.920705394521	4080
936.560537359303	4077.5
939.199527986737	4077.5
941.837677761392	4092.25
944.474987167006	4095.75
947.111456686438	4067.5
949.747086801734	4142.75
952.38187799407	4082.75
955.015830743792	4147.5
957.648945530418	4144.75
960.281222832633	4129.25
962.91266312826	4136.5
965.543266894336	4128.25
968.173034607058	4075
970.801966741779	4160.5
973.43006377307	4145.25
976.057326174661	4171.25
978.683754419471	4129.75
981.309348979623	4150
983.93411032642	4131.25
986.558038930361	4121
989.181135261144	4165.25
991.803399787692	4157.25
994.424832978086	4194.5
997.045435299653	4186.5
999.665207218906	4194.25
1002.2841492016	4187.75
1004.90226171266	4231
1007.51954521628	4213.75
1010.13600017584	4222.25
1012.75162705397	4233.25
1015.3664263125	4224
1017.9803984125	4246.75
1020.5935438143	4289.5
1023.20586297741	4282.75
1025.81735636063	4321.75
1028.42802442196	4273.75
1031.03786761869	4336.75
1033.64688640732	4332
1036.2550812436	4340
1038.86245258255	4350.5
1041.46900087844	4332.75
1044.07472658479	4373
1046.67963015438	4410
1049.28371203927	4439.5
1051.88697269075	4481.5
1054.48941255943	4588.25
1057.09103209513	4864.25
1059.691831747	4958.5
1062.29181196343	5041.25
1064.89097319211	4854
1067.48931587999	4637.5
1070.08684047333	4510.25
1072.68354741766	4472.25
1075.27943715779	4477.25
1077.87451013787	4494.25
1080.46876680127	4491
1083.06220759071	4472.5
1085.65483294822	4460.5
1088.24664331509	4449
1090.83763913194	4465
1093.42782083869	4467.25
1096.01718887459	4517
1098.60574367818	4450.75
1101.19348568732	4507.25
1103.78041533919	4498
1106.3665330703	4548.5
1108.95183931646	4549.25
1111.53633451284	4539.75
1114.12001909391	4566.75
1116.70289349349	4670.5
1119.2849581447	4825.75
1121.86621348005	5163.5
1124.44665993134	5609.5
1127.02629792973	5961.75
1129.60512790574	5903
1132.18315028919	5463.5
1134.76036550929	5037.5
1137.3367739946	4833.5
1139.912376173	4657.75
1142.48717247176	4626
1145.06116331748	4663.5
1147.63434913616	4645
1150.20673035312	4594.25
1152.77830739307	4620.5
1155.34908068007	4567.25
1157.91905063757	4611.75
1160.48821768838	4614.5
1163.05658225471	4593
1165.6241447581	4547.75
1168.19090561951	4608.75
1170.75686525927	4613.25
1173.32202409708	4629
1175.88638255206	4567.5
1178.44994104269	4508.25
1181.01269998684	4562
1183.57465980182	4562.25
1186.13582090427	4564.5
1188.69618371026	4596
1191.25574863529	4593.25
1193.8145160942	4544
1196.37248650129	4598.75
1198.92966027025	4554.25
1201.48603781416	4548.5
1204.04161954556	4503.5
1206.59640587635	4535.75
1209.15039721788	4530.5
1211.70359398092	4581.25
1214.25599657564	4568.25
1216.80760541166	4529.75
1219.35842089801	4583.75
1221.90844344314	4611.5
1224.45767345496	4618.75
1227.00611134077	4600.25
1229.55375750736	4598.75
1232.10061236092	4618.25
1234.64667630707	4643.5
1237.1919497509	4581.5
1239.73643309692	4610.25
1242.28012674912	4621.25
1244.82303111089	4661.5
1247.36514658511	4675
1249.9064735741	4677.75
1252.44701247964	4737.5
1254.98676370294	4712.5
1257.52572764469	4730.75
1260.06390470506	4713
1262.60129528365	4760.25
1265.13789977954	4768
1267.67371859128	4831
1270.20875211688	4803.5
1272.74300075384	4790.75
1275.2764648991	4859
1277.80914494911	4812
1280.34104129978	4935.25
1282.87215434652	4908.5
1285.40248448419	4970.75
1287.93203210715	5183.25
1290.46079760927	5520.5
1292.98878138385	5917
1295.51598382375	5879.5
1298.04240532127	5464
1300.56804626822	5182.5
1303.09290705593	4980.25
1305.6169880752	4945
1308.14028971632	4946.5
1310.66281236913	4942.5
1313.18455642292	4905.75
1315.70552226653	4874.75
1318.22571028829	4915.75
1320.74512087603	4955.25
1323.26375441711	4893
1325.7816112984	4873.25
1328.29869190629	4951
1330.81499662666	4990
1333.33052584497	4930
1335.84527994613	5015.75
1338.35925931464	5063.25
1340.87246433446	5082.25
1343.38489538916	5034.25
1345.89655286177	5049.25
1348.40743713487	5013.5
1350.91754859059	5055.5
1353.42688761059	5056.25
1355.93545457606	5078.5
1358.44324986772	5136.75
1360.95027386588	5140
1363.45652695032	5077.5
1365.96200950042	5132
1368.4667218951	5132
1370.97066451281	5165.25
1373.47383773156	5062.5
1375.97624192891	5078.5
1378.47787748199	5003.5
1380.97874476746	5068.25
1383.47884416157	5058.75
1385.97817604009	5075.25
1388.4767407784	5047.25
1390.9745387514	5010.25
1393.47157033358	5004.5
1395.96783589898	5070.75
1398.46333582124	4975.75
1400.95807047354	5038
1403.45204022864	5049.5
1405.94524545889	5048.75
1408.4376865362	5226.25
1410.92936383205	5405.5
1413.42027771752	5790
1415.91042856328	5931.5
1418.39981673955	5788.75
1420.88844261615	5554.75
1423.37630656249	5401.25
1425.86340894757	5320.5
1428.34975013999	5382
1430.83533050792	5421
1433.32015041912	5459.75
1435.80421024098	5512.5
1438.28751034045	5602
1440.77005108411	5575
1443.25183283812	5580.75
1445.73285596824	5541.5
1448.21312083984	5534
1450.69262781791	5571.75
1453.17137726702	5514
1455.64936955137	5592.5
1458.12660503477	5559.25
1460.60308408063	5566.75
1463.07880705197	5564.75
1465.55377431145	5485.75
1468.02798622133	5500.5
1470.50144314348	5433
1472.97414543941	5367
1475.44609347024	5417.5
1477.91728759673	5413.25
1480.38772817924	5404.5
1482.85741557777	5357.5
1485.32635015194	5330
1487.79453226103	5370.5
1490.26196226391	5334
1492.72864051911	5374.75
1495.1945673848	5335.5
1497.65974321874	5383.25
1500.1241683784	5400.5
1502.58784322083	5456
1505.05076810274	5415
1507.51294338049	5450.75
1509.97436941009	5366.25
1512.43504654717	5382.75
1514.89497514704	5377.5
1517.35415556462	5408.75
1519.81258815451	5408.5
1522.27027327095	5409.25
1524.72721126784	5442.25
1527.18340249874	5480.5
1529.63884731684	5473
1532.09354607502	5541.5
1534.5474991258	5565.25
1537.00070682136	5602.25
1539.45316951355	5591
1541.90488755388	5590.25
1544.35586129353	5543
1546.80609108336	5569.75
1549.25557727385	5503.75
1551.70432021519	5616.75
1554.15232025725	5590
1556.59957774953	5593
1559.04609304125	5700
1561.49186648127	5640.75
1563.93689841815	5656.75
1566.38118920011	5688
1568.82473917506	5680.5
1571.2675486906	5670
1573.70961809399	5721
1576.15094773219	5727.75
1578.59153795184	5729.75
1581.03138909928	5742.75
1583.47050152051	5720
1585.90887556123	5757.25
1588.34651156686	5755
1590.78340988246	5751.25
1593.21957085283	5730.25
1595.65499482245	5785.25
1598.08968213547	5766.75
1600.52363313578	5738
1602.95684816694	5751.25
1605.38932757224	5748.75
1607.82107169462	5733.25
1610.25208087677	5706.75
1612.68235546107	5755.75
1615.1118957896	5747
1617.54070220415	5738
1619.96877504621	5644
1622.39611465701	5737.75
1624.82272137746	5720.5
1627.24859554818	5718
1629.67373750953	5759.5
1632.09814760155	5726.25
1634.52182616404	5674
1636.94477353647	5745.75
1639.36699005806	5711.25
1641.78847606776	5771.25
1644.20923190418	5716.5
1646.62925790573	5755
1649.04855441048	5743
1651.46712175628	5809.25
1653.88496028066	5796.75
1656.3020703209	5856.75
1658.71845221401	5863.5
1661.13410629671	5883.5
1663.54903290547	5908
1665.96323237649	5929.25
1668.37670504571	5912.75
1670.78945124877	5914.5
1673.20147132109	5965.25
1675.61276559779	6044
1678.02333441377	5998.75
1680.43317810362	6041
1682.84229700171	6058.25
1685.25069144213	6077.75
1687.65836175872	6111.25
1690.06530828507	6132.5
1692.47153135451	6069.75
1694.87703130009	6098
1697.28180845467	6179.75
1699.6858631508	6120.5
1702.08919572081	6171
1704.49180649676	6153
1706.89369581049	6213.75
1709.29486399355	6179
1711.69531137731	6191.25
1714.09503829282	6154
1716.49404507095	6159.25
1718.89233204229	6159.5
1721.28989953721	6165.25
1723.68674788581	6097.5
1726.08287741798	6192
1728.47828846338	6220.5
1730.87298135139	6159.5
1733.26695641119	6194.25
1735.66021397173	6195.5
1738.05275436169	6206
1740.44457790954	6173
1742.83568494354	6211.75
1745.22607579168	6222.5
1747.61575078175	6225.5
1750.00471024128	6230.25
1752.39295449761	6240
1754.78048387783	6211.75
1757.16729870881	6193.5
1759.5533993172	6224.5
1761.93878602942	6236
1764.32345917168	6303.5
1766.70741906995	6356
1769.09066604999	6317.5
1771.47320043735	6319.5
1773.85502255735	6361.75
1776.2361327351	6327.75
1778.61653129548	6372.25
1780.99621856318	6442
1783.37519486264	6433
1785.75346051813	6472
1788.13101585368	6440
1790.5078611931	6453.25
1792.88399686002	6482.25
1795.25942317785	6515.25
1797.63414046977	6515.25
1800.00814905878	6488.5
1802.38144926766	6520.75
1804.75404141898	6527.25
1807.12592583514	6511
1809.49710283829	6580.25
1811.86757275039	6549.25
1814.23733589322	6592
1816.60639258834	6572
1818.97474315712	6567.75
1821.34238792073	6635.75
1823.70932720012	6607.75
1826.07556131608	6580.75
1828.44109058918	6610.75
1830.8059153398	6653
1833.17003588812	6617
1835.53345255413	6573.5
1837.89616565765	6604.25
1840.25817551827	6611.75
1842.61948245541	6637
1844.9800867883	6631.75
1847.33998883598	6635
1849.69918891729	6625.5
1852.05768735091	6756
1854.4154844553	6653
1856.77258054875	6668.5
1859.12897594938	6721.25
1861.4846709751	6682.5
1863.83966594366	6673.75
1866.19396117261	6733.25
1868.54755697932	6706.25
1870.90045368099	6776.75
1873.25265159463	6734
1875.60415103708	6773.5
1877.95495232501	6875.5
1880.30505577486	6860.25
1882.65446170299	6872.25
1885.00317042548	6943.5
1887.35118225832	6899
1889.69849751726	6937.25
1892.04511651792	6959
1894.39103957574	7028
1896.73626700596	6997.25
1899.08079912368	7037.25
1901.42463624384	7104.75
1903.76777868116	7065.75
1906.11022675025	7096.25
1908.4519807655	7079.5
1910.79304104117	7127.75
1913.13340789134	7164.75
1915.47308162992	7136.5
1917.81206257067	7191.75
1920.15035102718	7218.25
1922.48794731286	7193.25
1924.82485174096	7205.25
1927.16106462461	7263.75
1929.49658627672	7223.5
1931.83141701008	7218
1934.1655571373	7168.25
1936.49900697085	7223.5
1938.83176682301	7282.75
1941.16383700594	7265.25
1943.49521783161	7266.25
1945.82590961186	7207.5
1948.15591265835	7212.25
1950.48522728262	7183
1952.81385379602	7210.25
1955.14179250976	7217.5
1957.46904373489	7258.25
1959.79560778233	7273
1962.12148496284	7241.5
1964.44667558701	7222.5
1966.77117996529	7255
1969.09499840799	7315.75
1971.41813122527	7339.75
1973.74057872714	7384
1976.06234122345	7368.25
1978.38341902391	7343.75
1980.7038124381	7354.5
1983.02352177543	7428.75
1985.34254734518	7403.25
1987.66088945649	7484.5
1989.97854841833	7498.75
1992.29552453956	7504.5
1994.61181812887	7427.25
1996.92742949483	7546.75
1999.24235894586	7584.75
2001.55660679023	7573.25
2003.87017333608	7591.5
2006.18305889143	7650.25
2008.49526376413	7614
2010.80678826189	7632.5
2013.1176326923	7723
2015.42779736282	7710.25
2017.73728258075	7706
2020.04608865326	7747.25
2022.3542158874	7672.75
2024.66166459008	7876.5
2026.96843506807	7838.25
2029.274527628	7905
2031.57994257637	7888
2033.88468021957	7873
2036.18874086383	7895.25
2038.49212481526	7935.25
2040.79483237983	7951.75
2043.0968638634	7955
2045.39821957169	8051
2047.69889981028	8050.75
2049.99890488462	7985
2052.29823510006	8041
2054.59689076181	8038
2056.89487217492	8073.5
2059.19217964437	8044.75
2061.48881347497	8016.5
2063.7847739714	8093.25
2066.08006143826	8092.5
2068.37467618	8069.75
2070.66861850093	8146.75
2072.96188870527	8117.25
2075.25448709707	8119
2077.54641398031	8159.25
2079.83766965881	8142.75
2082.12825443629	8123.5
2084.41816861634	8152.75
2086.70741250242	8128.5
2088.99598639789	8219.25
2091.28389060597	8185.75
2093.57112542978	8236.5
2095.85769117232	8220.25
2098.14358813644	8233.25
2100.42881662491	8197.5
2102.71337694037	8298.75
2104.99726938532	8238
2107.28049426219	8245.5
2109.56305187325	8374.75
2111.84494252069	8419
2114.12616650655	8355.25
2116.40672413278	8416.25
2118.68661570121	8334.75
2120.96584151355	8451
2123.24440187138	8537.25
2125.52229707622	8492.25
2127.79952742943	8453.25
2130.07609323227	8532.25
2132.35199478588	8600
2134.62723239132	8627.25
2136.90180634949	8619.5
2139.17571696123	8574
2141.44896452723	8750.5
2143.72154934809	8674.75
2145.99347172429	8682
2148.26473195623	8735.5
2150.53533034415	8830.5
2152.80526718821	8887.75
2155.07454278848	8841.25
2157.3431574449	8845.5
2159.61111145728	8919.75
2161.87840512538	8870.75
2164.1450387488	8903.5
2166.41101262707	8922.25
2168.67632705959	8947.5
2170.94098234567	8991.5
2173.20497878451	8899.75
2175.46831667519	9007
2177.73099631672	9047.5
2179.99301800797	9022
2182.25438204772	9015.5
2184.51508873466	9037.75
2186.77513836735	9029
2189.03453124427	9038.5
2191.29326766378	9117
2193.55134792416	9119.75
2195.80877232355	9165.5
2198.06554116004	9117
2200.32165473157	9113.5
2202.577113336	9194
2204.83191727111	9169.25
2207.08606683453	9221
2209.33956232384	9201
2211.59240403648	9135.5
2213.84459226982	9182.5
2216.09612732112	9214
2218.34700948753	9155.5
2220.59723906612	9254.75
2222.84681635385	9282.75
2225.09574164758	9195.5
2227.34401524408	9291.5
2229.59163744002	9302.75
2231.83860853197	9308.75
2234.08492881639	9282.25
2236.33059858968	9240.5
2238.5756181481	9370.25
2240.81998778784	9403
2243.06370780499	9340.25
2245.30677849555	9359.25
2247.54920015539	9336.5
2249.79097308033	9414.5
2252.03209756607	9381.25
2254.27257390822	9373.25
2256.51240240228	9374.75
2258.75158334369	9397.75
2260.99011702777	9458.25
2263.22800374976	9462.25
2265.46524380477	9487.5
2267.70183748786	9473.25
2269.93778509399	9608
2272.17308691801	9493.25
2274.40774325467	9619.25
2276.64175439866	9576
2278.87512064454	9603.5
2281.10784228682	9548.5
2283.33991961987	9617.75
2285.571352938	9575.25
2287.80214253541	9588.5
2290.03228870623	9651.25
2292.26179174449	9699.25
2294.4906519441	9722.75
2296.71886959892	9705.25
2298.9464450027	9681.5
2301.1733784491	9694.25
2303.39967023169	9706.75
2305.62532064395	9718.5
2307.85032997926	9692.25
2310.07469853093	9739.5
2312.29842659216	9734.75
2314.52151445608	9835.25
2316.7439624157	9767.5
2318.96577076397	9809
2321.18693979374	9824.25
2323.40746979777	9916.25
2325.62736106873	9836
2327.8466138992	9905.5
2330.06522858166	9895.75
2332.28320540853	9940.75
2334.50054467212	9935
2336.71724666465	9877.5
2338.93331167827	9976
2341.14874000501	9969.5
2343.36353193685	9882.25
2345.57768776564	9959.75
2347.79120778319	9954.25
2350.00409228117	9951.5
2352.21634155121	10065
2354.42795588482	10074.75
2356.63893557342	10050.75
2358.84928090838	9941.75
2361.05899218094	9955
2363.26806968228	10016.5
2365.47651370347	10057.75
2367.68432453552	10046.25
2369.89150246933	9996.5
2372.09804779571	10007
2374.30396080541	10095.5
2376.50924178907	10035.75
2378.71389103725	10084.25
2380.91790884042	10070.25
2383.12129548897	10012.25
2385.3240512732	10040
2387.52617648332	9962.5
2389.72767140946	10056
2391.92853634165	10073
2394.12877156985	10133.25
2396.32837738392	10168
2398.52735407365	10141.25
2400.72570192873	10083.75
2402.92342123875	10087.75
2405.12051229325	10141.75
2407.31697538167	10148
2409.51281079333	10194.25
2411.70801881751	10172.75
2413.90259974339	10227.5
2416.09655386004	10248.5
2418.28988145648	10160.25
2420.48258282162	10185.25
2422.6746582443	10163.5
2424.86610801325	10319.5
2427.05693241713	10268.75
2429.24713174452	10210.5
2431.43670628389	10212
2433.62565632365	10293.75
2435.81398215212	10248
2438.00168405752	10306.5
2440.18876232799	10323.5
2442.37521725158	10235.75
2444.56104911628	10275.5
2446.74625820994	10285
2448.93084482038	10151.75
2451.1148092353	10241.75
2453.29815174233	10242.5
2455.480872629	10235.25
2457.66297218275	10156.5
2459.84445069097	10094.5
2462.02530844092	10229.5
2464.2055457198	10182.5
2466.38516281471	10204.75
2468.56416001267	10237.75
2470.74253760061	10163.75
2472.92029586537	10227.75
2475.09743509372	10214.75
2477.27395557232	10213
2479.44985758777	10269.25
2481.62514142655	10316.25
2483.79980737508	10226
2485.97385571969	10233.25
2488.14728674661	10213.75
2490.32010074198	10217.25
2492.49229799188	10277.25
2494.66387878228	10249.5
2496.83484339905	10392.5
2499.00519212802	10462
2501.17492525488	10330.75
2503.34404306528	10379
2505.51254584473	10462
2507.6804338787	10437.25
2509.84770745254	10348.25
2512.01436685153	10425.75
2514.18041236085	10455.75
2516.34584426561	10482.75
2518.51066285081	10497
2520.67486840138	10580.25
2522.83846120214	10646
2525.00144153784	10537.25
2527.16380969314	10589.25
2529.32556595261	10643.5
2531.48671060072	10717.75
2533.64724392186	10684.25
2535.80716620033	10716
2537.96647772034	10644
2540.12517876602	10722.25
2542.2832696214	10733
2544.44075057041	10746
2546.59762189691	10655.25
2548.75388388466	10633.75
2550.90953681735	10647.5
2553.06458097853	10636.25
2555.21901665172	10754.25
2557.37284412031	10749.25
2559.5260636676	10717.75
2561.67867557684	10739.75
2563.83068013113	10675.75
2565.98207761351	10632.5
2568.13286830695	10668.25
2570.28305249429	10713.75
2572.43263045829	10680.75
2574.58160248163	10691.75
2576.72996884689	10703.25
2578.87772983655	10665.25
2581.02488573303	10745.25
2583.1714368186	10779.75
2585.31738337549	10689.5
2587.46272568582	10723.5
2589.60746403161	10738.5
2591.75159869479	10855
2593.89512995722	10740.5
2596.03805810061	10764.75
2598.18038340665	10773
2600.32210615686	10780
2602.46322663274	10751.25
2604.60374511563	10808.5
2606.74366188683	10723.5
2608.88297722751	10814
2611.02169141875	10809.5
2613.15980474156	10900.5
2615.29731747681	10894.75
2617.43422990532	10848.25
2619.57054230779	10817.5
2621.70625496483	10922.25
2623.84136815694	10961.75
2625.97588216456	11065.25
2628.10979726799	10965.5
2630.24311374746	11004
2632.3758318831	11070
2634.50795195493	10968
2636.6394742429	11038
2638.77039902682	11108.75
2640.90072658645	11073
2643.0304572014	11083.5
2645.15959115123	11145.5
2647.28812871538	11168.25
2649.41607017319	11148
2651.5434158039	11221
2653.67016588665	11149.75
2655.79632070049	11180.75
2657.92188052436	11246
2660.04684563711	11302.75
2662.17121631749	11364.25
2664.29499284413	11417.25
2666.41817549558	11276.75
2668.54076455027	11337.25
2670.66276028656	11236
2672.78416298267	11349.5
2674.90497291675	11321.5
2677.02519036682	11348
2679.14481561082	11442.5
2681.26384892658	11434.5
2683.38229059182	11401.5
2685.50014088417	11414
2687.61740008114	11525.5
2689.73406846017	11513
2691.85014629854	11519.5
2693.96563387347	11472.5
2696.08053146206	11566.25
2698.1948393413	11480.25
2700.3085577881	11538.25
2702.42168707924	11547.75
2704.53422749139	11614.25
2706.64617930112	11642.75
2708.75754278492	11683.25
2710.86831821913	11631.25
2712.97850588002	11730.5
2715.08810604372	11757.25
2717.19711898628	11778.75
2719.30554498363	11817.5
2721.41338431158	11731.5
2723.52063724586	11804.25
2725.62730406206	11863.75
2727.73338503569	11811.25
2729.83888044213	11725.5
2731.94379055664	11869.25
2734.04811565441	11878.75
2736.15185601048	11907.5
2738.25501189979	11941.5
2740.35758359718	11839.75
2742.45957137738	11891.5
2744.56097551499	11859
2746.6617962845	11934.75
2748.7620339603	11952.75
2750.86168881666	11979.5
2752.96076112774	11856.75
2755.05925116758	11998.75
2757.15715921012	12047.75
2759.25448552917	11958.25
2761.35123039843	11922.5
2763.44739409148	12029.5
2765.5429768818	12029.75
2767.63797904275	12046.25
2769.73240084756	12115.75
2771.82624256934	12042
2773.91950448113	12076.25
2776.01218685579	12049.5
2778.10428996609	12138.5
2780.19581408469	12083
2782.28675948414	12155
2784.37712643683	12163.75
2786.46691521507	12201.5
2788.55612609104	12097.75
2790.64475933678	12195.5
2792.73281522425	12206.25
2794.82029402525	12209.5
2796.90719601149	12177.5
2798.99352145453	12152.25
2801.07927062583	12261.25
2803.16444379672	12290.5
2805.24904123841	12267
2807.33306322197	12270
2809.41651001838	12380.75
2811.49938189847	12294.75
2813.58167913296	12537.5
2815.66340199243	12530.75
2817.74455074734	12498.75
2819.82512566805	12503
2821.90512702475	12518.75
2823.98455508754	12647.25
2826.06341012637	12725.75
2828.14169241109	12746.75
2830.2194022114	12981
2832.29653979686	13073
2834.37310543694	13437.5
2836.44909940096	13887.25
2838.5245219581	14301.25
2840.59937337744	15002.5
2842.67365392791	15548.5
2844.74736387829	15863.25
2846.82050349727	15938.5
2848.8930730534	16011.25
2850.96507281506	15776
2853.03650305056	15521
2855.10736402802	15289
2857.17765601545	15065.75
2859.24737928074	14907.25
2861.31653409164	14786
2863.38512071574	14593.5
2865.45313942054	14688.25
2867.52059047335	14571.25
2869.58747414139	14684.25
2871.65379069173	14733.25
2873.7195403913	14879.25
2875.78472350688	15156.75
2877.84934030515	15555
2879.91339105262	15849.25
2881.97687601567	15789.25
2884.03979546053	15382.5
2886.10214965332	15225.5
2888.16393886	15210
2890.22516334639	15182.75
2892.28582337816	15082.5
2894.34591922087	15166
2896.40545113992	15113.75
2898.46441940054	15067.25
2900.52282426787	14887.75
2902.58066600687	14932
2904.63794488237	14951.25
2906.69466115906	14605.25
2908.75081510147	14628.25
2910.806406974	14649.25
2912.8614370409	14527.25
2914.91590556626	14506.75
2916.96981281404	14503
2919.02315904807	14383
2921.07594453199	14487
2923.12816952932	14530.5
2925.17983430343	14523.5
2927.23093911753	14459.25
2929.28148423469	14340.75
2931.33146991782	14335
2933.3808964297	14188.5
2935.42976403294	14102.5
2937.47807299	14099
2939.5258235632	13849.75
2941.57301601469	13748.5
2943.61965060648	13663
2945.66572760042	13546.75
2947.71124725823	13542.75
2949.75620984143	13497.25
2951.80061561143	13479.75
2953.84446482945	13414.5
2955.88775775656	13419.25
2957.9304946537	13315
2959.97267578162	13328
2962.01430140095	13393.75
2964.05537177211	13311.5
2966.09588715541	13305.25
2968.13584781097	13394.25
2970.17525399875	13487.5
2972.21410597859	13286.75
2974.25240401011	13412.5
2976.29014835283	13423
2978.32733926604	13542.25
2980.36397700892	13484.75
2982.40006184049	13425.5
2984.43559401955	13528.25
2986.4705738048	13564
2988.50500145473	13521.75
2990.53887722771	13613.25
2992.57220138189	13612
2994.6049741753	13589.75
2996.63719586576	13755
2998.66886671097	13596.75
3000.69998696843	13775.25
3002.73055689549	13858
3004.7605767493	13886.5
3006.79004678688	13738.5
3008.81896726505	13836.5
3010.84733844048	13736.75
3012.87516056966	13822.75
3014.9024339089	13861.25
3016.92915871433	14034.5
3018.95533524196	14027.5
3020.98096374756	14025
3023.00604448675	14052.25
3025.030577715	13962
3027.05456368757	14079.5
3029.07800265956	14155
3031.10089488589	14002.75
3033.12324062131	14202.75
3035.14504012038	14248
3037.16629363749	14173.75
3039.18700142685	14218
3041.20716374249	14109
3043.22678083826	14060.25
3045.24585296782	14260.75
3047.26438038468	14228.25
3049.28236334212	14189.75
3051.29980209329	14440
3053.31669689111	14153.25
3055.33304798835	14125.25
3057.34885563757	14278.25
3059.36412009117	14251.75
3061.37884160134	14206.25
3063.39302042011	14318.75
3065.40665679931	14321.5
3067.41975099058	14364
3069.43230324538	14290
3071.44431381495	14281.75
3073.45578295041	14360.75
3075.46671090261	14370
3077.47709792227	14376
3079.48694425989	14268.75
3081.49625016578	14415
3083.50501589008	14434
3085.5132416827	14403.25
3087.5209277934	14347.75
3089.52807447169	14355.25
3091.53468196695	14363
3093.54075052832	14344.75
3095.54628040476	14395.25
3097.55127184503	14388
3099.55572509769	14238.75
3101.55964041111	14339.5
3103.56301803346	14371.25
3105.5658582127	14445.25
3107.56816119661	14512.75
3109.56992723275	14360.5
3111.57115656849	14419.5
3113.571849451	14415
3115.57200612724	14505
3117.57162684397	14432.75
3119.57071184775	14539
3121.56926138493	14558
3123.56727570166	14585.75
3125.56475504389	14588.75
3127.56169965735	14616.75
3129.55810978757	14709
3131.55398567987	14764.75
3133.54932757937	14657
3135.54413573099	14877.25
3137.53841037939	14767.5
3139.53215176909	14742
3141.52536014435	14786
3143.51803574924	14878.75
3145.51017882762	14849.5
3147.50178962311	14894.5
3149.49286837916	14883.5
3151.48341533897	14863.5
3153.47343074553	14982.5
3155.46291484164	14951
3157.45186786985	14963.25
3159.44029007252	14960.25
3161.42818169179	14940.25
3163.41554296955	15022.5
3165.40237414753	15104.25
3167.38867546718	15122
3169.37444716975	15015.25
3171.35968949631	15055.25
3173.34440268764	15117
3175.32858698436	15121.25
3177.31224262682	15114.5
3179.29536985517	15260.5
3181.27796890934	15078.25
3183.26004002902	15053
3185.24158345368	15184.75
3187.22259942256	15208.75
3189.2030881747	15128.25
3191.18304994886	15191.25
3193.16248498363	15340.25
3195.14139351733	15303
3197.11977578807	15343
3199.09763203371	15355.75
3201.07496249191	15335.75
3203.05176740007	15444.5
3205.02804699537	15315.5
3207.00380151475	15434.25
3208.97903119493	15461
3210.95373627238	15531.5
3212.92791698335	15538.5
3214.90157356383	15443.75
3216.8747062496	15540
3218.84731527619	15650
3220.81940087889	15712.25
3222.79096329275	15705.5
3224.76200275259	15611.25
3226.73251949298	15839.75
3228.70251374825	15858
3230.67198575251	15761
3232.64093573959	15892
3234.6093639431	16046.25
3236.57727059641	15945
3238.54465593261	16184
3240.51152018461	16131.5
3242.47786358502	16063.5
3244.44368636621	16070.5
3246.40898876031	16041.25
3248.37377099923	16151
3250.33803331458	16154.5
3252.30177593775	16317.75
3254.26499909987	16368.5
3256.22770303184	16392.25
3258.18988796427	16264.25
3260.15155412755	16252.75
3262.1127017518	16226.75
3264.0733310669	16418
3266.03344230246	16385.25
3267.99303568784	16412.5
3269.95211145215	16401.75
3271.91066982422	16509.5
3273.86871103267	16459.75
3275.82623530581	16545.25
3277.7832428717	16470
3279.73973395818	16591.75
3281.69570879278	16630.5
3283.6511676028	16652
3285.60611061527	16696.75
3287.56053805694	16683.75
3289.51445015432	16713
3291.46784713364	16727.5
3293.42072922088	16741
3295.37309664173	16728.75
3297.32494962163	16759.25
3299.27628838575	16739.25
3301.227113159	16745.25
3303.17742416601	16801.5
3305.12722163114	16932.5
3307.07650577848	16846.25
3309.02527683185	16907.5
3310.9735350148	16939
3312.9212805506	17051.25
3314.86851366225	16913.75
3316.81523457249	17050
3318.76144350377	17013.5
3320.70714067825	17043.75
3322.65232631783	17008
3324.59700064415	17009.25
3326.54116387854	17025.75
3328.48481624207	16990.75
3330.42795795551	17062.75
3332.37058923938	17013.25
3334.31271031389	17087.25
3336.25432139898	17037
3338.19542271432	17121.25
3340.13601447927	17059
3342.07609691292	17127.25
3344.01567023407	17078.5
3345.95473466124	17086.5
3347.89329041266	17252.5
3349.83133770627	17219.25
3351.76887675973	17170
3353.70590779039	17116.75
3355.64243101534	17311
3357.57844665135	17220.75
3359.51395491492	17399.25
3361.44895602224	17284.75
3363.38345018922	17377.75
3365.31743763148	17363
3367.25091856432	17406
3369.18389320278	17290.25
3371.11636176156	17519.5
3373.0483244551	17539
3374.97978149754	17564
3376.91073310269	17575
3378.84117948409	17649
3380.77112085498	17689.5
3382.70055742826	17733.75
3384.62948941659	17723.75
3386.55791703227	17614.75
3388.48584048733	17769.25
3390.41325999348	17891
3392.34017576214	17899.25
3394.2665880044	17912.25
3396.19249693107	17963.5
3398.11790275263	17754
3400.04280567926	18011
3401.96720592084	18192
3403.89110368692	18048.5
3405.81449918675	18231.5
3407.73739262928	18107.75
3409.65978422311	18191.75
3411.58167417658	18248.75
3413.50306269768	18260.5
3415.42394999408	18374
3417.34433627316	18389.5
3419.26422174195	18327.25
3421.18360660721	18285.25
3423.10249107532	18191.5
3425.02087535239	18294
3426.93875964421	18322
3428.8561441562	18404.25
3430.77302909353	18310
3432.68941466097	18290.25
3434.60530106301	18496
3436.52068850383	18423.25
3438.43557718726	18569.25
3440.34996731681	18327.5
3442.26385909565	18366.5
3444.17725272664	18358.75
3446.09014841231	18471.25
3448.00254635486	18385.75
3449.91444675614	18541
3451.82584981771	18522.75
3453.73675574076	18387.5
3455.64716472616	18400.25
3457.55707697445	18378.75
3459.46649268584	18466.5
3461.37541206018	18468.75
3463.28383529703	18637.5
3465.19176259555	18523
3467.09919415464	18498.5
3469.00613017278	18424.75
3470.91257084817	18589.25
3472.81851637863	18470.25
3474.72396696168	18524.5
3476.62892279446	18576
3478.53338407379	18587.5
3480.43735099614	18509.5
3482.34082375764	18605
3484.24380255404	18655
3486.1462875808	18731.5
3488.048279033	18716.75
3489.94977710537	18649
3491.85078199231	18680
3493.75129388783	18769
3495.65131298566	18697.5
3497.5508394791	18757
3499.44987356115	18645