201.866871357051	1624
204.754250281454	1657
207.640596790938	1630.25
210.525911876299	1643.25
213.410196525689	1646.75
216.293451724508	1650.5
219.175678455485	1625
222.056877698662	1648.25
224.937050431388	1626
227.816197628363	1645.5
230.694320261602	1650.5
233.571419300504	1645.5
236.447495711764	1660.75
239.322550459507	1648
242.196584505182	1650.75
245.069598807626	1641.75
247.941594323078	1649.5
250.812572005154	1643.25
253.682532804884	1667.75
256.551477670699	1648.5
259.419407548456	1643.75
262.286323381439	1651
265.152226110364	1656.5
268.017116673389	1659.75
270.880996006115	1679.5
273.743865041622	1668.5
276.605724710436	1645.25
279.466575940562	1662.25
282.326419657496	1664.75
285.1852567842	1686.75
288.043088241157	1689.25
290.899914946349	1666.5
293.75573781526	1682.5
296.610557760898	1686.25
299.464375693817	1690
302.317192522078	1661.5
305.169009151297	1680.75
308.019826484655	1660
310.86964542287	1659.75
313.718466864233	1659.5
316.566291704614	1661.75
319.413120837457	1669.25
322.258955153804	1689.5
325.103795542291	1681.25
327.947642889128	1696.75
330.79049807819	1699.75
333.632361990927	1675.25
336.473235506444	1704.25
339.31311950145	1735.5
342.152014850322	1692
344.989922425062	1706
347.826843095354	1709.5
350.662777728528	1711.5
353.497727189577	1725
356.331692341195	1743.75
359.164674043732	1744.5
361.996673155267	1768
364.827690531536	1750
367.65772702602	1761
370.486783489887	1768.5
373.314860772047	1781.5
376.14195971912	1741.25
378.968081175466	1742.75
381.793225983212	1782
384.617394982201	1755.75
387.44058901005	1756.75
390.262808902131	1762.75
393.08405549161	1779.25
395.904329609395	1781.5
398.723632084213	1807.5
401.541963742569	1788.5
404.359325408779	1790.5
407.175717904938	1791.25
409.991142050982	1799.5
412.805598664665	1809.75
415.619088561551	1809.5
418.43161255505	1787.25
421.243171456415	1812.75
424.053766074758	1847.5
426.863397217017	1814.75
429.672065688024	1828.75
432.479772290455	1844.75
435.286517824879	1822.5
438.092303089736	1826.5
440.897128881359	1825.5
443.70099599399	1844.25
446.503905219761	1862.5
449.305857348711	1855.75
452.106853168796	1852.5
454.906893465919	1840.25
457.705979023885	1844.25
460.504110624439	1862.25
463.3012890473	1840.75
466.097515070087	1826.25
468.892789468424	1835.75
471.687113015869	1848
474.48048648395	1844.5
477.272910642198	1822.75
480.064386258109	1858.75
482.854914097159	1859.5
485.644494922839	1858.75
488.433129496636	1875.25
491.220818578047	1848
494.007562924584	1854.75
496.793363291785	1889
499.578220433217	1884.75
502.362135100473	1921.25
505.145108043209	1917.75
507.927140009098	1898.5
510.708231743909	1934.25
513.488383991433	1915.75
516.267597493556	1934.5
519.04587299022	1942
521.82321121946	1934.75
524.599612917398	1941.5
527.375078818233	1943.75
530.149609654287	1906.75
532.923206155967	1913.25
535.695869051804	1912.5
538.467599068448	1911.75
541.238396930665	1936.75
544.008263361364	1920.5
546.777199081578	1930.75
549.545204810493	1921
552.312281265436	1943.75
555.078429161898	1944.25
557.843649213533	1941.5
560.607942132156	1951.75
563.371308627753	1933
566.133749408495	1934.5
568.895265180756	1940
571.655856649064	1942
574.415524516189	1973.75
577.174269483075	1991.25
579.932092248884	1976.75
582.688993510994	1972.75
585.444973965023	1995.75
588.200034304795	1995
590.95417522237	2018.75
593.70739740807	2018.75
596.459701550433	2001.75
599.21108833628	2007.5
601.961558450668	2006
604.711112576933	2021
607.459751396673	2013
610.207475589748	2001.5
612.954285834338	2034.25
615.700182806879	2007
618.445167182101	1995.25
621.189239633055	2018.25
623.932400831087	1994.5
626.674651445839	2008.75
629.415992145303	2033
632.156423595745	2013
634.895946461813	2005.75
637.634561406449	2013.25
640.37226909096	2006.5
643.109070174978	2011.75
645.844965316508	2032.5
648.579955171888	2008.5
651.314040395846	2036.25
654.047221641456	2039.75
656.779499560176	2039.75
659.510874801828	2050.25
662.241348014642	2047.25
664.97091984524	2068.5
667.699590938606	2040.75
670.427361938164	2064.75
673.15423348573	2068.75
675.880206221526	2068
678.605280784206	2093.25
681.329457810829	2111.5
684.05273793692	2082.5
686.775121796389	2101.5
689.49661002163	2075
692.217203243454	2087.5
694.936902091144	2113.75
697.655707192425	2074.25
700.373619173493	2094.75
703.09063865901	2070
705.806766272093	2080.75
708.522002634378	2120
711.236348365946	2100.25
713.94980408538	2093.75
716.662370409762	2082
719.374047954676	2115.75
722.08483733419	2118
724.794739160909	2101.5
727.503754045949	2115.5
730.21188259892	2157.5
732.919125427998	2120.5
735.625483139855	2161.5
738.330956339723	2149.25
741.035545631374	2164.75
743.739251617106	2174.5
746.44207489779	2165.5
749.144016072852	2195.5
751.845075740272	2184.5
754.545254496603	2181
757.244552936976	2192.5
759.94297165508	2195.5
762.640511243222	2211.75
765.337172292249	2193.25
768.032955391649	2197
770.727861129482	2209.5
773.421890092413	2226.25
776.11504286572	2224.25
778.807320033298	2207.5
781.49872217765	2195.75
784.18924987991	2218.5
786.87890371984	2205.25
789.567684275826	2220
792.255592124908	2225.5
794.94262784276	2236
797.628792003703	2198.25
800.314085180715	2213.25
802.998507945427	2204.75
805.682060868145	2241
808.364744517821	2268.5
811.046559462105	2255
813.727506267311	2250
816.407585498422	2242.25
819.08679771913	2262.25
821.765143491822	2266.5
824.442623377563	2308
827.119237936127	2313.25
829.794987726003	2305.75
832.469873304377	2318
835.143895227167	2325.25
837.817054048985	2343.25
840.489350323205	2345.5
843.160784601892	2376.25
845.831357435894	2353.25
848.501069374739	2374.25
851.169920966753	2372.25
853.837912758987	2357
856.505045297232	2365
859.171319126071	2384.5
861.836734788823	2380.25
864.501292827579	2379.5
867.164993783208	2383.25
869.827838195361	2383
872.489826602454	2391
875.150959541701	2400.5
877.811237549104	2359.5
880.470661159456	2383.25
883.129230906357	2404.75
885.786947322205	2373.5
888.443810938206	2379.5
891.099822284385	2366.5
893.754981889586	2369.5
896.409290281452	2398
899.062747986485	2389.75
901.715355529999	2422.5
904.367113436154	2398.75
907.01802222793	2396.5
909.668082427172	2406.25
912.317294554574	2405.5
914.965659129659	2420.5
917.613176670835	2420
920.259847695364	2445.75
922.90567271936	2433.5
925.550652257825	2441.5
928.194786824621	2431.5
930.838076932512	2447
933.480523093109	2445.75
936.122125816953	2429
938.762885613447	2483.75
941.402802990899	2470
944.041878456523	2472.75
946.680112516428	2486.75
949.31750567563	2477.5
951.954058438081	2497.75
954.589771306633	2512.5
957.224644783048	2528
959.858679368044	2509
962.491875561238	2488.75
965.12423386121	2509
967.75575476545	2500.75
970.386438770423	2484.5
973.016286371501	2534.25
975.645298063046	2518.25
978.273474338355	2531
980.900815689674	2539.5
983.527322608243	2519.75
986.152995584245	2552
988.777835106834	2553.25
991.401841664148	2564.25
994.025015743307	2594.75
996.647357830407	2555.75
999.268868410534	2591.5
1001.88954796777	2614.75
1004.50939698518	2597.25
1007.12841594484	2645
1009.74660532783	2635.75
1012.36396561423	2637
1014.98049728314	2657.25
1017.59620081267	2649
1020.21107667995	2664.25
1022.82512536112	2682.5
1025.43834733138	2710
1028.05074306493	2701.75
1030.66231303501	2701.25
1033.27305771392	2733.75
1035.88297757299	2756.5
1038.49207308257	2748.5
1041.10034471211	2716
1043.70779293008	2761.75
1046.31441820402	2778.25
1048.92022100052	2759.25
1051.52520178525	2842.5
1054.12936102295	2844.75
1056.73269917742	2916.5
1059.33521671154	2900
1061.93691408729	2951.25
1064.53779176571	2938
1067.13785020694	2905.75
1069.73708987022	2883.75
1072.33551121386	2957.25
1074.93311469528	2908
1077.52990077103	2936.5
1080.12586989674	2959.25
1082.72102252714	2935
1085.31535911611	2932.5
1087.90888011663	2944
1090.50158598078	2963.5
1093.09347715979	2919.5
1095.68455410403	2949.25
1098.27481726296	2926.5
1100.86426708523	2932.5
1103.45290401857	2946.25
1106.04072850991	2930.75
1108.6277410053	2945
1111.21394194993	2957.75
1113.79933178816	2982.75
1116.3839109635	2984
1118.96767991862	3029.75
1121.55063909539	3045.75
1124.13278893477	3131.25
1126.71412987696	3110.75
1129.29466236132	3157.5
1131.87438682637	3158.5
1134.45330370982	3111
1137.03141344858	3110
1139.60871647872	3116
1142.18521323554	3096.5
1144.7609041535	3103
1147.33578966629	3163.25
1149.90987020676	3152.25
1152.48314620702	3150
1155.05561809835	3127
1157.62728631125	3161.25
1160.19815127545	3185.75
1162.76821341988	3198.75
1165.33747317271	3226.75
1167.90593096133	3270.25
1170.47358721235	3238.5
1173.04044235163	3263.75
1175.60649680425	3244.25
1178.17175099454	3256
1180.73620534607	3296.25
1183.29986028165	3281.75
1185.86271622336	3323
1188.42477359249	3327.25
1190.98603280964	3297
1193.54649429462	3327
1196.10615846653	3362.75
1198.66502574372	3336.25
1201.22309654385	3350.25
1203.78037128378	3385.75
1206.33685037971	3403.25
1208.89253424709	3416
1211.44742330063	3421
1214.00151795438	3427.25
1216.55481862163	3481.5
1219.10732571497	3441.75
1221.65903964631	3494.5
1224.20996082683	3491.25
1226.760089667	3538.5
1229.30942657664	3548.25
1231.85797196483	3584.75
1234.40572623998	3602.5
1236.95268980981	3603.5
1239.49886308136	3665.75
1242.04424646098	3695.25
1244.58884035435	3709
1247.13264516647	3759.5
1249.67566130166	3792
1252.21788916358	3763
1254.75932915524	3834.5
1257.29998167896	3855.75
1259.83984713639	3853.25
1262.37892592857	3925.5
1264.91721845586	3928.5
1267.45472511795	3985
1269.9914463139	4045
1272.52738244213	4074
1275.0625339004	4033.5
1277.59690108587	4106
1280.130484395	4174.5
1282.66328422367	4183
1285.19530096712	4215
1287.72653501993	4301.75
1290.25698677608	4352.5
1292.78665662894	4545
1295.31554497125	4573.5
1297.8436521951	4606
1300.37097869203	4570.25
1302.89752485292	4607.25
1305.42329106805	4584
1307.94827772713	4632.5
1310.47248521921	4595.5
1312.99591393279	4613
1315.51856425575	4659
1318.04043657536	4614.75
1320.56153127836	4638.5
1323.08184875083	4687
1325.6013893783	4751.25
1328.12015354572	4810
1330.63814163744	4813.25
1333.15535403727	4857.25
1335.67179112839	4881.5
1338.18745329347	4956.75
1340.70234091454	5007.5
1343.21645437314	5013.25
1345.72979405019	5068.25
1348.24236032607	5089
1350.75415358059	5172.5
1353.26517419303	5184.25
1355.7754225421	5242.75
1358.28489900594	5287.25
1360.79360396218	5419.75
1363.30153778787	5348.25
1365.80870085955	5448
1368.31509355319	5483.5
1370.82071624424	5456.25
1373.32556930762	5565
1375.8296531177	5527
1378.33296804832	5610.75
1380.83551447282	5596.25
1383.33729276399	5645
1385.83830329408	5666
1388.33854643489	5723.5
1390.83802255762	5739.25
1393.33673203301	5810.25
1395.83467523128	5785.5
1398.33185252211	5825.75
1400.82826427471	5909.5
1403.32391085777	5928
1405.81879263947	6009.75
1408.31290998752	6097
1410.80626326908	6096
1413.29885285087	6240.75
1415.79067909909	6233.25
1418.28174237944	6343.25
1420.77204305717	6442.75
1423.26158149702	6476.25
1425.75035806323	6615
1428.2383731196	6709
1430.72562702942	6801.25
1433.21212015554	6984
1435.69785286028	7113.5
1438.18282550555	7354
1440.66703845275	7392
1443.15049206284	7419.75
1445.6331866963	7488
1448.11512271316	7510.25
1450.59630047298	7583.25
1453.07672033486	7593.75
1455.55638265748	7682.25
1458.03528779902	7719.75
1460.51343611725	7804.75
1462.99082796946	7808.25
1465.46746371252	7809.5
1467.94334370285	7910.75
1470.41846829642	7856.75
1472.89283784878	7917.75
1475.36645271503	8004.5
1477.83931324983	8050.5
1480.31141980743	8086.25
1482.78277274164	8123.5
1485.25337240583	8116.75
1487.72321915297	8235.25
1490.19231333557	8263
1492.66065530578	8301.5
1495.12824541525	8417.25
1497.5950840153	8498.25
1500.06117145678	8486
1502.52650809014	8543.25
1504.99109426543	8670.5
1507.45493033227	8721.25
1509.91801663992	8761
1512.38035353717	8869.75
1514.84194137248	8903.5
1517.30278049386	9043.5
1519.76287124894	9096.5
1522.22221398497	9195
1524.68080904876	9279.5
1527.13865678681	9326
1529.59575754514	9446.25
1532.05211166945	9472.75
1534.50771950503	9571.75
1536.96258139678	9627.25
1539.41669768924	9723.25
1541.87006872656	9858.25
1544.32269485252	9837.5
1546.77457641051	9995.25
1549.22571374357	10159
1551.67610719434	10260.75
1554.12575710513	10303
1556.57466381785	10385.25
1559.02282767408	10473.75
1561.47024901499	10618
1563.91692818144	10676.75
1566.3628655139	10875.25
1568.80806135249	10870.5
1571.252516037	10938.25
1573.6962299068	11161
1576.13920330099	11190.25
1578.58143655828	11294
1581.02293001704	11506.75
1583.46368401528	11435
1585.90369889071	11536.25
1588.34297498065	11681.5
1590.7815126221	11672.5
1593.21931215173	11790.75
1595.65637390588	11848.5
1598.09269822053	11874.25
1600.52828543135	11947.5
1602.96313587367	12047
1605.3972498825	12107
1607.83062779252	12181.25
1610.26326993808	12261.5
1612.69517665322	12278.5
1615.12634827165	12380.75
1617.55678512676	12418
1619.98648755163	12372.5
1622.41545587902	12429.5
1624.84369044138	12597.75
1627.27119157085	12623
1629.69795959924	12711.25
1632.12399485808	12850
1634.54929767859	12900
1636.97386839165	12979.25
1639.39770732789	13055.75
1641.8208148176	13118.25
1644.24319119078	13168.5
1646.66483677715	13291.75
1649.0857519061	13387
1651.50593690677	13633.5
1653.92539210795	13733.5
1656.3441178382	13694
1658.76211442575	13771.25
1661.17938219855	13870
1663.59592148428	14184.75
1666.01173261032	14244.25
1668.42681590377	14380
1670.84117169145	14431
1673.25480029991	14576.5
1675.66770205541	14606.25
1678.07987728393	14890.5
1680.49132631119	15012.5
1682.90204946263	15033.5
1685.31204706342	15193.5
1687.72131943846	15356.5
1690.1298669124	15443.25
1692.53768980957	15698.5
1694.94478845411	15624
1697.35116316982	15635.25
1699.75681428031	15855
1702.16174210887	15975.5
1704.56594697858	16067.75
1706.96942921222	16310
1709.37218913235	16312.5
1711.77422706125	16301.5
1714.17554332098	16419.75
1716.5761382333	16639.75
1718.97601211977	16658.25
1721.37516530169	16730.25
1723.77359810006	16817.5
1726.17131083572	16909.5
1728.56830382922	17053.5
1730.96457740087	17148.25
1733.36013187075	17115
1735.75496755868	17134.5
1738.14908478428	17354
1740.54248386689	17450.5
1742.93516512565	17570.75
1745.32712887946	17643.5
1747.71837544697	17798.25
1750.10890514662	17928.5
1752.49871829661	17899.5
1754.88781521492	18157.5
1757.27619621929	18371.5
1759.66386162726	18394.25
1762.05081175612	18484.5
1764.43704692297	18718.5
1766.82256744465	18814.5
1769.20737363782	18972.5
1771.59146581887	18940.5
1773.97484430405	19300.75
1776.35750940932	19460.75
1778.73946145048	19520.25
1781.12070074309	19653.75
1783.50122760249	19895.25
1785.88104234385	20080.5
1788.26014528209	20148.25
1790.63853673196	20318.25
1793.01621700796	20558.25
1795.39318642443	20815.5
1797.76944529549	20788
1800.14499393503	21071.5
1802.51983265681	21005.75
1804.8939617743	21385.25
1807.26738160085	21639.25
1809.64009244957	21649.75
1812.01209463339	21679.75
1814.38338846504	22090.5
1816.75397425706	21933.5
1819.12385232181	22233.5
1821.49302297142	22292.75
1823.86148651789	22471
1826.22924327299	22507.5
1828.59629354831	22952.25
1830.96263765526	22826.5
1833.32827590507	22994.5
1835.69320860877	23241.25
1838.05743607724	23297.25
1840.42095862113	23416.5
1842.78377655097	23587
1845.14589017707	23768.25
1847.50729980956	23843
1849.86800575843	24147.75
1852.22800833346	24203
1854.58730784427	24461.5
1856.94590460032	24719
1859.30379891087	24918.25
1861.66099108503	25078.25
1864.01748143175	25410
1866.37327025978	25485.75
1868.72835787773	25610.25
1871.08274459403	25920.25
1873.43643071697	25969.75
1875.78941655464	26528.5
1878.14170241498	26511.5
1880.4932886058	26946
1882.84417543469	27174.25
1885.19436320915	27293
1887.54385223646	27591
1889.89264282378	28007
1892.24073527809	28050
1894.58812990625	28431.5
1896.93482701493	28892
1899.28082691067	29130.25
1901.62612989984	29396
1903.97073628868	29619.25
1906.31464638326	29806.25
1908.6578604895	30209.75
1911.00037891321	30529.5
1913.34220196	30918
1915.68332993537	31087.75
1918.02376314468	31356.25
1920.36350189311	31608
1922.70254648573	31771.25
1925.04089722744	32152
1927.37855442303	32394.5
1929.71551837715	32701.5
1932.05178939426	32908.75
1934.38736777876	33138
1936.72225383484	33291.25
1939.0564478666	34014.25
1941.38995017799	33905.75
1943.72276107283	34561.25
1946.05488085479	34575.5
1948.38630982744	34587
1950.71704829419	35149.25
1953.04709655832	35007.25
1955.376454923	35408.75
1957.70512369126	35630.25
1960.03310316599	35852.25
1962.36039364999	35818.5
1964.68699544589	36159
1967.01290885622	36459.75
1969.33813418338	36640.75
1971.66267172965	36909.75
1973.98652179718	37012.5
1976.309684688	37497.25
1978.63216070402	37613
1980.95395014705	38137.75
1983.27505331873	37964
1985.59547052063	38292.75
1987.9152020542	38605.5
1990.23424822074	38754.5
1992.55260932146	38980
1994.87028565746	39345
1997.18727752968	39557.75
1999.503585239	40011.5
2001.81920908618	40042.25
2004.13414937184	40443.5
2006.44840639651	40998.5
2008.7619804606	41220.75
2011.07487186442	41337.75
2013.38708090815	41884.75
2015.6986078919	41963.75
2018.00945311564	42339.25
2020.31961687923	42627.75
2022.62909948246	43032
2024.93790122498	43309.5
2027.24602240636	43627.75
2029.55346332604	43768.25
2031.86022428337	44116.75
2034.16630557761	44407.25
2036.47170750791	44731.25
2038.77643037331	44964.25
2041.08047447275	45299.75
2043.38384010509	45380.75
2045.68652756907	45742.75
2047.98853716335	45832.75
2050.28986918648	46108
2052.59052393692	46406.25
2054.89050171302	46769
2057.18980281306	46985.75
2059.4884275352	47229.5
2061.78637617753	47241.25
2064.08364903802	47504
2066.38024641457	47673.5
2068.67616860497	48130.75
2070.97141590694	48153.25
2073.26598861809	48265
2075.55988703595	48245.25
2077.85311145796	48598.75
2080.14566218145	48848.5
2082.43753950371	49064.75
2084.72874372188	49036.75
2087.01927513307	49339.25
2089.30913403428	49496.75
2091.59832072241	49721.75
2093.88683549429	49704
2096.17467864666	50021.75
2098.46185047619	50398.5
2100.74835127944	50500
2103.03418135292	50842.5
2105.31934099303	50494.75
2107.6038304961	50986.75
2109.88765015838	51074.75
2112.17080027602	51151.25
2114.45328114513	51603.5
2116.7350930617	51640.25
2119.01623632165	51814.25
2121.29671122085	51526
2123.57651805505	52110
2125.85565711996	52204
2128.13412871117	52280.75
2130.41193312424	52595
2132.68907065462	52711
2134.96554159771	52633
2137.24134624881	52861.25
2139.51648490317	52969
2141.79095785593	52925.25
2144.0647654022	53193.25
2146.33790783698	53165.25
2148.61038545524	52971.5
2150.88219855182	53484.25
2153.15334742154	53438.5
2155.42383235911	53593.25
2157.6936536592	53667
2159.9628116164	53416.5
2162.23130652522	53427.75
2164.49913868011	53466.25
2166.76630837544	53634.25
2169.03281590552	53543
2171.2986615646	53595
2173.56384564685	53477.75
2175.82836844637	53394.25
2178.0922302572	53478
2180.35543137332	53337
2182.61797208862	53414
2184.87985269695	53130.5
2187.14107349208	52942.5
2189.40163476773	53196.25
2191.66153681753	53058.5
2193.92077993507	52739.25
2196.17936441386	52697.5
2198.43729054735	52702.75
2200.69455862894	52528.75
2202.95116895194	52547.5
2205.20712180962	52318
2207.46241749519	52253.5
2209.71705630179	52308
2211.97103852248	52031.75
2214.2243644503	51943.5
2216.47703437819	51764
2218.72904859905	51611
2220.98040740571	51494.5
2223.23111109095	51460.75
2225.4811599475	51311
2227.73055426799	51323
2229.97929434504	50898
2232.22738047118	50725.25
2234.47481293889	50711.5
2236.72159204058	50888
2238.96771806864	50574
2241.21319131536	50257
2243.458012073	49944.5
2245.70218063374	50110
2247.94569728973	50049.75
2250.18856233304	49699.75
2252.4307760557	49370
2254.67233874967	49387
2256.91325070687	49259.75
2259.15351221915	49065.75
2261.39312357831	48950.75
2263.63208507611	48743.5
2265.87039700422	48628.25
2268.1080596543	48607
2270.34507331792	48411.5
2272.5814382866	48210
2274.81715485183	48214.25
2277.05222330502	47922.25
2279.28664393755	47844.5
2281.52041704072	47524.5
2283.75354290581	47568
2285.98602182401	47286.75
2288.21785408648	47074
2290.44903998434	46943.75
2292.67957980862	47144.75
2294.90947385033	46639.25
2297.1387224004	46456.75
2299.36732574975	46496
2301.59528418921	46262.75
2303.82259800958	46334.5
2306.04926750158	45984.5
2308.27529295593	45772.5
2310.50067466325	45652.5
2312.72541291412	45626.5
2314.9495079991	45416.75
2317.17296020866	45179.5
2319.39576983323	45178.25
2321.61793716322	45044.5
2323.83946248894	44789.75
2326.06034610069	44852.75
2328.28058828871	44538.75
2330.50018934317	44480.25
2332.7191495542	44137.75
2334.93746921192	44200
2337.15514860633	43890.75
2339.37218802743	43786.25
2341.58858776516	43504.5
2343.80434810941	43553.5
2346.01946935001	43452.25
2348.23395177675	43364.25
2350.44779567939	43301
2352.66100134759	42897.5
2354.87356907101	42902.25
2357.08549913925	42668.75
2359.29679184185	42622.75
2361.50744746829	42573.25
2363.71746630804	42418.25
2365.92684865048	42134.5
2368.13559478499	42168
2370.34370500083	42073.75
2372.55117958727	41866
2374.75801883352	41772.75
2376.96422302874	41472.25
2379.16979246202	41359.25
2381.37472742243	41249
2383.57902819898	41210
2385.78269508063	41007.5
2387.98572835629	40901.25
2390.18812831482	40706.75
2392.38989524505	40762
2394.59102943573	40649.75
2396.79153117559	40465.75
2398.9914007533	40347.5
2401.19063845748	40236.25
2403.38924457672	40088.75
2405.58721939951	40028.5
2407.78456321435	39807
2409.98127630966	39789.25
2412.17735897382	39799.25
2414.37281149517	39714.75
2416.56763416198	39611.5
2418.76182726249	39584.25
2420.95539108487	39171.25
2423.14832591726	39055.75
2425.34063204776	38578.25
2427.53230976439	38632
2429.72335935513	38617.5
2431.91378110795	38247.25
2434.10357531071	38030.75
2436.29274225125	38221.75
2438.48128221739	37644.25
2440.66919549683	37653
2442.8564823773	37591.25
2445.04314314641	37429
2447.22917809176	37271.5
2449.4145875009	37185.75
2451.59937166131	36839.25
2453.78353086044	36667
2455.96706538568	36638.25
2458.14997552436	36389.75
2460.33226156379	36096
2462.51392379119	36017.5
2464.69496249376	35635
2466.87537795862	35606.25
2469.05517047288	35468.25
2471.23434032357	35382.5
2473.41288779767	35369.25
2475.59081318211	34946.25
2477.76811676378	34834.5
2479.9447988295	34610.5
2482.12085966605	34407.75
2484.29629956016	34411.75
2486.4711187985	34312.75
2488.64531766769	34262.5
2490.8188964543	34276
2492.99185544484	33782.25
2495.16419492579	33832
2497.33591518353	33706.75
2499.50701650444	33567.25
2501.67749917482	33542
2503.84736348091	33416.5
2506.01660970891	33253.5
2508.18523814496	33123.5
2510.35324907514	33024.5
2512.52064278551	33088.75
2514.68741956201	32965.5
2516.85357969058	33136.25
2519.01912345709	33126.25
2521.18405114735	32711.25
2523.34836304711	32523
2525.51205944208	32526.5
2527.6751406179	32310.5
2529.83760686016	32335.75
2531.99945845439	32274
2534.16069568606	32368.75
2536.3213188406	32229.75
2538.48132820336	31830.25
2540.64072405965	31876
2542.79950669471	31700.25
2544.95767639373	31895.5
2547.11523344184	31619.25
2549.27217812411	31604.5
2551.42851072555	31473.25
2553.58423153111	31343.75
2555.73934082569	31079.75
2557.89383889412	31102.5
2560.04772602118	30964.25
2562.20100249158	30613.25
2564.35366858996	30607.75
2566.50572460093	30554
2568.65717080901	30186.25
2570.80800749867	30264.5
2572.95823495433	30017.75
2575.10785346031	29847.25
2577.25686330093	29711.5
2579.40526476038	29394.25
2581.55305812282	29479.5
2583.70024367237	29182.75
2585.84682169303	29110.75
2587.99279246879	29048.25
2590.13815628354	28878.75
2592.28291342112	28849
2594.42706416531	28742.75
2596.5706087998	28567
2598.71354760826	28904.75
2600.85588087425	28668.25
2602.99760888127	28375.75
2605.13873191278	28291.75
2607.27925025214	28159.5
2609.41916418269	28308.5
2611.55847398764	28100.75
2613.69717995017	27983
2615.83528235339	28141
2617.97278148034	28031.75
2620.10967761398	27935
2622.2459710372	27966
2624.38166203284	27865.25
2626.51675088365	27733
2628.65123787231	27561.25
2630.78512328145	27607.25
2632.9184073936	27510
2635.05109049124	27553.75
2637.18317285676	27376
2639.31465477248	27428.75
2641.44553652067	27334.5
2643.5758183835	27220.5
2645.70550064309	27316.25
2647.83458358144	27225.75
2649.96306748053	27173.75
2652.09095262223	27139.75
2654.21823928836	27150
2656.34492776063	26873.25
2658.47101832071	26986.5
2660.59651125015	26956.25
2662.72140683047	26842.75
2664.84570534309	26805
2666.96940706934	26603.25
2669.0925122905	26553
2671.21502128773	26622.25
2673.33693434215	26717
2675.45825173479	26545
2677.57897374658	26411.75
2679.69910065839	26505.75
2681.818632751	26271.75
2683.93757030511	26368.25
2686.05591360133	26221.5
2688.17366292021	26196.75
2690.29081854218	26036.25
2692.40738074762	25767
2694.52334981681	25880.75
2696.63872602995	25827.25
2698.75350966713	25985.75
2700.86770100841	25967.25
2702.98130033371	25725.75
2705.09430792289	25630
2707.20672405571	25677
2709.31854901185	25810.5
2711.42978307091	25608.5
2713.54042651238	25652.75
2715.65047961567	25672.5
2717.7599426601	25578.75
2719.86881592491	25551
2721.97709968924	25507.25
2724.08479423213	25279.5
2726.19189983255	25462
2728.29841676934	25256.75
2730.4043453213	25360
2732.5096857671	25346.75
2734.61443838532	25081.75
2736.71860345444	25062
2738.82218125286	25087.75
2740.92517205889	25117
2743.02757615072	25112.75
2745.12939380646	24753
2747.23062530411	24913.25
2749.33127092159	24965.75
2751.4313309367	24683
2753.53080562716	24952.75
2755.62969527058	24939.5
2757.72800014448	24725.75
2759.82572052625	24715.25
2761.92285669323	24622.5
2764.0194089226	24604.25
2766.11537749147	24561.5
2768.21076267686	24680.25
2770.30556475566	24437.25
2772.39978400465	24418.75
2774.49342070054	24466.75
2776.58647511991	24435.25
2778.67894753923	24393.5
2780.77083823487	24366
2782.8621474831	24174.5
2784.95287556007	24173
2787.04302274184	24064.75
2789.13258930433	24231
2791.22157552338	23959.5
2793.30998167471	23957.25
2795.39780803392	24187.5
2797.4850548765	24152.25
2799.57172247786	23878.25
2801.65781111324	23816.25
2803.74332105781	23912.5
2805.82825258661	23867.5
2807.91260597457	23870
2809.9963814965	23694.5
2812.07957942711	23862.25
2814.16220004096	23610
2816.24424361252	23670.5
2818.32571041614	23650.75
2820.40660072604	23730
2822.48691481631	23857.75
2824.56665296098	23762
2826.64581543388	23706.5
2828.72440250876	23941
2830.80241445925	23887.5
2832.87985155885	24030.25
2834.95671408093	24242.25
2837.03300229875	24543.75
2839.10871648544	24897
2841.18385691399	25450.5
2843.25842385729	26149.75
2845.33241758808	26567.5
2847.40583837898	27461
2849.4786865025	27697.25
2851.550962231	27628.5
2853.6226658367	27480.25
2855.69379759173	26965.75
2857.76435776806	26792
2859.83434663753	26347.25
2861.90376447184	26174
2863.97261154259	25886.75
2866.0408881212	25819.25
2868.10859447901	25776.25
2870.17573088717	25804.25
2872.24229761673	25769.75
2874.30829493859	25926
2876.37372312352	25973.75
2878.43858244215	26563.25
2880.50287316496	26761.75
2882.56659556231	26882.5
2884.62974990439	26767.25
2886.69233646129	26538
2888.75435550293	26396.75
2890.81580729909	26529.25
2892.87669211941	26348
2894.93701023339	26305
2896.99676191039	26383
2899.05594741961	26500.75
2901.1145670301	26183
2903.1726210108	25865
2905.23010963045	25897.5
2907.28703315768	25745.5
2909.34339186096	25642
2911.39918600861	25582.25
2913.45441586879	25340.5
2915.50908170952	25525.5
2917.56318379867	25407.5
2919.61672240395	25651.25
2921.66969779291	25543.75
2923.72211023295	25621.75
2925.77395999134	25525.5
2927.82524733515	25581.25
2929.87597253132	25459
2931.92613584663	25164.75
2933.97573754769	24998
2936.02477790097	24687.5
2938.07325717276	24411.5
2940.1211756292	24356.25
2942.16853353626	23989.25
2944.21533115976	23933.5
2946.26156876536	23705.5
2948.30724661853	23626.25
2950.3523649846	23530
2952.39692412872	23426.75
2954.44092431587	23383.5
2956.48436581089	23271.25
2958.52724887843	23155.5
2960.56957378296	23215.5
2962.6113407888	23386.5
2964.65255016011	23215.25
2966.69320216083	23399.5
2968.73329705479	23157.25
2970.77283510559	23124.25
2972.81181657671	23012
2974.8502417314	23199.5
2976.88811083279	23156.75
2978.92542414378	23280
2980.96218192713	23157.75
2982.99838444541	23357.25
2985.034031961	23341.5
2987.06912473612	23367.5
2989.1036630328	23280.5
2991.13764711288	23252.75
2993.17107723804	23395
2995.20395366974	23411.5
2997.23627666931	23563.75
2999.26804649782	23520.75
3001.29926341624	23693
3003.32992768528	23540
3005.3600395655	23711.75
3007.38959931726	23694.75
3009.41860720076	23793.75
3011.44706347595	24052.5
3013.47496840263	23841
3015.50232224041	23940.5
3017.5291252487	24143.25
3019.5553776867	24036
3021.58107981344	24287.25
3023.60623188773	24268.25
3025.63083416822	24349.5
3027.65488691331	24413
3029.67839038125	24433.25
3031.70134483007	24248.5
3033.72375051759	24474.5
3035.74560770144	24680.75
3037.76691663907	24558.75
3039.78767758768	24743.75
3041.80789080431	24469.5
3043.82755654577	24726
3045.84667506867	24747.75
3047.8652466294	24823
3049.88327148418	24846
3051.90074988899	24776.25
3053.91768209961	24827.5
3055.9340683716	24738
3057.94990896033	24851.75
3059.96520412095	24957.75
3061.97995410838	25022.75
3063.99415917734	25122
3066.00781958234	25036.5
3068.02093557766	24982.5
3070.03350741738	24895.5
3072.04553535535	25043.75
3074.05701964521	25070.75
3076.06796054036	25024.25
3078.078358294	25017.5
3080.08821315912	25115.25
3082.09752538846	25476
3084.10629523454	25038.25
3086.11452294967	25360.5
3088.12220878592	25244.75
3090.12935299515	25481.5
3092.13595582898	25423
3094.1420175388	25400
3096.14753837579	25564.75
3098.15251859088	25547
3100.15695843477	25630.5
3102.16085815793	25564.5
3104.16421801061	25597
3106.16703824282	25635
3108.16931910432	25787.75
3110.17106084464	25817.75
3112.17226371308	25929.75
3114.17292795872	26056
3116.17305383034	26102
3118.17264157657	26086.25
3120.17169144571	26241.25
3122.17020368587	26114.25
3124.16817854492	26300.75
3126.16561627044	26431
3128.16251710982	26724.5
3130.15888131017	26824.75
3132.15470911837	26907.75
3134.15000078104	26917.5
3136.14475654455	26999
3138.13897665502	27141
3140.13266135835	27130.25
3142.12581090014	27027.5
3144.11842552577	27339
3146.11050548036	27481.75
3148.10205100875	27460.25
3150.09306235557	27552
3152.08353976515	27696
3154.07348348158	27311.75
3156.06289374869	27761.5
3158.05177081006	27683.75
3160.04011490899	27703.75
3162.02792628852	28013.75
3164.01520519145	27893.25
3166.00195186029	27952
3167.98816653728	28139
3169.97384946442	28233.5
3171.95900088344	28158.25
3173.94362103577	28425.5
3175.92771016259	28465.25
3177.91126850484	28605.25
3179.89429630312	28618.75
3181.87679379782	28529
3183.85876122903	28933.5
3185.84019883657	28868.75
3187.82110685997	28953
3189.80148553851	28884
3191.78133511116	29145.75
3193.76065581664	29282
3195.73944789337	29263.75
3197.7177115795	29400
3199.6954471129	29501
3201.67265473114	29633
3203.64933467153	29591.25
3205.62548717107	29740
3207.60111246648	29922.25
3209.57621079421	29875.5
3211.55078239041	30096
3213.52482749093	30017.75
3215.49834633133	30496.75
3217.4713391469	30549.25
3219.44380617262	30564
3221.41574764317	30817.25
3223.38716379296	30678.5
3225.35805485607	30931.75
3227.32842106631	30989.5
3229.29826265718	31220.75
3231.26757986187	31457.5
3233.2363729133	31640
3235.20464204405	31634
3237.17238748643	31809
3239.13960947243	31916.75
3241.10630823374	32163.5
3243.07248400174	32180.25
3245.03813700748	32542.5
3247.00326748177	32533.75
3248.96787565503	32532
3250.93196175742	32735.75
3252.89552601877	32822.75
3254.8585686686	32808.25
3256.82108993612	33287.25
3258.78309005022	33159.25
3260.74456923948	33099.5
3262.70552773215	33387
3264.66596575617	33597.5
3266.62588353916	33484.75
3268.58528130843	33491.75
3270.54415929094	33528
3272.50251771336	33892.5
3274.46035680201	34098.5
3276.4176767829	34264.5
3278.37447788171	34024
3280.33076032379	34527
3282.28652433416	34240
3284.24177013751	34600.5
3286.1964979582	34773.25
3288.15070802027	34857
3290.10440054741	34891.25
3292.05757576298	34841.25
3294.01023389001	35128.75
3295.96237515119	35435
3297.91399976887	35359
3299.86510796506	35470.5
3301.81569996142	35651.5
3303.76577597932	35727.5
3305.7153362397	35803.25
3307.66438096324	35858
3309.61291037024	36127.5
3311.56092468064	36038
3313.50842411404	36045.5
3315.45540888971	36517.5
3317.40187922656	36297
3319.34783534315	36592.5
3321.29327745768	36539.75
3323.23820578801	36359.5
3325.18262055164	36694.75
3327.1265219657	36791.25
3329.06991024699	37155
3331.01278561194	37192
3332.95514827662	37008
3334.89699845674	37572.75
3336.83833636766	37421.25
3338.77916222434	37228
3340.71947624143	37701.25
3342.65927863317	37975.75
3344.59856961346	37947.75
3346.53734939584	38258.5
3348.47561819344	38173
3350.41337621906	38273.5
3352.35062368513	38330
3354.28736080368	38415.5
3356.22358778637	38515.5
3358.15930484452	38665
3360.09451218904	38791.75
3362.02921003047	38862.75
3363.96339857898	39055.75
3365.89707804436	39126.75
3367.83024863602	39031.5
3369.76291056299	39187.25
3371.69506403389	39302.5
3373.62670925699	39514
3375.55784644016	39652.25
3377.4884757909	39569.75
3379.41859751629	39839.25
3381.34821182305	39998.5
3383.27731891749	40078.25
3385.20591900555	40142.25
3387.13401229276	40330.75
3389.06159898426	40462
3390.9886792848	40526.25
3392.91525339872	40811.5
3394.84132152998	40893.75
3396.76688388213	41003.5
3398.69194065833	41116
3400.61649206133	41212.5
3402.54053829348	41254.5
3404.46407955672	41226
3406.3871160526	41326.25
3408.30964798225	41549.75
3410.23167554639	41621.5
3412.15319894535	41978.5
3414.07421837904	41881.5
3415.99473404695	41848.5
3417.91474614817	42014.5
3419.83425488136	42171.75
3421.75326044479	42293.25
3423.67176303631	42375.25
3425.58976285332	42461
3427.50726009282	42517
3429.42425495143	42503
3431.34074762528	42742
3433.25673831012	42526.75
3435.17222720127	42750.75
3437.08721449362	42807.25
3439.00170038164	42754.5
3440.91568505936	42974.5
3442.82916872039	42812
3444.74215155791	42934
3446.65463376468	43129
3448.566615533	43129
3450.47809705476	43087.75
3452.3890785214	43247.75
3454.29956012393	43426.75
3456.20954205293	43374
3458.11902449853	43396
3460.02800765041	43431.5
3461.93649169784	43585.25
3463.84447682962	43438.75
3465.75196323412	43542.5
3467.65895109925	43636
3469.56544061249	43708.5
3471.47143196086	43604.5
3473.37692533093	43790.75
3475.28192090884	43706.75
3477.18641888026	43880
3479.09041943039	43877.75
3480.99392274402	43990
3482.89692900545	43931
3484.79943839853	43925.75
3486.70145110666	44013.75
3488.60296731277	44070.25
3490.50398719933	43946.75
3492.40451094836	43774.5
3494.30453874141	44090.75
3496.20407075956	44169.5
3498.10310718342	44212.25
3500.00164819315	44042