201.866871357051	2474.75
204.754250281454	2464.5
207.640596790938	2480.5
210.525911876299	2487
213.410196525689	2479.25
216.293451724508	2477.5
219.175678455485	2526.5
222.056877698662	2532.75
224.937050431388	2506
227.816197628363	2542.75
230.694320261602	2524.75
233.571419300504	2551.25
236.447495711764	2617.75
239.322550459507	2569.75
242.196584505182	2603
245.069598807626	2608.25
247.941594323078	2628.5
250.812572005154	2608
253.682532804884	2682.75
256.551477670699	2680.5
259.419407548456	2693.5
262.286323381439	2685.5
265.152226110364	2704.5
268.017116673389	2711.25
270.880996006115	2711.75
273.743865041622	2712
276.605724710436	2750.5
279.466575940562	2733.75
282.326419657496	2761.75
285.1852567842	2777.75
288.043088241157	2807.5
290.899914946349	2789.5
293.75573781526	2800.75
296.610557760898	2817
299.464375693817	2837
302.317192522078	2871.5
305.169009151297	2867.5
308.019826484655	2882.75
310.86964542287	2928.5
313.718466864233	2870.75
316.566291704614	2934.5
319.413120837457	2900.25
322.258955153804	2929.25
325.103795542291	2903.25
327.947642889128	2940.5
330.79049807819	2924.5
333.632361990927	2956.25
336.473235506444	3005.25
339.31311950145	2981
342.152014850322	2995.75
344.989922425062	3065.25
347.826843095354	3091.75
350.662777728528	3081.75
353.497727189577	3072.75
356.331692341195	3097
359.164674043732	3133
361.996673155267	3140.5
364.827690531536	3194.25
367.65772702602	3169.5
370.486783489887	3187.5
373.314860772047	3187
376.14195971912	3206
378.968081175466	3228.75
381.793225983212	3240
384.617394982201	3248.75
387.44058901005	3287.75
390.262808902131	3306.75
393.08405549161	3328
395.904329609395	3351.25
398.723632084213	3387.5
401.541963742569	3377.5
404.359325408779	3365.25
407.175717904938	3391.5
409.991142050982	3403
412.805598664665	3384.75
415.619088561551	3407
418.43161255505	3438.75
421.243171456415	3451.75
424.053766074758	3513.75
426.863397217017	3514.25
429.672065688024	3496.75
432.479772290455	3525.25
435.286517824879	3566.5
438.092303089736	3570.5
440.897128881359	3572.5
443.70099599399	3617
446.503905219761	3632.5
449.305857348711	3586.25
452.106853168796	3616.25
454.906893465919	3658
457.705979023885	3666.25
460.504110624439	3687.75
463.3012890473	3711.75
466.097515070087	3661.75
468.892789468424	3703
471.687113015869	3776.5
474.48048648395	3766.5
477.272910642198	3766.75
480.064386258109	3804
482.854914097159	3825.75
485.644494922839	3830
488.433129496636	3884.25
491.220818578047	3883.75
494.007562924584	3898.75
496.793363291785	3962
499.578220433217	3985.25
502.362135100473	4000.75
505.145108043209	4037.75
507.927140009098	4063.5
510.708231743909	4082.75
513.488383991433	4093
516.267597493556	4131.25
519.04587299022	4138.25
521.82321121946	4134
524.599612917398	4195.25
527.375078818233	4191.75
530.149609654287	4205
532.923206155967	4206.75
535.695869051804	4217.5
538.467599068448	4227.5
541.238396930665	4269.75
544.008263361364	4214.5
546.777199081578	4264.25
549.545204810493	4226.25
552.312281265436	4274
555.078429161898	4372.25
557.843649213533	4385.25
560.607942132156	4351.75
563.371308627753	4387
566.133749408495	4434
568.895265180756	4509
571.655856649064	4534
574.415524516189	4563.75
577.174269483075	4564.75
579.932092248884	4587.75
582.688993510994	4671
585.444973965023	4716
588.200034304795	4726.25
590.95417522237	4722.25
593.70739740807	4766.25
596.459701550433	4772
599.21108833628	4813
601.961558450668	4829
604.711112576933	4856.25
607.459751396673	4849.5
610.207475589748	4826
612.954285834338	4894.25
615.700182806879	4901.25
618.445167182101	4896.25
621.189239633055	4909.25
623.932400831087	4932.25
626.674651445839	4953.25
629.415992145303	4961.5
632.156423595745	5022
634.895946461813	5002.25
637.634561406449	5016.75
640.37226909096	5112.25
643.109070174978	5087.75
645.844965316508	5156.5
648.579955171888	5197
651.314040395846	5181.25
654.047221641456	5218.25
656.779499560176	5296.75
659.510874801828	5321.25
662.241348014642	5337.75
664.97091984524	5438.5
667.699590938606	5420
670.427361938164	5436
673.15423348573	5429
675.880206221526	5532
678.605280784206	5561.75
681.329457810829	5609.25
684.05273793692	5670.5
686.775121796389	5696.25
689.49661002163	5673.75
692.217203243454	5671
694.936902091144	5707.25
697.655707192425	5733.75
700.373619173493	5762
703.09063865901	5770
705.806766272093	5815.5
708.522002634378	5917
711.236348365946	5950.25
713.94980408538	5985.75
716.662370409762	6004.25
719.374047954676	5992.5
722.08483733419	6010.5
724.794739160909	6054
727.503754045949	6103
730.21188259892	6103
732.919125427998	6138.25
735.625483139855	6237.5
738.330956339723	6273.75
741.035545631374	6378.25
743.739251617106	6456.5
746.44207489779	6491.75
749.144016072852	6565.5
751.845075740272	6605.75
754.545254496603	6619.5
757.244552936976	6630.5
759.94297165508	6685.25
762.640511243222	6632.75
765.337172292249	6705.75
768.032955391649	6804
770.727861129482	6821
773.421890092413	6846.75
776.11504286572	6903.75
778.807320033298	6918.75
781.49872217765	6947
784.18924987991	6923
786.87890371984	6981
789.567684275826	7041.75
792.255592124908	7113.5
794.94262784276	7047.25
797.628792003703	7154
800.314085180715	7173.75
802.998507945427	7289
805.682060868145	7284
808.364744517821	7363
811.046559462105	7410.5
813.727506267311	7449
816.407585498422	7467.5
819.08679771913	7524.5
821.765143491822	7592.75
824.442623377563	7634.5
827.119237936127	7718.5
829.794987726003	7787.5
832.469873304377	7845
835.143895227167	7921
837.817054048985	7957.75
840.489350323205	8033.75
843.160784601892	8172
845.831357435894	8118.5
848.501069374739	8230.25
851.169920966753	8213
853.837912758987	8324.5
856.505045297232	8353
859.171319126071	8458.5
861.836734788823	8382.25
864.501292827579	8458.25
867.164993783208	8517.75
869.827838195361	8458.5
872.489826602454	8600.75
875.150959541701	8695.75
877.811237549104	8649.5
880.470661159456	8767.75
883.129230906357	8778.75
885.786947322205	8768.5
888.443810938206	8869
891.099822284385	8870
893.754981889586	8976.25
896.409290281452	9019.5
899.062747986485	9165.75
901.715355529999	9238
904.367113436154	9266.5
907.01802222793	9335
909.668082427172	9322.25
912.317294554574	9408.75
914.965659129659	9514
917.613176670835	9628.5
920.259847695364	9703.25
922.90567271936	9707.5
925.550652257825	9801
928.194786824621	9872.25
930.838076932512	9891.5
933.480523093109	10000.5
936.122125816953	10055.5
938.762885613447	10131
941.402802990899	10254.75
944.041878456523	10335.25
946.680112516428	10398.5
949.31750567563	10409
951.954058438081	10615.25
954.589771306633	10632.5
957.224644783048	10684
959.858679368044	10730
962.491875561238	10771
965.12423386121	10868
967.75575476545	10906
970.386438770423	11010.25
973.016286371501	11103.5
975.645298063046	11133.5
978.273474338355	11176.25
980.900815689674	11295.75
983.527322608243	11327
986.152995584245	11408.25
988.777835106834	11525
991.401841664148	11581.25
994.025015743307	11614.25
996.647357830407	11641.25
999.268868410534	11743.5
1001.88954796777	11854
1004.50939698518	11931.5
1007.12841594484	12071.75
1009.74660532783	12149
1012.36396561423	12241.75
1014.98049728314	12248.75
1017.59620081267	12280.5
1020.21107667995	12375.5
1022.82512536112	12540.25
1025.43834733138	12676.25
1028.05074306493	12715
1030.66231303501	12739
1033.27305771392	12949
1035.88297757299	12996.75
1038.49207308257	13006.75
1041.10034471211	13107.25
1043.70779293008	13316
1046.31441820402	13310.5
1048.92022100052	13319.25
1051.52520178525	13486.5
1054.12936102295	13688.75
1056.73269917742	13594.25
1059.33521671154	13778.25
1061.93691408729	13882.5
1064.53779176571	13843.5
1067.13785020694	13925.75
1069.73708987022	14001.5
1072.33551121386	14071.25
1074.93311469528	14064.5
1077.52990077103	14268
1080.12586989674	14270.5
1082.72102252714	14377
1085.31535911611	14477
1087.90888011663	14493.75
1090.50158598078	14701.5
1093.09347715979	14785.75
1095.68455410403	14843.75
1098.27481726296	14912.25
1100.86426708523	15061.25
1103.45290401857	15152
1106.04072850991	15233.5
1108.6277410053	15379.5
1111.21394194993	15306
1113.79933178816	15486.75
1116.3839109635	15598.25
1118.96767991862	15784
1121.55063909539	15834.75
1124.13278893477	15946.5
1126.71412987696	16017.5
1129.29466236132	16111.75
1131.87438682637	16261
1134.45330370982	16386
1137.03141344858	16528.75
1139.60871647872	16502.25
1142.18521323554	16637.5
1144.7609041535	16729.25
1147.33578966629	16903
1149.90987020676	16981.5
1152.48314620702	17124.75
1155.05561809835	17086.25
1157.62728631125	17117.25
1160.19815127545	17279.5
1162.76821341988	17459.75
1165.33747317271	17524.5
1167.90593096133	17637.75
1170.47358721235	17629.75
1173.04044235163	17753
1175.60649680425	17870.75
1178.17175099454	18025
1180.73620534607	18058.5
1183.29986028165	18074
1185.86271622336	18066.75
1188.42477359249	18188.5
1190.98603280964	18142
1193.54649429462	18084.5
1196.10615846653	18364.25
1198.66502574372	18253
1201.22309654385	18352.25
1203.78037128378	18513.25
1206.33685037971	18561.75
1208.89253424709	18679.5
1211.44742330063	18668.25
1214.00151795438	18860.75
1216.55481862163	18967.25
1219.10732571497	19013.75
1221.65903964631	19121.5
1224.20996082683	19212.5
1226.760089667	19291
1229.30942657664	19427.25
1231.85797196483	19743.25
1234.40572623998	19741.25
1236.95268980981	19872.5
1239.49886308136	19899.5
1242.04424646098	20076.75
1244.58884035435	20154.5
1247.13264516647	20232.5
1249.67566130166	20373.25
1252.21788916358	20314.25
1254.75932915524	20679.75
1257.29998167896	20749.5
1259.83984713639	20861.25
1262.37892592857	21015.75
1264.91721845586	21062
1267.45472511795	21181
1269.9914463139	21214
1272.52738244213	21378
1275.0625339004	21391.25
1277.59690108587	21530.75
1280.130484395	21646.75
1282.66328422367	21526.25
1285.19530096712	21662.75
1287.72653501993	21959
1290.25698677608	21853.75
1292.78665662894	22130.75
1295.31554497125	22044.25
1297.8436521951	22187.5
1300.37097869203	22228.25
1302.89752485292	22338
1305.42329106805	22316.75
1307.94827772713	22683.5
1310.47248521921	22650.25
1312.99591393279	22894
1315.51856425575	22872.75
1318.04043657536	22985.25
1320.56153127836	23035.5
1323.08184875083	23333.25
1325.6013893783	23223.5
1328.12015354572	23629.75
1330.63814163744	23794
1333.15535403727	23748
1335.67179112839	24006.25
1338.18745329347	24037.5
1340.70234091454	24222.5
1343.21645437314	24295.25
1345.72979405019	24370
1348.24236032607	24546.5
1350.75415358059	24896.75
1353.26517419303	24977
1355.7754225421	25290.5
1358.28489900594	25542.75
1360.79360396218	25722.25
1363.30153778787	25559
1365.80870085955	25365.25
1368.31509355319	25496.25
1370.82071624424	25457.25
1373.32556930762	25480.75
1375.8296531177	25463
1378.33296804832	25527.25
1380.83551447282	25418
1383.33729276399	25469.5
1385.83830329408	25361.75
1388.33854643489	25451.25
1390.83802255762	25380.25
1393.33673203301	25276.75
1395.83467523128	25472.5
1398.33185252211	25352.75
1400.82826427471	25431.5
1403.32391085777	25396
1405.81879263947	25628.25
1408.31290998752	25649.5
1410.80626326908	25464.25
1413.29885285087	25681
1415.79067909909	25833.75
1418.28174237944	25768.75
1420.77204305717	26049.25
1423.26158149702	26103.75
1425.75035806323	26186.5
1428.2383731196	26094
1430.72562702942	26183.75
1433.21212015554	26533.25
1435.69785286028	26734
1438.18282550555	27080.25
1440.66703845275	27071.5
1443.15049206284	27198.5
1445.6331866963	27360.25
1448.11512271316	27373.25
1450.59630047298	27658.75
1453.07672033486	27632.5
1455.55638265748	27794.75
1458.03528779902	27859.5
1460.51343611725	28003
1462.99082796946	28038.5
1465.46746371252	28008
1467.94334370285	28202.75
1470.41846829642	28032.5
1472.89283784878	28244.25
1475.36645271503	28398
1477.83931324983	28352.25
1480.31141980743	28431.25
1482.78277274164	28622
1485.25337240583	28445.25
1487.72321915297	28415
1490.19231333557	28414.5
1492.66065530578	28310.25
1495.12824541525	28133
1497.5950840153	28340
1500.06117145678	28137
1502.52650809014	28316
1504.99109426543	28266.75
1507.45493033227	28262
1509.91801663992	28283.5
1512.38035353717	28385.75
1514.84194137248	28393.5
1517.30278049386	28592.5
1519.76287124894	28682
1522.22221398497	28548.25
1524.68080904876	28585.75
1527.13865678681	28642
1529.59575754514	28855.25
1532.05211166945	29056
1534.50771950503	29054.75
1536.96258139678	29100
1539.41669768924	29360.75
1541.87006872656	29326.25
1544.32269485252	29350
1546.77457641051	29522
1549.22571374357	29980
1551.67610719434	29908.75
1554.12575710513	29922
1556.57466381785	30011.75
1559.02282767408	30177.75
1561.47024901499	30199.25
1563.91692818144	30299.25
1566.3628655139	30483
1568.80806135249	30412
1571.252516037	30429.5
1573.6962299068	30965.75
1576.13920330099	30726.75
1578.58143655828	31012.75
1581.02293001704	31236.75
1583.46368401528	31127
1585.90369889071	31321.25
1588.34297498065	31441
1590.7815126221	31380.25
1593.21931215173	31497.5
1595.65637390588	31335.75
1598.09269822053	31200.25
1600.52828543135	31487.75
1602.96313587367	31477
1605.3972498825	31266.25
1607.83062779252	31007.5
1610.26326993808	31526.5
1612.69517665322	31285
1615.12634827165	31318.25
1617.55678512676	31271.5
1619.98648755163	31094.5
1622.41545587902	31060.75
1624.84369044138	31025.75
1627.27119157085	31199.5
1629.69795959924	31262.5
1632.12399485808	31318.75
1634.54929767859	31209.5
1636.97386839165	31353.25
1639.39770732789	31249.5
1641.8208148176	31363.25
1644.24319119078	31474.75
1646.66483677715	31482.5
1649.0857519061	31656.25
1651.50593690677	31784.5
1653.92539210795	31897
1656.3441178382	31703
1658.76211442575	31719
1661.17938219855	32009
1663.59592148428	32193.25
1666.01173261032	32195.5
1668.42681590377	32616.5
1670.84117169145	32477.75
1673.25480029991	32313.25
1675.66770205541	32568.25
1678.07987728393	32661.75
1680.49132631119	32994
1682.90204946263	32855.25
1685.31204706342	33005.25
1687.72131943846	33272
1690.1298669124	33214
1692.53768980957	33587.5
1694.94478845411	33294.25
1697.35116316982	33211.5
1699.75681428031	33342.25
1702.16174210887	33355.75
1704.56594697858	33407.5
1706.96942921222	33820.5
1709.37218913235	33579
1711.77422706125	33499.75
1714.17554332098	33541
1716.5761382333	33810.5
1718.97601211977	33547.75
1721.37516530169	33447.75
1723.77359810006	33430.5
1726.17131083572	33417.75
1728.56830382922	33587.25
1730.96457740087	33501
1733.36013187075	33215.5
1735.75496755868	33369.25
1738.14908478428	33541.75
1740.54248386689	33384.25
1742.93516512565	33248.5
1745.32712887946	33429.75
1747.71837544697	33539
1750.10890514662	33512
1752.49871829661	33423.25
1754.88781521492	33582
1757.27619621929	33808
1759.66386162726	33511.75
1762.05081175612	33774.75
1764.43704692297	33680.75
1766.82256744465	33681.5
1769.20737363782	33915
1771.59146581887	33617.25
1773.97484430405	33939
1776.35750940932	34209.75
1778.73946145048	33955.5
1781.12070074309	33968.75
1783.50122760249	34212.25
1785.88104234385	34262.25
1788.26014528209	34285.75
1790.63853673196	34230.25
1793.01621700796	34348.5
1795.39318642443	34621.5
1797.76944529549	34517.25
1800.14499393503	34601.25
1802.51983265681	34477.75
1804.8939617743	34789.5
1807.26738160085	34912.25
1809.64009244957	34847
1812.01209463339	34607
1814.38338846504	35080
1816.75397425706	34830.5
1819.12385232181	34861.25
1821.49302297142	34968.25
1823.86148651789	34802.25
1826.22924327299	34746.75
1828.59629354831	35062
1830.96263765526	34789.75
1833.32827590507	34845.5
1835.69320860877	34869.75
1838.05743607724	34977.75
1840.42095862113	34797
1842.78377655097	34905.75
1845.14589017707	34681.75
1847.50729980956	34757.5
1849.86800575843	34987
1852.22800833346	34813.25
1854.58730784427	34852.5
1856.94590460032	35030.25
1859.30379891087	35158.5
1861.66099108503	35113.75
1864.01748143175	35326.5
1866.37327025978	35346
1868.72835787773	35108
1871.08274459403	35400
1873.43643071697	35325.75
1875.78941655464	35578.5
1878.14170241498	35438.25
1880.4932886058	35659.5
1882.84417543469	35730
1885.19436320915	35827.5
1887.54385223646	35734.75
1889.89264282378	35965
1892.24073527809	35953.5
1894.58812990625	36147.75
1896.93482701493	36500.25
1899.28082691067	36563
1901.62612989984	36708.75
1903.97073628868	36807.25
1906.31464638326	36637.25
1908.6578604895	36854
1911.00037891321	37020
1913.34220196	37320.5
1915.68332993537	37229.25
1918.02376314468	37218
1920.36350189311	37272
1922.70254648573	37274
1925.04089722744	37133.25
1927.37855442303	37201.5
1929.71551837715	37404.75
1932.05178939426	37235.25
1934.38736777876	37391.5
1936.72225383484	37395.25
1939.0564478666	37731.5
1941.38995017799	37295.5
1943.72276107283	37688.5
1946.05488085479	37376.5
1948.38630982744	37228.5
1950.71704829419	37503
1953.04709655832	37209
1955.376454923	37309.5
1957.70512369126	37341.75
1960.03310316599	37431
1962.36039364999	37122
1964.68699544589	37255
1967.01290885622	37601.5
1969.33813418338	37528.25
1971.66267172965	37597
1973.98652179718	37567
1976.309684688	37794
1978.63216070402	37841.75
1980.95395014705	38261.5
1983.27505331873	37619.75
1985.59547052063	38031.5
1987.9152020542	38124
1990.23424822074	38057.25
1992.55260932146	38037
1994.87028565746	38198
1997.18727752968	38209.25
1999.503585239	38478.25
2001.81920908618	38424.75
2004.13414937184	38689.75
2006.44840639651	39038
2008.7619804606	39075
2011.07487186442	39069.75
2013.38708090815	39444
2015.6986078919	39295.75
2018.00945311564	39418.75
2020.31961687923	39439.25
2022.62909948246	39762
2024.93790122498	39740.25
2027.24602240636	39843
2029.55346332604	40044.75
2031.86022428337	40003
2034.16630557761	40206.25
2036.47170750791	40238.75
2038.77643037331	40409.75
2041.08047447275	40558.25
2043.38384010509	40197.5
2045.68652756907	40548.25
2047.98853716335	40478.25
2050.28986918648	40361.75
2052.59052393692	40700
2054.89050171302	40694.75
2057.18980281306	40781
2059.4884275352	40718.25
2061.78637617753	40462.75
2064.08364903802	40646
2066.38024641457	40779.25
2068.67616860497	40845
2070.97141590694	40668.25
2073.26598861809	40704.25
2075.55988703595	40587.5
2077.85311145796	40760
2080.14566218145	40776.25
2082.43753950371	40821.5
2084.72874372188	40821
2087.01927513307	40767
2089.30913403428	40847
2091.59832072241	40871.5
2093.88683549429	40690.25
2096.17467864666	40895
2098.46185047619	41042.25
2100.74835127944	41073.25
2103.03418135292	41240.5
2105.31934099303	40988
2107.6038304961	41261
2109.88765015838	41278.5
2112.17080027602	41195
2114.45328114513	41326.75
2116.7350930617	41326.75
2119.01623632165	41425
2121.29671122085	41289.75
2123.57651805505	41440.75
2125.85565711996	41593.5
2128.13412871117	41644.5
2130.41193312424	41678.25
2132.68907065462	41700.5
2134.96554159771	41813.5
2137.24134624881	41792.25
2139.51648490317	41826
2141.79095785593	41854
2144.0647654022	42010.25
2146.33790783698	41909.25
2148.61038545524	41800
2150.88219855182	42254.25
2153.15334742154	42169.75
2155.42383235911	42301.5
2157.6936536592	42226.25
2159.9628116164	42217.25
2162.23130652522	42307.75
2164.49913868011	42311.5
2166.76630837544	42386
2169.03281590552	42461
2171.2986615646	42402.25
2173.56384564685	42318
2175.82836844637	42463.25
2178.0922302572	42585.25
2180.35543137332	42601.75
2182.61797208862	42556.5
2184.87985269695	42380
2187.14107349208	42470.75
2189.40163476773	42604.25
2191.66153681753	42587.75
2193.92077993507	42399.5
2196.17936441386	42585.5
2198.43729054735	42694.75
2200.69455862894	42717.5
2202.95116895194	42654.25
2205.20712180962	42636.25
2207.46241749519	42628.75
2209.71705630179	42766.75
2211.97103852248	42840.25
2214.2243644503	42826.75
2216.47703437819	42732
2218.72904859905	42791.25
2220.98040740571	42982.25
2223.23111109095	42948.5
2225.4811599475	42834
2227.73055426799	42977.75
2229.97929434504	42926.75
2232.22738047118	42862.25
2234.47481293889	42914
2236.72159204058	43156.25
2238.96771806864	43086.25
2241.21319131536	42952.5
2243.458012073	42963.75
2245.70218063374	43146
2247.94569728973	43289
2250.18856233304	43250
2252.4307760557	42999
2254.67233874967	43182.25
2256.91325070687	43238.75
2259.15351221915	43305.5
2261.39312357831	43390.5
2263.63208507611	43225.5
2265.87039700422	43337.25
2268.1080596543	43552.5
2270.34507331792	43454.25
2272.5814382866	43374.25
2274.81715485183	43572
2277.05222330502	43640.25
2279.28664393755	43664.5
2281.52041704072	43586.25
2283.75354290581	43799
2285.98602182401	43649.25
2288.21785408648	43695
2290.44903998434	43652
2292.67957980862	43884
2294.90947385033	43706
2297.1387224004	43812.75
2299.36732574975	44018.75
2301.59528418921	43911.25
2303.82259800958	43964.75
2306.04926750158	43977.25
2308.27529295593	43899.25
2310.50067466325	44027.75
2312.72541291412	44003.5
2314.9495079991	44079.75
2317.17296020866	43901
2319.39576983323	44220
2321.61793716322	44190
2323.83946248894	44147.75
2326.06034610069	44228
2328.28058828871	44194.5
2330.50018934317	44194.25
2332.7191495542	44293
2334.93746921192	44132.5
2337.15514860633	44140.5
2339.37218802743	44232.25
2341.58858776516	44089
2343.80434810941	44229.75
2346.01946935001	44304.25
2348.23395177675	44178
2350.44779567939	44390.25
2352.66100134759	44182.25
2354.87356907101	44313.5
2357.08549913925	44144.25
2359.29679184185	44237.5
2361.50744746829	44444
2363.71746630804	44337.5
2365.92684865048	44099.75
2368.13559478499	44279.75
2370.34370500083	44399.75
2372.55117958727	44332
2374.75801883352	44246.75
2376.96422302874	44152
2379.16979246202	44147.75
2381.37472742243	44242.5
2383.57902819898	44273.75
2385.78269508063	44092.25
2387.98572835629	44150.5
2390.18812831482	44224.5
2392.38989524505	44263.25
2394.59102943573	44201.75
2396.79153117559	44276.25
2398.9914007533	44152.25
2401.19063845748	44147.5
2403.38924457672	44110.75
2405.58721939951	44125.5
2407.78456321435	44080.5
2409.98127630966	44043.5
2412.17735897382	44210
2414.37281149517	44106
2416.56763416198	44187
2418.76182726249	44209
2420.95539108487	43940.25
2423.14832591726	44106
2425.34063204776	44019
2427.53230976439	44012.5
2429.72335935513	44120.5
2431.91378110795	43969.75
2434.10357531071	43824.5
2436.29274225125	44038
2438.48128221739	43803.25
2440.66919549683	43832
2442.8564823773	43939.75
2445.04314314641	43886.25
2447.22917809176	43976.75
2449.4145875009	44038
2451.59937166131	43945.5
2453.78353086044	43890.75
2455.96706538568	43937
2458.14997552436	43846.75
2460.33226156379	43761
2462.51392379119	43735.25
2464.69496249376	43729
2466.87537795862	43672.75
2469.05517047288	43677.75
2471.23434032357	43740.25
2473.41288779767	43897.5
2475.59081318211	43639.25
2477.76811676378	43634.75
2479.9447988295	43609.25
2482.12085966605	43535.25
2484.29629956016	43573.25
2486.4711187985	43730.25
2488.64531766769	43606.75
2490.8188964543	43715.75
2492.99185544484	43580.75
2495.16419492579	43529.5
2497.33591518353	43574
2499.50701650444	43621.75
2501.67749917482	43742.25
2503.84736348091	43675.5
2506.01660970891	43653.25
2508.18523814496	43578.5
2510.35324907514	43733.75
2512.52064278551	43742.25
2514.68741956201	43857.25
2516.85357969058	44095.25
2519.01912345709	43908.5
2521.18405114735	43745.25
2523.34836304711	43661.5
2525.51205944208	43873.75
2527.6751406179	43865.75
2529.83760686016	43956
2531.99945845439	43881.5
2534.16069568606	44061
2536.3213188406	44045
2538.48132820336	43814.25
2540.64072405965	44017.25
2542.79950669471	43988.75
2544.95767639373	44205
2547.11523344184	43946.75
2549.27217812411	44045.5
2551.42851072555	43980.25
2553.58423153111	43911.25
2555.73934082569	43877.75
2557.89383889412	43866.75
2560.04772602118	43905.75
2562.20100249158	43793.75
2564.35366858996	43739.25
2566.50572460093	43668.75
2568.65717080901	43586.5
2570.80800749867	43831.5
2572.95823495433	43662.5
2575.10785346031	43511.25
2577.25686330093	43529.75
2579.40526476038	43370.25
2581.55305812282	43357
2583.70024367237	43262.75
2585.84682169303	43290
2587.99279246879	43317.75
2590.13815628354	43105
2592.28291342112	43180.75
2594.42706416531	43152.5
2596.5706087998	43183.25
2598.71354760826	43394.5
2600.85588087425	43321
2602.99760888127	43148.25
2605.13873191278	43117.75
2607.27925025214	43081.75
2609.41916418269	43132.75
2611.55847398764	43247.25
2613.69717995017	43077.25
2615.83528235339	43425.75
2617.97278148034	43292
2620.10967761398	43185.75
2622.2459710372	43305.75
2624.38166203284	43340.5
2626.51675088365	43346.5
2628.65123787231	43094.75
2630.78512328145	43305.75
2632.9184073936	43151
2635.05109049124	43392.5
2637.18317285676	43202.5
2639.31465477248	43446.75
2641.44553652067	43368.25
2643.5758183835	43223.5
2645.70550064309	43325.5
2647.83458358144	43324.25
2649.96306748053	43462.5
2652.09095262223	43395
2654.21823928836	43539.25
2656.34492776063	43399.75
2658.47101832071	43337.25
2660.59651125015	43437.25
2662.72140683047	43373
2664.84570534309	43405.5
2666.96940706934	43269.25
2669.0925122905	43240
2671.21502128773	43317
2673.33693434215	43484.75
2675.45825173479	43488.5
2677.57897374658	43339
2679.69910065839	43513.25
2681.818632751	43421.75
2683.93757030511	43413.25
2686.05591360133	43457.25
2688.17366292021	43272.5
2690.29081854218	43367.75
2692.40738074762	43193.75
2694.52334981681	43272.25
2696.63872602995	43238.25
2698.75350966713	43362.25
2700.86770100841	43323.25
2702.98130033371	43181.75
2705.09430792289	43094.75
2707.20672405571	43204.25
2709.31854901185	43356
2711.42978307091	43255.25
2713.54042651238	43064.5
2715.65047961567	43385.25
2717.7599426601	43137.5
2719.86881592491	43269.25
2721.97709968924	43216.5
2724.08479423213	43120.5
2726.19189983255	43247.75
2728.29841676934	42993.5
2730.4043453213	43236.5
2732.5096857671	43399.75
2734.61443838532	43204.75
2736.71860345444	43126
2738.82218125286	43187.25
2740.92517205889	43223.25
2743.02757615072	43314
2745.12939380646	43113.5
2747.23062530411	43094.5
2749.33127092159	43363.5
2751.4313309367	43045.25
2753.53080562716	43296.5
2755.62969527058	43271
2757.72800014448	43204.75
2759.82572052625	43156
2761.92285669323	43184.75
2764.0194089226	43200
2766.11537749147	43214
2768.21076267686	43308
2770.30556475566	43205.25
2772.39978400465	43288
2774.49342070054	43177.5
2776.58647511991	43315.75
2778.67894753923	43251
2780.77083823487	43419.25
2782.8621474831	43136.5
2784.95287556007	43019.75
2787.04302274184	42987.75
2789.13258930433	43233.25
2791.22157552338	42972.75
2793.30998167471	43050
2795.39780803392	43177.5
2797.4850548765	43100
2799.57172247786	42871.5
2801.65781111324	43108
2803.74332105781	43109.75
2805.82825258661	43092.5
2807.91260597457	43104
2809.9963814965	42982.75
2812.07957942711	43046.5
2814.16220004096	42909
2816.24424361252	42940.25
2818.32571041614	42966.5
2820.40660072604	43042.5
2822.48691481631	43049
2824.56665296098	43037.75
2826.64581543388	43022.75
2828.72440250876	43202.25
2830.80241445925	43126.75
2832.87985155885	43323.5
2834.95671408093	43321
2837.03300229875	43466.25
2839.10871648544	43379
2841.18385691399	43531.5
2843.25842385729	43527.25
2845.33241758808	43398.75
2847.40583837898	43531.25
2849.4786865025	43629
2851.550962231	43727.5
2853.6226658367	43712.75
2855.69379759173	43640.5
2857.76435776806	43667
2859.83434663753	43789.75
2861.90376447184	43707.75
2863.97261154259	43902.75
2866.0408881212	43889
2868.10859447901	43821.25
2870.17573088717	44035
2872.24229761673	43924
2874.30829493859	43935
2876.37372312352	43946.75
2878.43858244215	44098
2880.50287316496	43945
2882.56659556231	44136.75
2884.62974990439	44125
2886.69233646129	44190.75
2888.75435550293	43987.5
2890.81580729909	44275.75
2892.87669211941	44226.75
2894.93701023339	44165.5
2896.99676191039	44221.25
2899.05594741961	44404.25
2901.1145670301	44102.5
2903.1726210108	44082.25
2905.23010963045	44194.75
2907.28703315768	44111.75
2909.34339186096	44181.5
2911.39918600861	44119
2913.45441586879	43813
2915.50908170952	43902
2917.56318379867	43975.25
2919.61672240395	44079.75
2921.66969779291	43992.75
2923.72211023295	43973.25
2925.77395999134	44011
2927.82524733515	44149.25
2929.87597253132	43856
2931.92613584663	43807.75
2933.97573754769	43562.25
2936.02477790097	43535.75
2938.07325717276	43383.75
2940.1211756292	43627.75
2942.16853353626	43441.25
2944.21533115976	43476.5
2946.26156876536	43372.75
2948.30724661853	43510.25
2950.3523649846	43483.5
2952.39692412872	43290.75
2954.44092431587	43423.75
2956.48436581089	43286.75
2958.52724887843	43222.75
2960.56957378296	43168.5
2962.6113407888	43428
2964.65255016011	43250.5
2966.69320216083	43359.5
2968.73329705479	43040.25
2970.77283510559	42991.5
2972.81181657671	43005
2974.8502417314	43120.75
2976.88811083279	43002.5
2978.92542414378	43252
2980.96218192713	43088
2982.99838444541	43172.25
2985.034031961	43115.25
2987.06912473612	43263.75
2989.1036630328	42996.75
2991.13764711288	43235
2993.17107723804	43160
2995.20395366974	43098.75
2997.23627666931	43187.25
2999.26804649782	43267.25
3001.29926341624	43404.25
3003.32992768528	43377
3005.3600395655	43435.25
3007.38959931726	43525.5
3009.41860720076	43616.75
3011.44706347595	43736.25
3013.47496840263	43600
3015.50232224041	43686
3017.5291252487	43865.25
3019.5553776867	43538
3021.58107981344	43907.75
3023.60623188773	43916.5
3025.63083416822	43831.75
3027.65488691331	44135.75
3029.67839038125	44065
3031.70134483007	43894
3033.72375051759	44157
3035.74560770144	44054.5
3037.76691663907	43983.5
3039.78767758768	44208.5
3041.80789080431	43933.5
3043.82755654577	44039.75
3045.84667506867	43938.75
3047.8652466294	44085
3049.88327148418	44060.25
3051.90074988899	43841.75
3053.91768209961	43961.5
3055.9340683716	43803
3057.94990896033	43807.5
3059.96520412095	44039.25
3061.97995410838	44016.75
3063.99415917734	43955.25
3066.00781958234	43794.75
3068.02093557766	43875.75
3070.03350741738	43578.75
3072.04553535535	43811.25
3074.05701964521	43829.75
3076.06796054036	43731.25
3078.078358294	43711
3080.08821315912	43796.75
3082.09752538846	43929.75
3084.10629523454	43495.75
3086.11452294967	43817.5
3088.12220878592	43740.5
3090.12935299515	43936.25
3092.13595582898	43741.5
3094.1420175388	43637
3096.14753837579	43674.25
3098.15251859088	43758.5
3100.15695843477	43677
3102.16085815793	43643.75
3104.16421801061	43581.25
3106.16703824282	43639
3108.16931910432	43731.75
3110.17106084464	43528.5
3112.17226371308	43735
3114.17292795872	43742.5
3116.17305383034	43771.25
3118.17264157657	43719.75
3120.17169144571	43930
3122.17020368587	43605.5
3124.16817854492	43733.5
3126.16561627044	43804.5
3128.16251710982	44065.5
3130.15888131017	44029.5
3132.15470911837	44141.5
3134.15000078104	43978.75
3136.14475654455	44165.5
3138.13897665502	44198
3140.13266135835	44051.5
3142.12581090014	43923
3144.11842552577	44161.25
3146.11050548036	44264.25
3148.10205100875	44161.75
3150.09306235557	44284.5
3152.08353976515	44002.5
3154.07348348158	43887.5
3156.06289374869	44286.5
3158.05177081006	43997
3160.04011490899	44076.25
3162.02792628852	44233.25
3164.01520519145	43976.5
3166.00195186029	44050.25
3167.98816653728	44181
3169.97384946442	44132.75
3171.95900088344	44038.25
3173.94362103577	44042.75
3175.92771016259	44130.75
3177.91126850484	44116
3179.89429630312	44132.75
3181.87679379782	43945.25
3183.85876122903	44152.75
3185.84019883657	44258
3187.82110685997	44178
3189.80148553851	44027.5
3191.78133511116	44183
3193.76065581664	44184.75
3195.73944789337	44169.5
3197.7177115795	44234
3199.6954471129	44179
3201.67265473114	44216
3203.64933467153	44097.5
3205.62548717107	44112
3207.60111246648	44217.25
3209.57621079421	44148.5
3211.55078239041	44265.5
3213.52482749093	44076
3215.49834633133	44205.75
3217.4713391469	44522.5
3219.44380617262	44212
3221.41574764317	44575.75
3223.38716379296	44268
3225.35805485607	44454.75
3227.32842106631	44396.5
3229.29826265718	44614
3231.26757986187	44621
3233.2363729133	44663.25
3235.20464204405	44691.5
3237.17238748643	44594.5
3239.13960947243	44571.75
3241.10630823374	44752.5
3243.07248400174	44740.5
3245.03813700748	45064.75
3247.00326748177	44670
3248.96787565503	44635.75
3250.93196175742	44889.75
3252.89552601877	44822
3254.8585686686	44813.25
3256.82108993612	44978.75
3258.78309005022	44768.75
3260.74456923948	44666.5
3262.70552773215	45003.25
3264.66596575617	45106.25
3266.62588353916	44904
3268.58528130843	44731
3270.54415929094	44677.25
3272.50251771336	44895.5
3274.46035680201	44995.5
3276.4176767829	44954.25
3278.37447788171	44700
3280.33076032379	44970
3282.28652433416	44845.25
3284.24177013751	44861.5
3286.1964979582	44941.5
3288.15070802027	44900.5
3290.10440054741	44863.5
3292.05757576298	44755.75
3294.01023389001	44708.75
3295.96237515119	44841.75
3297.91399976887	44859.75
3299.86510796506	44917.75
3301.81569996142	44835.25
3303.76577597932	44887.5
3305.7153362397	44721.5
3307.66438096324	44770.25
3309.61291037024	44754.25
3311.56092468064	44687.75
3313.50842411404	44642.5
3315.45540888971	44735.25
3317.40187922656	44632.5
3319.34783534315	44748
3321.29327745768	44630
3323.23820578801	44331.25
3325.18262055164	44565
3327.1265219657	44538.25
3329.06991024699	44577.5
3331.01278561194	44549
3332.95514827662	44395.75
3334.89699845674	44581.25
3336.83833636766	44533.5
3338.77916222434	44287.5
3340.71947624143	44403.5
3342.65927863317	44550.75
3344.59856961346	44352.75
3346.53734939584	44572.75
3348.47561819344	44297
3350.41337621906	44382.25
3352.35062368513	44295.75
3354.28736080368	44305.75
3356.22358778637	44420.5
3358.15930484452	44476
3360.09451218904	44499
3362.02921003047	44352.5
3363.96339857898	44486.25
3365.89707804436	44381
3367.83024863602	44332.25
3369.76291056299	44180
3371.69506403389	44212.75
3373.62670925699	44392.75
3375.55784644016	44555.75
3377.4884757909	44314.25
3379.41859751629	44651.75
3381.34821182305	44512
3383.27731891749	44561.5
3385.20591900555	44603.5
3387.13401229276	44638
3389.06159898426	44631.25
3390.9886792848	44845
3392.91525339872	44737
3394.84132152998	44748.5
3396.76688388213	44701.25
3398.69194065833	44782
3400.61649206133	44735.25
3402.54053829348	44727.5
3404.46407955672	44691.75
3406.3871160526	44586.75
3408.30964798225	44779
3410.23167554639	44938.75
3412.15319894535	44867
3414.07421837904	44751.75
3415.99473404695	44828.25
3417.91474614817	44782.25
3419.83425488136	45055.75
3421.75326044479	44852.75
3423.67176303631	44845.75
3425.58976285332	44806.25
3427.50726009282	44714
3429.42425495143	44658.75
3431.34074762528	44829.5
3433.25673831012	44570.25
3435.17222720127	44670.25
3437.08721449362	44790.5
3439.00170038164	44599.75
3440.91568505936	44705.75
3442.82916872039	44436.5
3444.74215155791	44539.25
3446.65463376468	44480.5
3448.566615533	44452
3450.47809705476	44487.5
3452.3890785214	44501
3454.29956012393	44575.5
3456.20954205293	44595.25
3458.11902449853	44459.75
3460.02800765041	44297.75
3461.93649169784	44451.5
3463.84447682962	44220.5
3465.75196323412	44350.75
3467.65895109925	44261
3469.56544061249	44358
3471.47143196086	44151
3473.37692533093	44101.75
3475.28192090884	44161.75
3477.18641888026	44216.25
3479.09041943039	44175.75
3480.99392274402	44259.75
3482.89692900545	44174.75
3484.79943839853	44093.75
3486.70145110666	44180.5
3488.60296731277	44045
3490.50398719933	44102.25
3492.40451094836	43826.75
3494.30453874141	43974.75
3496.20407075956	44142.5
3498.10310718342	44204.25
3500.00164819315	43919.75