201.866871357051	906.5
204.754250281454	899.25
207.640596790938	908
210.525911876299	903.5
213.410196525689	911.5
216.293451724508	894
219.175678455485	912.25
222.056877698662	900.75
224.937050431388	919.5
227.816197628363	894
230.694320261602	900
233.571419300504	898.5
236.447495711764	898.75
239.322550459507	906.75
242.196584505182	900.75
245.069598807626	914.75
247.941594323078	914
250.812572005154	916
253.682532804884	915.75
256.551477670699	924.75
259.419407548456	926
262.286323381439	928.5
265.152226110364	940.25
268.017116673389	940.25
270.880996006115	965
273.743865041622	955.25
276.605724710436	965.25
279.466575940562	971.75
282.326419657496	951.75
285.1852567842	946.25
288.043088241157	934
290.899914946349	933.75
293.75573781526	926
296.610557760898	916.75
299.464375693817	919.25
302.317192522078	919.5
305.169009151297	913
308.019826484655	914
310.86964542287	902.25
313.718466864233	897.5
316.566291704614	887
319.413120837457	889.25
322.258955153804	888.5
325.103795542291	873.5
327.947642889128	892.25
330.79049807819	884.5
333.632361990927	879.75
336.473235506444	888.25
339.31311950145	889.25
342.152014850322	875.25
344.989922425062	891.75
347.826843095354	884.5
350.662777728528	889.25
353.497727189577	882.25
356.331692341195	899
359.164674043732	888.25
361.996673155267	880
364.827690531536	894.5
367.65772702602	901.75
370.486783489887	899
373.314860772047	899.5
376.14195971912	890.25
378.968081175466	904
381.793225983212	905.25
384.617394982201	883
387.44058901005	895.75
390.262808902131	891.5
393.08405549161	896.75
395.904329609395	899.25
398.723632084213	890.5
401.541963742569	900.5
404.359325408779	893.5
407.175717904938	902
409.991142050982	910.75
412.805598664665	886
415.619088561551	897
418.43161255505	903.5
421.243171456415	898.75
424.053766074758	893.5
426.863397217017	894.25
429.672065688024	898.5
432.479772290455	896
435.286517824879	908.75
438.092303089736	904.75
440.897128881359	902.75
443.70099599399	895.75
446.503905219761	901
449.305857348711	903.75
452.106853168796	894.25
454.906893465919	893.5
457.705979023885	889.5
460.504110624439	900.5
463.3012890473	906
466.097515070087	892.75
468.892789468424	883.75
471.687113015869	894.75
474.48048648395	884.75
477.272910642198	879
480.064386258109	892.5
482.854914097159	886.25
485.644494922839	898.75
488.433129496636	906
491.220818578047	897.75
494.007562924584	896
496.793363291785	894.5
499.578220433217	906
502.362135100473	900
505.145108043209	904.5
507.927140009098	900.5
510.708231743909	898.25
513.488383991433	910
516.267597493556	909.75
519.04587299022	893.25
521.82321121946	904.75
524.599612917398	906.75
527.375078818233	909
530.149609654287	896.25
532.923206155967	903.75
535.695869051804	900
538.467599068448	902
541.238396930665	890
544.008263361364	895
546.777199081578	886.5
549.545204810493	895
552.312281265436	893.25
555.078429161898	898
557.843649213533	894.25
560.607942132156	879.5
563.371308627753	912.75
566.133749408495	911.75
568.895265180756	904.25
571.655856649064	907.75
574.415524516189	917.5
577.174269483075	908
579.932092248884	904
582.688993510994	911.75
585.444973965023	905.5
588.200034304795	907.25
590.95417522237	901.25
593.70739740807	913
596.459701550433	906.25
599.21108833628	899.75
601.961558450668	910.25
604.711112576933	892.75
607.459751396673	910.25
610.207475589748	897.75
612.954285834338	913
615.700182806879	914.25
618.445167182101	918.75
621.189239633055	917.5
623.932400831087	981.75
626.674651445839	1093.25
629.415992145303	1258.75
632.156423595745	1322
634.895946461813	1179.75
637.634561406449	1031
640.37226909096	942.25
643.109070174978	905.25
645.844965316508	912.5
648.579955171888	896
651.314040395846	906.25
654.047221641456	907.25
656.779499560176	895.25
659.510874801828	909.25
662.241348014642	903.5
664.97091984524	898.75
667.699590938606	896.5
670.427361938164	903.75
673.15423348573	901.25
675.880206221526	916
678.605280784206	901.75
681.329457810829	911.5
684.05273793692	909.75
686.775121796389	904.25
689.49661002163	911.25
692.217203243454	916
694.936902091144	932.25
697.655707192425	970.75
700.373619173493	1023.5
703.09063865901	1039
705.806766272093	1016.5
708.522002634378	955.75
711.236348365946	922
713.94980408538	905.5
716.662370409762	899.5
719.374047954676	915.25
722.08483733419	899.25
724.794739160909	912
727.503754045949	906.5
730.21188259892	907.25
732.919125427998	905
735.625483139855	920.5
738.330956339723	910
741.035545631374	899.75
743.739251617106	906.75
746.44207489779	933.5
749.144016072852	909.5
751.845075740272	912.25
754.545254496603	913.25
757.244552936976	920
759.94297165508	914.75
762.640511243222	914.25
765.337172292249	908.25
768.032955391649	910.5
770.727861129482	922.25
773.421890092413	920.75
776.11504286572	936.5
778.807320033298	929.5
781.49872217765	923.25
784.18924987991	938.25
786.87890371984	951.25
789.567684275826	947.5
792.255592124908	986
794.94262784276	1002.5
797.628792003703	988.5
800.314085180715	965.5
802.998507945427	960.5
805.682060868145	967.25
808.364744517821	964.25
811.046559462105	963.25
813.727506267311	964.5
816.407585498422	971.75
819.08679771913	980.5
821.765143491822	988.25
824.442623377563	983.75
827.119237936127	998.5
829.794987726003	1000
832.469873304377	991.75
835.143895227167	983.75
837.817054048985	1009.5
840.489350323205	1026.25
843.160784601892	1062.25
845.831357435894	1096.75
848.501069374739	1182.5
851.169920966753	1304.75
853.837912758987	1486.25
856.505045297232	1646
859.171319126071	1704.5
861.836734788823	1521
864.501292827579	1328.5
867.164993783208	1177.75
869.827838195361	1072.75
872.489826602454	1054
875.150959541701	1027.75
877.811237549104	1006.75
880.470661159456	1006.75
883.129230906357	1006.25
885.786947322205	987.75
888.443810938206	994
891.099822284385	991
893.754981889586	973.5
896.409290281452	983.5
899.062747986485	970.25
901.715355529999	962.25
904.367113436154	971
907.01802222793	959
909.668082427172	947
912.317294554574	951.5
914.965659129659	943.25
917.613176670835	940.25
920.259847695364	947.25
922.90567271936	951.25
925.550652257825	944.25
928.194786824621	940
930.838076932512	947.75
933.480523093109	946.5
936.122125816953	949.25
938.762885613447	944
941.402802990899	953.75
944.041878456523	939
946.680112516428	956.75
949.31750567563	942
951.954058438081	950
954.589771306633	957.75
957.224644783048	938
959.858679368044	963.75
962.491875561238	955.75
965.12423386121	961.5
967.75575476545	970.5
970.386438770423	959.5
973.016286371501	956.75
975.645298063046	952.75
978.273474338355	968.75
980.900815689674	967.25
983.527322608243	978.25
986.152995584245	979.5
988.777835106834	1002.75
991.401841664148	1019.5
994.025015743307	1027.25
996.647357830407	1034.5
999.268868410534	1032.25
1001.88954796777	1020.75
1004.50939698518	1007.75
1007.12841594484	1005.25
1009.74660532783	1008
1012.36396561423	997.5
1014.98049728314	995
1017.59620081267	981.25
1020.21107667995	979.5
1022.82512536112	991.5
1025.43834733138	984.25
1028.05074306493	987.75
1030.66231303501	984.25
1033.27305771392	977
1035.88297757299	998.75
1038.49207308257	983.75
1041.10034471211	989.25
1043.70779293008	984.75
1046.31441820402	984.75
1048.92022100052	979
1051.52520178525	985.75
1054.12936102295	984.25
1056.73269917742	988.75
1059.33521671154	993.75
1061.93691408729	997.5
1064.53779176571	1008
1067.13785020694	996.25
1069.73708987022	1014.75
1072.33551121386	1031.5
1074.93311469528	1029.75
1077.52990077103	1035.5
1080.12586989674	1063.5
1082.72102252714	1098.5
1085.31535911611	1132.25
1087.90888011663	1210
1090.50158598078	1300.25
1093.09347715979	1357.75
1095.68455410403	1340.25
1098.27481726296	1277
1100.86426708523	1216
1103.45290401857	1197.75
1106.04072850991	1176
1108.6277410053	1178.5
1111.21394194993	1185.5
1113.79933178816	1232.75
1116.3839109635	1238
1118.96767991862	1224.5
1121.55063909539	1200.5
1124.13278893477	1160.25
1126.71412987696	1136.25
1129.29466236132	1112
1131.87438682637	1075
1134.45330370982	1063.75
1137.03141344858	1059
1139.60871647872	1060.75
1142.18521323554	1044.75
1144.7609041535	1044.75
1147.33578966629	1036.5
1149.90987020676	1045.75
1152.48314620702	1035
1155.05561809835	1017.25
1157.62728631125	1018.75
1160.19815127545	1022.75
1162.76821341988	1033.25
1165.33747317271	1044.75
1167.90593096133	1059.5
1170.47358721235	1079.5
1173.04044235163	1099
1175.60649680425	1100.25
1178.17175099454	1138.25
1180.73620534607	1145.5
1183.29986028165	1192.25
1185.86271622336	1188.5
1188.42477359249	1172.5
1190.98603280964	1166.5
1193.54649429462	1109.5
1196.10615846653	1081.75
1198.66502574372	1067
1201.22309654385	1050.25
1203.78037128378	1054.25
1206.33685037971	1035.5
1208.89253424709	1038.25
1211.44742330063	1021.25
1214.00151795438	1006
1216.55481862163	1018.5
1219.10732571497	1023.5
1221.65903964631	1018.75
1224.20996082683	1021.25
1226.760089667	1018.25
1229.30942657664	1019
1231.85797196483	1026.5
1234.40572623998	1031.75
1236.95268980981	1040.75
1239.49886308136	1037
1242.04424646098	1045.25
1244.58884035435	1056
1247.13264516647	1072.5
1249.67566130166	1056.75
1252.21788916358	1057.75
1254.75932915524	1087.75
1257.29998167896	1104.25
1259.83984713639	1119.5
1262.37892592857	1137.25
1264.91721845586	1173
1267.45472511795	1191.25
1269.9914463139	1227
1272.52738244213	1311
1275.0625339004	1364
1277.59690108587	1470
1280.130484395	1526.75
1282.66328422367	1569.5
1285.19530096712	1610
1287.72653501993	1635
1290.25698677608	1646
1292.78665662894	1640.5
1295.31554497125	1539.25
1297.8436521951	1446
1300.37097869203	1357.75
1302.89752485292	1313
1305.42329106805	1263.5
1307.94827772713	1240.25
1310.47248521921	1215.25
1312.99591393279	1190.5
1315.51856425575	1182.75
1318.04043657536	1147
1320.56153127836	1153.75
1323.08184875083	1113.75
1325.6013893783	1112
1328.12015354572	1101.25
1330.63814163744	1105
1333.15535403727	1094.75
1335.67179112839	1104
1338.18745329347	1109
1340.70234091454	1094.5
1343.21645437314	1104.5
1345.72979405019	1097.25
1348.24236032607	1098.25
1350.75415358059	1097.75
1353.26517419303	1104.25
1355.7754225421	1112.5
1358.28489900594	1095.5
1360.79360396218	1103.25
1363.30153778787	1113
1365.80870085955	1105.5
1368.31509355319	1130
1370.82071624424	1104
1373.32556930762	1105.5
1375.8296531177	1111.25
1378.33296804832	1106.75
1380.83551447282	1116.75
1383.33729276399	1109.25
1385.83830329408	1109
1388.33854643489	1119.25
1390.83802255762	1132.75
1393.33673203301	1128.5
1395.83467523128	1127.75
1398.33185252211	1125.25
1400.82826427471	1112.5
1403.32391085777	1105.25
1405.81879263947	1128.5
1408.31290998752	1162.75
1410.80626326908	1162.75
1413.29885285087	1174.5
1415.79067909909	1182.25
1418.28174237944	1173.75
1420.77204305717	1158.25
1423.26158149702	1131
1425.75035806323	1111.75
1428.2383731196	1117.25
1430.72562702942	1115.75
1433.21212015554	1130
1435.69785286028	1129.75
1438.18282550555	1144
1440.66703845275	1136.25
1443.15049206284	1152.25
1445.6331866963	1138
1448.11512271316	1145.75
1450.59630047298	1150.75
1453.07672033486	1187
1455.55638265748	1182.25
1458.03528779902	1189.5
1460.51343611725	1189.5
1462.99082796946	1204.75
1465.46746371252	1171.5
1467.94334370285	1161.75
1470.41846829642	1146.75
1472.89283784878	1143.75
1475.36645271503	1126.5
1477.83931324983	1144
1480.31141980743	1108.5
1482.78277274164	1119
1485.25337240583	1125.5
1487.72321915297	1119
1490.19231333557	1113.75
1492.66065530578	1129.25
1495.12824541525	1104.75
1497.5950840153	1104.25
1500.06117145678	1105.75
1502.52650809014	1113.5
1504.99109426543	1115
1507.45493033227	1110.25
1509.91801663992	1138.25
1512.38035353717	1106
1514.84194137248	1114.25
1517.30278049386	1113.75
1519.76287124894	1112.75
1522.22221398497	1131.25
1524.68080904876	1114.5
1527.13865678681	1115.5
1529.59575754514	1129
1532.05211166945	1113.5
1534.50771950503	1121.25
1536.96258139678	1104.25
1539.41669768924	1121
1541.87006872656	1122.25
1544.32269485252	1139.75
1546.77457641051	1127.75
1549.22571374357	1147.5
1551.67610719434	1140.25
1554.12575710513	1140.25
1556.57466381785	1148.75
1559.02282767408	1146.75
1561.47024901499	1148.75
1563.91692818144	1147.5
1566.3628655139	1150
1568.80806135249	1162.5
1571.252516037	1154.75
1573.6962299068	1189.5
1576.13920330099	1194.75
1578.58143655828	1212.5
1581.02293001704	1218.25
1583.46368401528	1224.75
1585.90369889071	1206.75
1588.34297498065	1208.25
1590.7815126221	1226.75
1593.21931215173	1260.75
1595.65637390588	1302.5
1598.09269822053	1388
1600.52828543135	1481
1602.96313587367	1637.5
1605.3972498825	1893.5
1607.83062779252	2276.25
1610.26326993808	2809.5
1612.69517665322	3253.75
1615.12634827165	3316
1617.55678512676	2791
1619.98648755163	2137.25
1622.41545587902	1660.75
1624.84369044138	1438.5
1627.27119157085	1333.75
1629.69795959924	1277.5
1632.12399485808	1250.25
1634.54929767859	1214
1636.97386839165	1214.5
1639.39770732789	1196
1641.8208148176	1190.5
1644.24319119078	1186
1646.66483677715	1177.5
1649.0857519061	1176
1651.50593690677	1184.5
1653.92539210795	1182.25
1656.3441178382	1185.25
1658.76211442575	1192.75
1661.17938219855	1183
1663.59592148428	1172.25
1666.01173261032	1176.75
1668.42681590377	1190.25
1670.84117169145	1191
1673.25480029991	1175.5
1675.66770205541	1204
1678.07987728393	1211.75
1680.49132631119	1212.5
1682.90204946263	1228.75
1685.31204706342	1229
1687.72131943846	1228.25
1690.1298669124	1229.5
1692.53768980957	1232.75
1694.94478845411	1250.75
1697.35116316982	1240.5
1699.75681428031	1257.75
1702.16174210887	1257.25
1704.56594697858	1280.25
1706.96942921222	1341
1709.37218913235	1407.5
1711.77422706125	1498.25
1714.17554332098	1623.75
1716.5761382333	1772.75
1718.97601211977	1984.25
1721.37516530169	2283.25
1723.77359810006	2618
1726.17131083572	2806.5
1728.56830382922	2665.25
1730.96457740087	2346.5
1733.36013187075	2077.75
1735.75496755868	1910.75
1738.14908478428	1765.25
1740.54248386689	1652.25
1742.93516512565	1535.5
1745.32712887946	1442.75
1747.71837544697	1381.75
1750.10890514662	1333.75
1752.49871829661	1299.5
1754.88781521492	1278.75
1757.27619621929	1282
1759.66386162726	1254.25
1762.05081175612	1243.75
1764.43704692297	1252.5
1766.82256744465	1239.75
1769.20737363782	1238.5
1771.59146581887	1220.5
1773.97484430405	1221.25
1776.35750940932	1218.25
1778.73946145048	1228
1781.12070074309	1220.25
1783.50122760249	1231
1785.88104234385	1224.5
1788.26014528209	1228.75
1790.63853673196	1217.25
1793.01621700796	1228.25
1795.39318642443	1224
1797.76944529549	1233.5
1800.14499393503	1227.5
1802.51983265681	1205.25
1804.8939617743	1218.5
1807.26738160085	1240
1809.64009244957	1235.25
1812.01209463339	1211.75
1814.38338846504	1255
1816.75397425706	1222.5
1819.12385232181	1243.25
1821.49302297142	1235
1823.86148651789	1241
1826.22924327299	1223.5
1828.59629354831	1237.75
1830.96263765526	1240
1833.32827590507	1244
1835.69320860877	1238.25
1838.05743607724	1224
1840.42095862113	1225
1842.78377655097	1237.75
1845.14589017707	1238.75
1847.50729980956	1236.5
1849.86800575843	1232.25
1852.22800833346	1232
1854.58730784427	1227.25
1856.94590460032	1235
1859.30379891087	1245
1861.66099108503	1242.5
1864.01748143175	1228.75
1866.37327025978	1242
1868.72835787773	1256.5
1871.08274459403	1222.25
1873.43643071697	1257.5
1875.78941655464	1258
1878.14170241498	1255.25
1880.4932886058	1252.5
1882.84417543469	1257.25
1885.19436320915	1255.5
1887.54385223646	1264.25
1889.89264282378	1255.5
1892.24073527809	1257.5
1894.58812990625	1252.25
1896.93482701493	1269.5
1899.28082691067	1266.75
1901.62612989984	1278.25
1903.97073628868	1271.25
1906.31464638326	1290.25
1908.6578604895	1270.75
1911.00037891321	1286.25
1913.34220196	1294.5
1915.68332993537	1300.5
1918.02376314468	1291.75
1920.36350189311	1280.75
1922.70254648573	1284.75
1925.04089722744	1293
1927.37855442303	1289.75
1929.71551837715	1302.5
1932.05178939426	1302.25
1934.38736777876	1307.75
1936.72225383484	1300.25
1939.0564478666	1308.25
1941.38995017799	1295
1943.72276107283	1306.25
1946.05488085479	1299.75
1948.38630982744	1306
1950.71704829419	1304.25
1953.04709655832	1314
1955.376454923	1302.75
1957.70512369126	1302.5
1960.03310316599	1308.5
1962.36039364999	1307.75
1964.68699544589	1315
1967.01290885622	1299.75
1969.33813418338	1309.25
1971.66267172965	1305
1973.98652179718	1323.75
1976.309684688	1311
1978.63216070402	1330.75
1980.95395014705	1334.75
1983.27505331873	1316.25
1985.59547052063	1322.75
1987.9152020542	1354.5
1990.23424822074	1320.75
1992.55260932146	1344
1994.87028565746	1323.25
1997.18727752968	1326.25
1999.503585239	1349.5
2001.81920908618	1330
2004.13414937184	1323.5
2006.44840639651	1360
2008.7619804606	1363.75
2011.07487186442	1340.75
2013.38708090815	1382
2015.6986078919	1360
2018.00945311564	1360.75
2020.31961687923	1356.5
2022.62909948246	1359.5
2024.93790122498	1384
2027.24602240636	1388
2029.55346332604	1383
2031.86022428337	1373.75
2034.16630557761	1385
2036.47170750791	1395.75
2038.77643037331	1403
2041.08047447275	1404.5
2043.38384010509	1378.75
2045.68652756907	1383.75
2047.98853716335	1395
2050.28986918648	1422.25
2052.59052393692	1404
2054.89050171302	1400
2057.18980281306	1413.5
2059.4884275352	1415.25
2061.78637617753	1412.25
2064.08364903802	1374.5
2066.38024641457	1412.5
2068.67616860497	1409.5
2070.97141590694	1412
2073.26598861809	1416.25
2075.55988703595	1395.5
2077.85311145796	1423
2080.14566218145	1411.5
2082.43753950371	1417.25
2084.72874372188	1418.5
2087.01927513307	1393.5
2089.30913403428	1416.75
2091.59832072241	1436
2093.88683549429	1423
2096.17467864666	1425.75
2098.46185047619	1413.75
2100.74835127944	1438.5
2103.03418135292	1440.25
2105.31934099303	1423
2107.6038304961	1439.75
2109.88765015838	1430.25
2112.17080027602	1441.5
2114.45328114513	1454
2116.7350930617	1447.75
2119.01623632165	1455.25
2121.29671122085	1450
2123.57651805505	1452.75
2125.85565711996	1452.25
2128.13412871117	1462.25
2130.41193312424	1473.25
2132.68907065462	1470.75
2134.96554159771	1480
2137.24134624881	1484.5
2139.51648490317	1486.25
2141.79095785593	1491.5
2144.0647654022	1487.5
2146.33790783698	1505.75
2148.61038545524	1490.75
2150.88219855182	1509
2153.15334742154	1511
2155.42383235911	1516.25
2157.6936536592	1500.25
2159.9628116164	1517
2162.23130652522	1499.5
2164.49913868011	1501.75
2166.76630837544	1515
2169.03281590552	1530.75
2171.2986615646	1521.5
2173.56384564685	1501.25
2175.82836844637	1517
2178.0922302572	1534.25
2180.35543137332	1537
2182.61797208862	1527
2184.87985269695	1549
2187.14107349208	1549.5
2189.40163476773	1540.25
2191.66153681753	1528.5
2193.92077993507	1529.5
2196.17936441386	1523.25
2198.43729054735	1569.25
2200.69455862894	1531.25
2202.95116895194	1562.25
2205.20712180962	1553.75
2207.46241749519	1555.5
2209.71705630179	1555.75
2211.97103852248	1565.25
2214.2243644503	1558
2216.47703437819	1554.5
2218.72904859905	1572
2220.98040740571	1565.25
2223.23111109095	1568.25
2225.4811599475	1567.5
2227.73055426799	1579.5
2229.97929434504	1579.5
2232.22738047118	1568.25
2234.47481293889	1562.5
2236.72159204058	1571.5
2238.96771806864	1591.75
2241.21319131536	1582
2243.458012073	1581
2245.70218063374	1608.5
2247.94569728973	1618.75
2250.18856233304	1625.5
2252.4307760557	1567.75
2254.67233874967	1608.5
2256.91325070687	1606.75
2259.15351221915	1611.75
2261.39312357831	1621.5
2263.63208507611	1622
2265.87039700422	1620.25
2268.1080596543	1632.5
2270.34507331792	1641.5
2272.5814382866	1615.5
2274.81715485183	1621.25
2277.05222330502	1625
2279.28664393755	1632.25
2281.52041704072	1648.25
2283.75354290581	1641.5
2285.98602182401	1646
2288.21785408648	1632
2290.44903998434	1667.25
2292.67957980862	1661.25
2294.90947385033	1639
2297.1387224004	1652.25
2299.36732574975	1645.25
2301.59528418921	1654.5
2303.82259800958	1652
2306.04926750158	1665.75
2308.27529295593	1642
2310.50067466325	1676.5
2312.72541291412	1669.5
2314.9495079991	1682.5
2317.17296020866	1672
2319.39576983323	1689.75
2321.61793716322	1684
2323.83946248894	1691.75
2326.06034610069	1688.75
2328.28058828871	1678.75
2330.50018934317	1720.25
2332.7191495542	1705.5
2334.93746921192	1705.5
2337.15514860633	1698.75
2339.37218802743	1695.5
2341.58858776516	1706.25
2343.80434810941	1696
2346.01946935001	1709.5
2348.23395177675	1708.5
2350.44779567939	1697.75
2352.66100134759	1712
2354.87356907101	1721.75
2357.08549913925	1719
2359.29679184185	1723
2361.50744746829	1736.5
2363.71746630804	1735.25
2365.92684865048	1717
2368.13559478499	1711.5
2370.34370500083	1741.25
2372.55117958727	1752.5
2374.75801883352	1736.75
2376.96422302874	1754.25
2379.16979246202	1733
2381.37472742243	1755.75
2383.57902819898	1757.5
2385.78269508063	1748.75
2387.98572835629	1757.75
2390.18812831482	1744
2392.38989524505	1753.5
2394.59102943573	1749.25
2396.79153117559	1749.75
2398.9914007533	1765.75
2401.19063845748	1754.5
2403.38924457672	1728.5
2405.58721939951	1763.75
2407.78456321435	1750
2409.98127630966	1772.5
2412.17735897382	1770.75
2414.37281149517	1755.75
2416.56763416198	1784
2418.76182726249	1773
2420.95539108487	1785.75
2423.14832591726	1784.5
2425.34063204776	1775.5
2427.53230976439	1780
2429.72335935513	1788.5
2431.91378110795	1787.5
2434.10357531071	1790.5
2436.29274225125	1799
2438.48128221739	1791.25
2440.66919549683	1798.75
2442.8564823773	1769.25
2445.04314314641	1799.5
2447.22917809176	1811.25
2449.4145875009	1803.25
2451.59937166131	1793.25
2453.78353086044	1796.75
2455.96706538568	1821
2458.14997552436	1808
2460.33226156379	1825.25
2462.51392379119	1811
2464.69496249376	1816.5
2466.87537795862	1807.5
2469.05517047288	1812.5
2471.23434032357	1829.75
2473.41288779767	1824
2475.59081318211	1811.75
2477.76811676378	1821.5
2479.9447988295	1821.25
2482.12085966605	1831.25
2484.29629956016	1831
2486.4711187985	1816
2488.64531766769	1850
2490.8188964543	1828.75
2492.99185544484	1833.75
2495.16419492579	1837.5
2497.33591518353	1855.75
2499.50701650444	1848.25
2501.67749917482	1837.5
2503.84736348091	1837.25
2506.01660970891	1839.25
2508.18523814496	1845.5
2510.35324907514	1857.75
2512.52064278551	1864.5
2514.68741956201	1886.75
2516.85357969058	1875
2519.01912345709	1877.5
2521.18405114735	1863.75
2523.34836304711	1873
2525.51205944208	1896.5
2527.6751406179	1912
2529.83760686016	1901.25
2531.99945845439	1907.25
2534.16069568606	1906.5
2536.3213188406	1908.5
2538.48132820336	1878.75
2540.64072405965	1900
2542.79950669471	1906
2544.95767639373	1937
2547.11523344184	1920
2549.27217812411	1924
2551.42851072555	1923.75
2553.58423153111	1904.5
2555.73934082569	1912.25
2557.89383889412	1922.75
2560.04772602118	1932
2562.20100249158	1909.5
2564.35366858996	1927.25
2566.50572460093	1915.25
2568.65717080901	1930.25
2570.80800749867	1952.75
2572.95823495433	1939.5
2575.10785346031	1938.75
2577.25686330093	1962
2579.40526476038	1945.5
2581.55305812282	1930
2583.70024367237	1951.25
2585.84682169303	1935.25
2587.99279246879	1941
2590.13815628354	1933.75
2592.28291342112	1952.5
2594.42706416531	1927.25
2596.5706087998	1960
2598.71354760826	1953.25
2600.85588087425	1986.75
2602.99760888127	1985.5
2605.13873191278	1967.5
2607.27925025214	1977.25
2609.41916418269	1963.75
2611.55847398764	1994.75
2613.69717995017	1965.5
2615.83528235339	2008
2617.97278148034	2009.25
2620.10967761398	1998.25
2622.2459710372	2030.25
2624.38166203284	2030.25
2626.51675088365	2018.75
2628.65123787231	2009.75
2630.78512328145	2006.75
2632.9184073936	2001.75
2635.05109049124	2012.75
2637.18317285676	1998.75
2639.31465477248	2021.25
2641.44553652067	2017
2643.5758183835	2017
2645.70550064309	2016.75
2647.83458358144	2024
2649.96306748053	2018.25
2652.09095262223	2026.5
2654.21823928836	2065.75
2656.34492776063	2014.25
2658.47101832071	2022.5
2660.59651125015	2057.5
2662.72140683047	2033
2664.84570534309	2038.5
2666.96940706934	2032.75
2669.0925122905	2022.75
2671.21502128773	2025
2673.33693434215	2037
2675.45825173479	2056.5
2677.57897374658	2026.75
2679.69910065839	2043.25
2681.818632751	2073
2683.93757030511	2063.5
2686.05591360133	2083.5
2688.17366292021	2050.25
2690.29081854218	2068.75
2692.40738074762	2050.25
2694.52334981681	2065
2696.63872602995	2056
2698.75350966713	2071
2700.86770100841	2068
2702.98130033371	2047.25
2705.09430792289	2070.25
2707.20672405571	2069.75
2709.31854901185	2104.25
2711.42978307091	2092.25
2713.54042651238	2101.75
2715.65047961567	2082
2717.7599426601	2091.25
2719.86881592491	2107.25
2721.97709968924	2107
2724.08479423213	2099
2726.19189983255	2092
2728.29841676934	2102
2730.4043453213	2105
2732.5096857671	2127.5
2734.61443838532	2119.5
2736.71860345444	2099.75
2738.82218125286	2123
2740.92517205889	2122.75
2743.02757615072	2140.5
2745.12939380646	2108.75
2747.23062530411	2155
2749.33127092159	2159.25
2751.4313309367	2132.5
2753.53080562716	2138.5
2755.62969527058	2138.25
2757.72800014448	2137.25
2759.82572052625	2159.25
2761.92285669323	2154.25
2764.0194089226	2146
2766.11537749147	2132.25
2768.21076267686	2174
2770.30556475566	2153.25
2772.39978400465	2181.5
2774.49342070054	2142.25
2776.58647511991	2165
2778.67894753923	2201.25
2780.77083823487	2188.5
2782.8621474831	2161.75
2784.95287556007	2174
2787.04302274184	2182.5
2789.13258930433	2183.25
2791.22157552338	2192.75
2793.30998167471	2199.5
2795.39780803392	2191.75
2797.4850548765	2206.5
2799.57172247786	2165.25
2801.65781111324	2201.75
2803.74332105781	2199
2805.82825258661	2192.25
2807.91260597457	2196.25
2809.9963814965	2199
2812.07957942711	2212.5
2814.16220004096	2199
2816.24424361252	2216
2818.32571041614	2205
2820.40660072604	2223.25
2822.48691481631	2217
2824.56665296098	2217.5
2826.64581543388	2204.25
2828.72440250876	2229.5
2830.80241445925	2213.5
2832.87985155885	2209.5
2834.95671408093	2207.75
2837.03300229875	2216.75
2839.10871648544	2218.75
2841.18385691399	2220.75
2843.25842385729	2241.25
2845.33241758808	2222
2847.40583837898	2257.25
2849.4786865025	2263.25
2851.550962231	2246
2853.6226658367	2249.25
2855.69379759173	2265.75
2857.76435776806	2275.25
2859.83434663753	2260
2861.90376447184	2288.5
2863.97261154259	2270.75
2866.0408881212	2279.25
2868.10859447901	2281.5
2870.17573088717	2304.5
2872.24229761673	2286
2874.30829493859	2309.75
2876.37372312352	2291.25
2878.43858244215	2319
2880.50287316496	2317.5
2882.56659556231	2313
2884.62974990439	2374.25
2886.69233646129	2361.25
2888.75435550293	2347
2890.81580729909	2386.75
2892.87669211941	2374.5
2894.93701023339	2371.5
2896.99676191039	2374.5
2899.05594741961	2406.75
2901.1145670301	2421.25
2903.1726210108	2435.5
2905.23010963045	2451.25
2907.28703315768	2449.75
2909.34339186096	2445.25
2911.39918600861	2449
2913.45441586879	2413.25
2915.50908170952	2422.75
2917.56318379867	2416.75
2919.61672240395	2395.75
2921.66969779291	2394.75
2923.72211023295	2389.5
2925.77395999134	2383.5
2927.82524733515	2411.75
2929.87597253132	2430.5
2931.92613584663	2412.25
2933.97573754769	2424.75
2936.02477790097	2417.25
2938.07325717276	2431
2940.1211756292	2424.25
2942.16853353626	2441.25
2944.21533115976	2455.5
2946.26156876536	2476.25
2948.30724661853	2501.25
2950.3523649846	2517.75
2952.39692412872	2546
2954.44092431587	2573
2956.48436581089	2633
2958.52724887843	2648.5
2960.56957378296	2713.75
2962.6113407888	2719
2964.65255016011	2737
2966.69320216083	2765
2968.73329705479	2712.75
2970.77283510559	2690.75
2972.81181657671	2645
2974.8502417314	2637
2976.88811083279	2605.5
2978.92542414378	2618.75
2980.96218192713	2585.75
2982.99838444541	2560.25
2985.034031961	2539.25
2987.06912473612	2551.25
2989.1036630328	2567.25
2991.13764711288	2556.25
2993.17107723804	2597.25
2995.20395366974	2626.5
2997.23627666931	2658
2999.26804649782	2664.25
3001.29926341624	2682.5
3003.32992768528	2687.75
3005.3600395655	2687.25
3007.38959931726	2660.5
3009.41860720076	2650.25
3011.44706347595	2634.5
3013.47496840263	2585.25
3015.50232224041	2540
3017.5291252487	2542.5
3019.5553776867	2512.25
3021.58107981344	2535.25
3023.60623188773	2531.75
3025.63083416822	2521.75
3027.65488691331	2525.75
3029.67839038125	2512.5
3031.70134483007	2490.25
3033.72375051759	2509.75
3035.74560770144	2514.75
3037.76691663907	2532.5
3039.78767758768	2518.25
3041.80789080431	2508.75
3043.82755654577	2516.25
3045.84667506867	2526.75
3047.8652466294	2508.75
3049.88327148418	2530.5
3051.90074988899	2538.75
3053.91768209961	2569
3055.9340683716	2563.25
3057.94990896033	2600.5
3059.96520412095	2647.75
3061.97995410838	2716.75
3063.99415917734	2778.25
3066.00781958234	2862.75
3068.02093557766	2968
3070.03350741738	3067.75
3072.04553535535	3153.5
3074.05701964521	3276.75
3076.06796054036	3512.75
3078.078358294	3885
3080.08821315912	4322
3082.09752538846	4467
3084.10629523454	4094.25
3086.11452294967	3654.25
3088.12220878592	3292
3090.12935299515	3021
3092.13595582898	2865
3094.1420175388	2783
3096.14753837579	2721
3098.15251859088	2677
3100.15695843477	2635.75
3102.16085815793	2638.5
3104.16421801061	2584.5
3106.16703824282	2581.25
3108.16931910432	2568.25
3110.17106084464	2548.25
3112.17226371308	2557.75
3114.17292795872	2560
3116.17305383034	2549.25
3118.17264157657	2536
3120.17169144571	2555.75
3122.17020368587	2524.25
3124.16817854492	2538.25
3126.16561627044	2537.5
3128.16251710982	2569.5
3130.15888131017	2501.75
3132.15470911837	2537.25
3134.15000078104	2546.5
3136.14475654455	2569.25
3138.13897665502	2542.25
3140.13266135835	2537.25
3142.12581090014	2532.5
3144.11842552577	2536.25
3146.11050548036	2518.75
3148.10205100875	2553.75
3150.09306235557	2537.75
3152.08353976515	2568
3154.07348348158	2548
3156.06289374869	2571
3158.05177081006	2544.75
3160.04011490899	2545.25
3162.02792628852	2567.25
3164.01520519145	2535.5
3166.00195186029	2552.5
3167.98816653728	2562.5
3169.97384946442	2542.25
3171.95900088344	2549
3173.94362103577	2554.75
3175.92771016259	2574.75
3177.91126850484	2566
3179.89429630312	2572.75
3181.87679379782	2531.75
3183.85876122903	2566.25
3185.84019883657	2555
3187.82110685997	2557.5
3189.80148553851	2548.75
3191.78133511116	2569.5
3193.76065581664	2573
3195.73944789337	2585.75
3197.7177115795	2573
3199.6954471129	2589
3201.67265473114	2567
3203.64933467153	2571.25
3205.62548717107	2588.25
3207.60111246648	2611
3209.57621079421	2602.5
3211.55078239041	2572.25
3213.52482749093	2582.5
3215.49834633133	2601.75
3217.4713391469	2634.75
3219.44380617262	2650
3221.41574764317	2629.75
3223.38716379296	2624.25
3225.35805485607	2634
3227.32842106631	2650.25
3229.29826265718	2626.75
3231.26757986187	2628.75
3233.2363729133	2658
3235.20464204405	2652
3237.17238748643	2621
3239.13960947243	2653.5
3241.10630823374	2625.75
3243.07248400174	2621.5
3245.03813700748	2629
3247.00326748177	2626.5
3248.96787565503	2592.25
3250.93196175742	2642.5
3252.89552601877	2627
3254.8585686686	2619.25
3256.82108993612	2645.75
3258.78309005022	2622.25
3260.74456923948	2621.25
3262.70552773215	2660
3264.66596575617	2630
3266.62588353916	2617
3268.58528130843	2616.25
3270.54415929094	2642
3272.50251771336	2631.75
3274.46035680201	2661.5
3276.4176767829	2661.5
3278.37447788171	2615
3280.33076032379	2676
3282.28652433416	2595
3284.24177013751	2657.75
3286.1964979582	2660.25
3288.15070802027	2643.75
3290.10440054741	2663
3292.05757576298	2626
3294.01023389001	2658.75
3295.96237515119	2652
3297.91399976887	2658.25
3299.86510796506	2683.25
3301.81569996142	2668
3303.76577597932	2661
3305.7153362397	2635
3307.66438096324	2627
3309.61291037024	2656.25
3311.56092468064	2645.25
3313.50842411404	2649
3315.45540888971	2659
3317.40187922656	2638.25
3319.34783534315	2632.75
3321.29327745768	2649.25
3323.23820578801	2647.5
3325.18262055164	2646.25
3327.1265219657	2654
3329.06991024699	2631
3331.01278561194	2630.5
3332.95514827662	2648.75
3334.89699845674	2674.25
3336.83833636766	2660
3338.77916222434	2617
3340.71947624143	2649.5
3342.65927863317	2663
3344.59856961346	2628.5
3346.53734939584	2681.5
3348.47561819344	2636
3350.41337621906	2644.25
3352.35062368513	2623.25
3354.28736080368	2636.75
3356.22358778637	2656
3358.15930484452	2654
3360.09451218904	2669.75
3362.02921003047	2661.25
3363.96339857898	2623
3365.89707804436	2649.5
3367.83024863602	2623.5
3369.76291056299	2640
3371.69506403389	2641.5
3373.62670925699	2684.5
3375.55784644016	2638.5
3377.4884757909	2640
3379.41859751629	2689.5
3381.34821182305	2662.5
3383.27731891749	2668.25
3385.20591900555	2679.25
3387.13401229276	2721.25
3389.06159898426	2680.5
3390.9886792848	2684.75
3392.91525339872	2693.75
3394.84132152998	2656.5
3396.76688388213	2694
3398.69194065833	2669
3400.61649206133	2696
3402.54053829348	2709.75
3404.46407955672	2701.5
3406.3871160526	2696.5
3408.30964798225	2679.25
3410.23167554639	2682.25
3412.15319894535	2723.25
3414.07421837904	2705
3415.99473404695	2677.75
3417.91474614817	2674.25
3419.83425488136	2720
3421.75326044479	2714
3423.67176303631	2704.25
3425.58976285332	2707
3427.50726009282	2734.75
3429.42425495143	2727
3431.34074762528	2703.75
3433.25673831012	2700
3435.17222720127	2716.75
3437.08721449362	2713.75
3439.00170038164	2681.75
3440.91568505936	2700.5
3442.82916872039	2675
3444.74215155791	2698
3446.65463376468	2710.5
3448.566615533	2685.25
3450.47809705476	2719.75
3452.3890785214	2706
3454.29956012393	2701.75
3456.20954205293	2734.75
3458.11902449853	2701.25
3460.02800765041	2659.25
3461.93649169784	2681
3463.84447682962	2676
3465.75196323412	2719.5
3467.65895109925	2668.5
3469.56544061249	2678.25
3471.47143196086	2683.75
3473.37692533093	2678.25
3475.28192090884	2676.5
3477.18641888026	2710.25
3479.09041943039	2691.25
3480.99392274402	2690.75
3482.89692900545	2686.25
3484.79943839853	2672.75
3486.70145110666	2670.75
3488.60296731277	2678.25
3490.50398719933	2664.25
3492.40451094836	2662.5
3494.30453874141	2658
3496.20407075956	2693.5
3498.10310718342	2678
3500.00164819315	2667.75