201.866871357051	1014.75
204.754250281454	1006.75
207.640596790938	998.75
210.525911876299	1005.5
213.410196525689	994
216.293451724508	994
219.175678455485	997.5
222.056877698662	995
224.937050431388	989.5
227.816197628363	1003.75
230.694320261602	985.25
233.571419300504	993.25
236.447495711764	1007
239.322550459507	1015
242.196584505182	1007.25
245.069598807626	1023.25
247.941594323078	1013.25
250.812572005154	1029.25
253.682532804884	1020.75
256.551477670699	1033.25
259.419407548456	1020.75
262.286323381439	1045.5
265.152226110364	1036.75
268.017116673389	1034.5
270.880996006115	1051.5
273.743865041622	1072
276.605724710436	1077.75
279.466575940562	1084.75
282.326419657496	1071.5
285.1852567842	1061
288.043088241157	1049.25
290.899914946349	1047.75
293.75573781526	1036
296.610557760898	1034.75
299.464375693817	1036
302.317192522078	1021
305.169009151297	1027
308.019826484655	1032.25
310.86964542287	1045
313.718466864233	1029.25
316.566291704614	1030.25
319.413120837457	1038.75
322.258955153804	1039.75
325.103795542291	1040.75
327.947642889128	1037.5
330.79049807819	1033.25
333.632361990927	1025
336.473235506444	1040.25
339.31311950145	1041.5
342.152014850322	1027.5
344.989922425062	1034
347.826843095354	1042
350.662777728528	1043.75
353.497727189577	1050.25
356.331692341195	1040
359.164674043732	1052.75
361.996673155267	1053.75
364.827690531536	1046.25
367.65772702602	1046.25
370.486783489887	1075
373.314860772047	1078.25
376.14195971912	1081.75
378.968081175466	1078.25
381.793225983212	1086.25
384.617394982201	1088.5
387.44058901005	1104
390.262808902131	1130.75
393.08405549161	1134
395.904329609395	1154
398.723632084213	1161
401.541963742569	1167.5
404.359325408779	1129.25
407.175717904938	1127.5
409.991142050982	1104.5
412.805598664665	1098.25
415.619088561551	1090
418.43161255505	1084.5
421.243171456415	1080
424.053766074758	1085
426.863397217017	1077.5
429.672065688024	1074.75
432.479772290455	1083
435.286517824879	1086
438.092303089736	1090
440.897128881359	1093
443.70099599399	1098.75
446.503905219761	1085
449.305857348711	1092.25
452.106853168796	1103.25
454.906893465919	1109.5
457.705979023885	1100
460.504110624439	1093
463.3012890473	1098.5
466.097515070087	1093.5
468.892789468424	1071.75
471.687113015869	1086
474.48048648395	1084
477.272910642198	1079
480.064386258109	1091.75
482.854914097159	1065
485.644494922839	1080.75
488.433129496636	1086.5
491.220818578047	1085.5
494.007562924584	1099.75
496.793363291785	1088.75
499.578220433217	1120
502.362135100473	1117
505.145108043209	1128.75
507.927140009098	1120
510.708231743909	1135
513.488383991433	1119.5
516.267597493556	1139.25
519.04587299022	1148.25
521.82321121946	1130.25
524.599612917398	1141.75
527.375078818233	1137.75
530.149609654287	1122.75
532.923206155967	1123
535.695869051804	1120.75
538.467599068448	1111.75
541.238396930665	1117
544.008263361364	1099.75
546.777199081578	1105
549.545204810493	1101.25
552.312281265436	1093.75
555.078429161898	1102.25
557.843649213533	1103.25
560.607942132156	1098.75
563.371308627753	1098.5
566.133749408495	1105.5
568.895265180756	1098
571.655856649064	1100.5
574.415524516189	1109.5
577.174269483075	1115.25
579.932092248884	1113.5
582.688993510994	1112.25
585.444973965023	1119.25
588.200034304795	1104.25
590.95417522237	1111.75
593.70739740807	1112.75
596.459701550433	1129.25
599.21108833628	1112
601.961558450668	1127.75
604.711112576933	1121.25
607.459751396673	1123.75
610.207475589748	1129
612.954285834338	1137
615.700182806879	1133.5
618.445167182101	1149.5
621.189239633055	1145.5
623.932400831087	1144.75
626.674651445839	1171.5
629.415992145303	1198.25
632.156423595745	1195.25
634.895946461813	1216.5
637.634561406449	1209.5
640.37226909096	1209.75
643.109070174978	1191.75
645.844965316508	1178.5
648.579955171888	1166.25
651.314040395846	1164.5
654.047221641456	1162.75
656.779499560176	1150
659.510874801828	1142.25
662.241348014642	1128
664.97091984524	1134.25
667.699590938606	1143.75
670.427361938164	1122
673.15423348573	1140
675.880206221526	1119.5
678.605280784206	1136
681.329457810829	1148.25
684.05273793692	1133.75
686.775121796389	1120.5
689.49661002163	1142.5
692.217203243454	1136.25
694.936902091144	1131
697.655707192425	1128.5
700.373619173493	1123.5
703.09063865901	1113.75
705.806766272093	1119
708.522002634378	1125.75
711.236348365946	1141.5
713.94980408538	1121
716.662370409762	1134.5
719.374047954676	1124.5
722.08483733419	1111.75
724.794739160909	1120
727.503754045949	1114.75
730.21188259892	1113.5
732.919125427998	1120
735.625483139855	1138
738.330956339723	1132.75
741.035545631374	1138.5
743.739251617106	1142.75
746.44207489779	1123.5
749.144016072852	1139.75
751.845075740272	1149.75
754.545254496603	1131.25
757.244552936976	1140.5
759.94297165508	1153.25
762.640511243222	1131.75
765.337172292249	1153.25
768.032955391649	1155
770.727861129482	1144
773.421890092413	1144.75
776.11504286572	1145
778.807320033298	1135.75
781.49872217765	1145.25
784.18924987991	1134.75
786.87890371984	1138.75
789.567684275826	1150.75
792.255592124908	1150
794.94262784276	1154.25
797.628792003703	1162
800.314085180715	1180.25
802.998507945427	1212.25
805.682060868145	1244.75
808.364744517821	1278.75
811.046559462105	1256.25
813.727506267311	1234.5
816.407585498422	1187.25
819.08679771913	1173.25
821.765143491822	1172
824.442623377563	1188.5
827.119237936127	1169.5
829.794987726003	1179.25
832.469873304377	1206.5
835.143895227167	1205
837.817054048985	1238
840.489350323205	1242
843.160784601892	1243.5
845.831357435894	1206.25
848.501069374739	1186.5
851.169920966753	1190.75
853.837912758987	1182.5
856.505045297232	1188.25
859.171319126071	1172.5
861.836734788823	1182.25
864.501292827579	1190.5
867.164993783208	1176
869.827838195361	1179.5
872.489826602454	1180
875.150959541701	1173
877.811237549104	1158.75
880.470661159456	1170.75
883.129230906357	1173.25
885.786947322205	1151.25
888.443810938206	1178.5
891.099822284385	1152.5
893.754981889586	1159.25
896.409290281452	1167.25
899.062747986485	1181.5
901.715355529999	1184
904.367113436154	1174.75
907.01802222793	1180.75
909.668082427172	1157
912.317294554574	1172.25
914.965659129659	1181.25
917.613176670835	1171.75
920.259847695364	1175.25
922.90567271936	1182.5
925.550652257825	1181
928.194786824621	1173.5
930.838076932512	1199
933.480523093109	1174.75
936.122125816953	1187.75
938.762885613447	1191.25
941.402802990899	1188.5
944.041878456523	1184.75
946.680112516428	1205.5
949.31750567563	1181.25
951.954058438081	1178.25
954.589771306633	1198.5
957.224644783048	1190.75
959.858679368044	1196.25
962.491875561238	1188.75
965.12423386121	1206.75
967.75575476545	1235
970.386438770423	1246.5
973.016286371501	1240.25
975.645298063046	1233.75
978.273474338355	1221
980.900815689674	1190
983.527322608243	1197
986.152995584245	1219.5
988.777835106834	1194.5
991.401841664148	1188
994.025015743307	1220
996.647357830407	1231.75
999.268868410534	1224.5
1001.88954796777	1212.5
1004.50939698518	1216.25
1007.12841594484	1212.5
1009.74660532783	1213.5
1012.36396561423	1211.75
1014.98049728314	1193.25
1017.59620081267	1206.5
1020.21107667995	1211.5
1022.82512536112	1229.75
1025.43834733138	1229
1028.05074306493	1228.5
1030.66231303501	1227.75
1033.27305771392	1227.5
1035.88297757299	1239
1038.49207308257	1234.5
1041.10034471211	1243.75
1043.70779293008	1244.5
1046.31441820402	1236.75
1048.92022100052	1232.5
1051.52520178525	1221.25
1054.12936102295	1254.25
1056.73269917742	1221.25
1059.33521671154	1234.5
1061.93691408729	1221
1064.53779176571	1225
1067.13785020694	1236
1069.73708987022	1236.25
1072.33551121386	1232.5
1074.93311469528	1228.5
1077.52990077103	1259.25
1080.12586989674	1273.5
1082.72102252714	1330
1085.31535911611	1394.75
1087.90888011663	1370.75
1090.50158598078	1296.5
1093.09347715979	1261.75
1095.68455410403	1250.25
1098.27481726296	1243.75
1100.86426708523	1250
1103.45290401857	1244.25
1106.04072850991	1242.75
1108.6277410053	1247.25
1111.21394194993	1229
1113.79933178816	1258.25
1116.3839109635	1255.25
1118.96767991862	1244
1121.55063909539	1259.5
1124.13278893477	1263
1126.71412987696	1275.25
1129.29466236132	1280
1131.87438682637	1281
1134.45330370982	1287
1137.03141344858	1292.5
1139.60871647872	1295.75
1142.18521323554	1299.5
1144.7609041535	1310
1147.33578966629	1317
1149.90987020676	1321.5
1152.48314620702	1333.5
1155.05561809835	1318.75
1157.62728631125	1324.25
1160.19815127545	1331
1162.76821341988	1351.25
1165.33747317271	1336.75
1167.90593096133	1341.5
1170.47358721235	1343
1173.04044235163	1349
1175.60649680425	1326.5
1178.17175099454	1337.75
1180.73620534607	1312
1183.29986028165	1317.5
1185.86271622336	1306.75
1188.42477359249	1289
1190.98603280964	1292
1193.54649429462	1291
1196.10615846653	1288.25
1198.66502574372	1281.75
1201.22309654385	1295.5
1203.78037128378	1281.25
1206.33685037971	1287.5
1208.89253424709	1286.75
1211.44742330063	1287.75
1214.00151795438	1312
1216.55481862163	1308
1219.10732571497	1339.5
1221.65903964631	1311.5
1224.20996082683	1304.5
1226.760089667	1300.75
1229.30942657664	1307.25
1231.85797196483	1323
1234.40572623998	1302
1236.95268980981	1323.25
1239.49886308136	1316.75
1242.04424646098	1330.5
1244.58884035435	1343.75
1247.13264516647	1328.75
1249.67566130166	1327.5
1252.21788916358	1349.75
1254.75932915524	1345
1257.29998167896	1347.25
1259.83984713639	1344
1262.37892592857	1320.25
1264.91721845586	1352.5
1267.45472511795	1348.75
1269.9914463139	1337.25
1272.52738244213	1333.5
1275.0625339004	1346.5
1277.59690108587	1351.75
1280.130484395	1362
1282.66328422367	1370.5
1285.19530096712	1362.25
1287.72653501993	1367
1290.25698677608	1379.25
1292.78665662894	1391
1295.31554497125	1388.5
1297.8436521951	1366
1300.37097869203	1383.25
1302.89752485292	1395.5
1305.42329106805	1394.75
1307.94827772713	1395.75
1310.47248521921	1393
1312.99591393279	1403.5
1315.51856425575	1419.25
1318.04043657536	1408.25
1320.56153127836	1447.25
1323.08184875083	1446.25
1325.6013893783	1460
1328.12015354572	1489
1330.63814163744	1500.25
1333.15535403727	1469.75
1335.67179112839	1455
1338.18745329347	1441.75
1340.70234091454	1458.5
1343.21645437314	1434.25
1345.72979405019	1435.75
1348.24236032607	1429.25
1350.75415358059	1462.25
1353.26517419303	1452.25
1355.7754225421	1479.25
1358.28489900594	1490.75
1360.79360396218	1477.75
1363.30153778787	1476
1365.80870085955	1471
1368.31509355319	1462.75
1370.82071624424	1468.75
1373.32556930762	1466
1375.8296531177	1470.25
1378.33296804832	1454.75
1380.83551447282	1456
1383.33729276399	1448.5
1385.83830329408	1451.25
1388.33854643489	1444.75
1390.83802255762	1448.5
1393.33673203301	1438
1395.83467523128	1423.5
1398.33185252211	1440.75
1400.82826427471	1430.25
1403.32391085777	1432
1405.81879263947	1449.5
1408.31290998752	1468.5
1410.80626326908	1460.75
1413.29885285087	1470.5
1415.79067909909	1468.5
1418.28174237944	1449
1420.77204305717	1492
1423.26158149702	1450.5
1425.75035806323	1467.75
1428.2383731196	1498
1430.72562702942	1522.25
1433.21212015554	1529.5
1435.69785286028	1543.75
1438.18282550555	1547
1440.66703845275	1545
1443.15049206284	1541.5
1445.6331866963	1543.5
1448.11512271316	1594.75
1450.59630047298	1606.75
1453.07672033486	1619.75
1455.55638265748	1633
1458.03528779902	1664
1460.51343611725	1660.25
1462.99082796946	1621.75
1465.46746371252	1594
1467.94334370285	1604
1470.41846829642	1559.5
1472.89283784878	1548.25
1475.36645271503	1573.75
1477.83931324983	1547.75
1480.31141980743	1539
1482.78277274164	1545.5
1485.25337240583	1552
1487.72321915297	1552
1490.19231333557	1541.25
1492.66065530578	1548.75
1495.12824541525	1531.75
1497.5950840153	1560.5
1500.06117145678	1521
1502.52650809014	1554.75
1504.99109426543	1543.25
1507.45493033227	1556.25
1509.91801663992	1558.5
1512.38035353717	1540.25
1514.84194137248	1553.5
1517.30278049386	1555.25
1519.76287124894	1563.5
1522.22221398497	1560.5
1524.68080904876	1560.75
1527.13865678681	1570
1529.59575754514	1564.5
1532.05211166945	1570.75
1534.50771950503	1555.25
1536.96258139678	1588
1539.41669768924	1583.25
1541.87006872656	1593.75
1544.32269485252	1601.5
1546.77457641051	1611.75
1549.22571374357	1622.25
1551.67610719434	1632
1554.12575710513	1635
1556.57466381785	1643
1559.02282767408	1621
1561.47024901499	1625
1563.91692818144	1644.25
1566.3628655139	1653
1568.80806135249	1650
1571.252516037	1654
1573.6962299068	1668
1576.13920330099	1657.25
1578.58143655828	1649.75
1581.02293001704	1681.25
1583.46368401528	1667.25
1585.90369889071	1692.75
1588.34297498065	1687.5
1590.7815126221	1700
1593.21931215173	1723.25
1595.65637390588	1736.25
1598.09269822053	1788.5
1600.52828543135	1815.75
1602.96313587367	1805
1605.3972498825	1763.5
1607.83062779252	1777
1610.26326993808	1783.75
1612.69517665322	1793
1615.12634827165	1774.5
1617.55678512676	1740
1619.98648755163	1712.75
1622.41545587902	1681.25
1624.84369044138	1694.75
1627.27119157085	1672.25
1629.69795959924	1684.75
1632.12399485808	1698.25
1634.54929767859	1699.75
1636.97386839165	1681.75
1639.39770732789	1696.5
1641.8208148176	1681
1644.24319119078	1701.75
1646.66483677715	1703.25
1649.0857519061	1704.75
1651.50593690677	1717
1653.92539210795	1697.25
1656.3441178382	1704.75
1658.76211442575	1737.5
1661.17938219855	1724.25
1663.59592148428	1711.25
1666.01173261032	1738.5
1668.42681590377	1729.75
1670.84117169145	1731
1673.25480029991	1754.75
1675.66770205541	1757.75
1678.07987728393	1764.25
1680.49132631119	1759
1682.90204946263	1759.5
1685.31204706342	1764
1687.72131943846	1766.5
1690.1298669124	1778.25
1692.53768980957	1769.5
1694.94478845411	1804.75
1697.35116316982	1784.75
1699.75681428031	1788.5
1702.16174210887	1788.25
1704.56594697858	1792.25
1706.96942921222	1809.25
1709.37218913235	1796.25
1711.77422706125	1812.25
1714.17554332098	1806.75
1716.5761382333	1811.25
1718.97601211977	1803.75
1721.37516530169	1800
1723.77359810006	1818
1726.17131083572	1811
1728.56830382922	1798.5
1730.96457740087	1830
1733.36013187075	1817.75
1735.75496755868	1828.75
1738.14908478428	1834.75
1740.54248386689	1816.75
1742.93516512565	1825.75
1745.32712887946	1844.25
1747.71837544697	1833.75
1750.10890514662	1818.75
1752.49871829661	1844
1754.88781521492	1831
1757.27619621929	1847
1759.66386162726	1836.5
1762.05081175612	1849.25
1764.43704692297	1859.75
1766.82256744465	1834.25
1769.20737363782	1840
1771.59146581887	1879.25
1773.97484430405	1874.25
1776.35750940932	1849.25
1778.73946145048	1862.5
1781.12070074309	1855.25
1783.50122760249	1889.75
1785.88104234385	1887.5
1788.26014528209	1898.25
1790.63853673196	1899
1793.01621700796	1893
1795.39318642443	1916
1797.76944529549	1891.75
1800.14499393503	1883
1802.51983265681	1897.25
1804.8939617743	1900.25
1807.26738160085	1921
1809.64009244957	1898.25
1812.01209463339	1923.25
1814.38338846504	1938.5
1816.75397425706	1940
1819.12385232181	1944.25
1821.49302297142	1957.75
1823.86148651789	1932.25
1826.22924327299	1950.25
1828.59629354831	1928.25
1830.96263765526	1932.5
1833.32827590507	1940.5
1835.69320860877	1947.75
1838.05743607724	1936.5
1840.42095862113	1947.75
1842.78377655097	1953.5
1845.14589017707	1957
1847.50729980956	1949.25
1849.86800575843	1958.75
1852.22800833346	1957.75
1854.58730784427	1957
1856.94590460032	1978.25
1859.30379891087	1982
1861.66099108503	1977
1864.01748143175	1985
1866.37327025978	1988.5
1868.72835787773	1987.75
1871.08274459403	2015.75
1873.43643071697	1986.75
1875.78941655464	2006.25
1878.14170241498	1995.5
1880.4932886058	2026.75
1882.84417543469	2040.75
1885.19436320915	2021
1887.54385223646	2014.5
1889.89264282378	2050
1892.24073527809	2043.75
1894.58812990625	2055.5
1896.93482701493	2071.25
1899.28082691067	2069.5
1901.62612989984	2112.5
1903.97073628868	2069.75
1906.31464638326	2078.5
1908.6578604895	2114.75
1911.00037891321	2113.75
1913.34220196	2116
1915.68332993537	2125.25
1918.02376314468	2121.75
1920.36350189311	2123.25
1922.70254648573	2141.25
1925.04089722744	2141.5
1927.37855442303	2116.5
1929.71551837715	2115.5
1932.05178939426	2143
1934.38736777876	2144.75
1936.72225383484	2151.75
1939.0564478666	2173.5
1941.38995017799	2130.75
1943.72276107283	2161.25
1946.05488085479	2133.5
1948.38630982744	2139.25
1950.71704829419	2163.25
1953.04709655832	2123.25
1955.376454923	2125.5
1957.70512369126	2158.5
1960.03310316599	2140.25
1962.36039364999	2142.25
1964.68699544589	2142
1967.01290885622	2142.25
1969.33813418338	2156
1971.66267172965	2175.75
1973.98652179718	2154
1976.309684688	2182.25
1978.63216070402	2161.5
1980.95395014705	2208.5
1983.27505331873	2190.75
1985.59547052063	2181.5
1987.9152020542	2187.75
1990.23424822074	2181.75
1992.55260932146	2190
1994.87028565746	2207.5
1997.18727752968	2194.25
1999.503585239	2241.5
2001.81920908618	2217.25
2004.13414937184	2202
2006.44840639651	2224.25
2008.7619804606	2239.75
2011.07487186442	2259.75
2013.38708090815	2243.25
2015.6986078919	2255
2018.00945311564	2268.75
2020.31961687923	2243.25
2022.62909948246	2290
2024.93790122498	2283.25
2027.24602240636	2305
2029.55346332604	2289.5
2031.86022428337	2307.25
2034.16630557761	2313.25
2036.47170750791	2318.25
2038.77643037331	2317.5
2041.08047447275	2300
2043.38384010509	2337.75
2045.68652756907	2355.75
2047.98853716335	2291.5
2050.28986918648	2310.75
2052.59052393692	2328.5
2054.89050171302	2356.75
2057.18980281306	2356
2059.4884275352	2361.25
2061.78637617753	2321.5
2064.08364903802	2324.75
2066.38024641457	2342.75
2068.67616860497	2325.5
2070.97141590694	2365.75
2073.26598861809	2345
2075.55988703595	2319.75
2077.85311145796	2361.25
2080.14566218145	2343.75
2082.43753950371	2317.5
2084.72874372188	2349
2087.01927513307	2325
2089.30913403428	2346.5
2091.59832072241	2338.25
2093.88683549429	2328.75
2096.17467864666	2339.5
2098.46185047619	2357.5
2100.74835127944	2356
2103.03418135292	2368.75
2105.31934099303	2322
2107.6038304961	2392
2109.88765015838	2347.25
2112.17080027602	2355
2114.45328114513	2379.75
2116.7350930617	2368.75
2119.01623632165	2400.5
2121.29671122085	2367.25
2123.57651805505	2411.5
2125.85565711996	2392
2128.13412871117	2402.25
2130.41193312424	2389
2132.68907065462	2393.25
2134.96554159771	2420.25
2137.24134624881	2415.75
2139.51648490317	2413.75
2141.79095785593	2419
2144.0647654022	2421.75
2146.33790783698	2431.75
2148.61038545524	2428
2150.88219855182	2429.75
2153.15334742154	2417.5
2155.42383235911	2438.75
2157.6936536592	2447.25
2159.9628116164	2421
2162.23130652522	2417.5
2164.49913868011	2438.75
2166.76630837544	2435.25
2169.03281590552	2455
2171.2986615646	2454.75
2173.56384564685	2453.5
2175.82836844637	2443.5
2178.0922302572	2479.5
2180.35543137332	2481.75
2182.61797208862	2432.75
2184.87985269695	2454
2187.14107349208	2461.75
2189.40163476773	2451.5
2191.66153681753	2443.25
2193.92077993507	2430.5
2196.17936441386	2439.25
2198.43729054735	2450.25
2200.69455862894	2463.25
2202.95116895194	2467.75
2205.20712180962	2444.5
2207.46241749519	2462.5
2209.71705630179	2437
2211.97103852248	2454.75
2214.2243644503	2435.25
2216.47703437819	2435.25
2218.72904859905	2459.5
2220.98040740571	2446.5
2223.23111109095	2481.25
2225.4811599475	2444
2227.73055426799	2487.5
2229.97929434504	2470
2232.22738047118	2477.25
2234.47481293889	2468.25
2236.72159204058	2476.75
2238.96771806864	2461.25
2241.21319131536	2482
2243.458012073	2457
2245.70218063374	2485.75
2247.94569728973	2442.75
2250.18856233304	2478.75
2252.4307760557	2465.25
2254.67233874967	2458.25
2256.91325070687	2449.75
2259.15351221915	2481.75
2261.39312357831	2483.5
2263.63208507611	2469.5
2265.87039700422	2507.5
2268.1080596543	2493.75
2270.34507331792	2453
2272.5814382866	2494.75
2274.81715485183	2448
2277.05222330502	2485.25
2279.28664393755	2469
2281.52041704072	2463
2283.75354290581	2471.25
2285.98602182401	2471
2288.21785408648	2462
2290.44903998434	2464
2292.67957980862	2475.75
2294.90947385033	2447.75
2297.1387224004	2495.5
2299.36732574975	2495.75
2301.59528418921	2496.5
2303.82259800958	2501.25
2306.04926750158	2476.5
2308.27529295593	2492.5
2310.50067466325	2485.25
2312.72541291412	2474
2314.9495079991	2519.5
2317.17296020866	2450.75
2319.39576983323	2489.25
2321.61793716322	2478.5
2323.83946248894	2471.5
2326.06034610069	2487.5
2328.28058828871	2472.5
2330.50018934317	2477.75
2332.7191495542	2491.5
2334.93746921192	2460.75
2337.15514860633	2506.75
2339.37218802743	2459.5
2341.58858776516	2477.5
2343.80434810941	2515.75
2346.01946935001	2499.25
2348.23395177675	2467
2350.44779567939	2486.75
2352.66100134759	2477
2354.87356907101	2475.5
2357.08549913925	2489
2359.29679184185	2477.25
2361.50744746829	2492
2363.71746630804	2494.75
2365.92684865048	2472.25
2368.13559478499	2472
2370.34370500083	2463.5
2372.55117958727	2440.25
2374.75801883352	2467.5
2376.96422302874	2436
2379.16979246202	2466.75
2381.37472742243	2464
2383.57902819898	2497.25
2385.78269508063	2440.75
2387.98572835629	2445.75
2390.18812831482	2463
2392.38989524505	2466
2394.59102943573	2455.25
2396.79153117559	2457
2398.9914007533	2470.25
2401.19063845748	2443.25
2403.38924457672	2419.25
2405.58721939951	2458
2407.78456321435	2433.75
2409.98127630966	2420.5
2412.17735897382	2445.25
2414.37281149517	2450.75
2416.56763416198	2470
2418.76182726249	2446.5
2420.95539108487	2445.5
2423.14832591726	2453.25
2425.34063204776	2433
2427.53230976439	2422.75
2429.72335935513	2431
2431.91378110795	2428.25
2434.10357531071	2441.25
2436.29274225125	2439.5
2438.48128221739	2416.75
2440.66919549683	2409.25
2442.8564823773	2438.25
2445.04314314641	2399.5
2447.22917809176	2438.25
2449.4145875009	2414.25
2451.59937166131	2402.75
2453.78353086044	2405.5
2455.96706538568	2433.75
2458.14997552436	2406.5
2460.33226156379	2387
2462.51392379119	2377.5
2464.69496249376	2391.5
2466.87537795862	2397.25
2469.05517047288	2407.75
2471.23434032357	2380.5
2473.41288779767	2399.25
2475.59081318211	2371.25
2477.76811676378	2372.75
2479.9447988295	2372
2482.12085966605	2333.25
2484.29629956016	2357.25
2486.4711187985	2378.25
2488.64531766769	2349.5
2490.8188964543	2385.5
2492.99185544484	2347.5
2495.16419492579	2353.75
2497.33591518353	2388.75
2499.50701650444	2372
2501.67749917482	2386.75
2503.84736348091	2365.5
2506.01660970891	2373.5
2508.18523814496	2356.25
2510.35324907514	2368.25
2512.52064278551	2376.25
2514.68741956201	2387.75
2516.85357969058	2373.25
2519.01912345709	2375.75
2521.18405114735	2406
2523.34836304711	2384
2525.51205944208	2383.75
2527.6751406179	2361
2529.83760686016	2387.5
2531.99945845439	2375.5
2534.16069568606	2422.75
2536.3213188406	2383
2538.48132820336	2359
2540.64072405965	2370.5
2542.79950669471	2380
2544.95767639373	2396.75
2547.11523344184	2369.25
2549.27217812411	2382
2551.42851072555	2378.5
2553.58423153111	2384.25
2555.73934082569	2400
2557.89383889412	2374
2560.04772602118	2380.5
2562.20100249158	2366.5
2564.35366858996	2376.75
2566.50572460093	2367.5
2568.65717080901	2341.75
2570.80800749867	2358.25
2572.95823495433	2349.75
2575.10785346031	2341
2577.25686330093	2343.75
2579.40526476038	2341.75
2581.55305812282	2334
2583.70024367237	2350
2585.84682169303	2319.5
2587.99279246879	2342
2590.13815628354	2306.75
2592.28291342112	2327
2594.42706416531	2327
2596.5706087998	2306.5
2598.71354760826	2337.25
2600.85588087425	2312.5
2602.99760888127	2323.75
2605.13873191278	2310.75
2607.27925025214	2335.75
2609.41916418269	2339
2611.55847398764	2321.75
2613.69717995017	2328.75
2615.83528235339	2323
2617.97278148034	2316.25
2620.10967761398	2315.75
2622.2459710372	2338.25
2624.38166203284	2318.25
2626.51675088365	2345
2628.65123787231	2298.5
2630.78512328145	2321.5
2632.9184073936	2320.5
2635.05109049124	2326.75
2637.18317285676	2308.5
2639.31465477248	2322
2641.44553652067	2322.75
2643.5758183835	2323.5
2645.70550064309	2306.5
2647.83458358144	2347.5
2649.96306748053	2353.75
2652.09095262223	2340.5
2654.21823928836	2320.5
2656.34492776063	2326.25
2658.47101832071	2319.75
2660.59651125015	2325.5
2662.72140683047	2318.5
2664.84570534309	2300.5
2666.96940706934	2314
2669.0925122905	2306.5
2671.21502128773	2313.25
2673.33693434215	2347.25
2675.45825173479	2320.75
2677.57897374658	2320
2679.69910065839	2350.5
2681.818632751	2335.25
2683.93757030511	2328
2686.05591360133	2331.25
2688.17366292021	2317.5
2690.29081854218	2343.75
2692.40738074762	2310.5
2694.52334981681	2323.75
2696.63872602995	2312.25
2698.75350966713	2354.25
2700.86770100841	2351.25
2702.98130033371	2305.5
2705.09430792289	2336
2707.20672405571	2325
2709.31854901185	2337
2711.42978307091	2329.25
2713.54042651238	2362.5
2715.65047961567	2354
2717.7599426601	2362.5
2719.86881592491	2342.75
2721.97709968924	2395
2724.08479423213	2346.75
2726.19189983255	2357
2728.29841676934	2336
2730.4043453213	2365.75
2732.5096857671	2350.25
2734.61443838532	2346.75
2736.71860345444	2337.25
2738.82218125286	2352.75
2740.92517205889	2335.5
2743.02757615072	2341.75
2745.12939380646	2333
2747.23062530411	2332.5
2749.33127092159	2352.25
2751.4313309367	2309.75
2753.53080562716	2336.5
2755.62969527058	2336.5
2757.72800014448	2325
2759.82572052625	2308.25
2761.92285669323	2323.75
2764.0194089226	2308.25
2766.11537749147	2339.5
2768.21076267686	2346.25
2770.30556475566	2328.25
2772.39978400465	2325.75
2774.49342070054	2308.5
2776.58647511991	2345.5
2778.67894753923	2327.75
2780.77083823487	2347.25
2782.8621474831	2305.75
2784.95287556007	2331.75
2787.04302274184	2319.75
2789.13258930433	2339.25
2791.22157552338	2312
2793.30998167471	2315.75
2795.39780803392	2360.5
2797.4850548765	2356.25
2799.57172247786	2302.25
2801.65781111324	2320.75
2803.74332105781	2330.25
2805.82825258661	2318.75
2807.91260597457	2318.25
2809.9963814965	2296
2812.07957942711	2354.75
2814.16220004096	2353.75
2816.24424361252	2331.5
2818.32571041614	2367
2820.40660072604	2334.75
2822.48691481631	2368.25
2824.56665296098	2378.5
2826.64581543388	2387
2828.72440250876	2400.25
2830.80241445925	2454
2832.87985155885	2503.25
2834.95671408093	2598.5
2837.03300229875	2657.25
2839.10871648544	2694.25
2841.18385691399	2693.5
2843.25842385729	2654.25
2845.33241758808	2591
2847.40583837898	2564.5
2849.4786865025	2595.75
2851.550962231	2558
2853.6226658367	2549.75
2855.69379759173	2568
2857.76435776806	2574.75
2859.83434663753	2596
2861.90376447184	2708.5
2863.97261154259	2773.25
2866.0408881212	2895.75
2868.10859447901	2933.25
2870.17573088717	2937.75
2872.24229761673	2926
2874.30829493859	2960.75
2876.37372312352	2985.25
2878.43858244215	3047.5
2880.50287316496	3113.75
2882.56659556231	3134
2884.62974990439	3144
2886.69233646129	3101.5
2888.75435550293	3056.25
2890.81580729909	2998
2892.87669211941	2950.75
2894.93701023339	2940.5
2896.99676191039	2926.5
2899.05594741961	2973
2901.1145670301	2942.25
2903.1726210108	2978.75
2905.23010963045	3037.25
2907.28703315768	3008.5
2909.34339186096	2966
2911.39918600861	2905.75
2913.45441586879	2881.75
2915.50908170952	2875
2917.56318379867	2836.75
2919.61672240395	2841
2921.66969779291	2846.75
2923.72211023295	2877
2925.77395999134	2839.25
2927.82524733515	2829
2929.87597253132	2782.5
2931.92613584663	2722.25
2933.97573754769	2668.5
2936.02477790097	2640.25
2938.07325717276	2613.75
2940.1211756292	2616.75
2942.16853353626	2567.75
2944.21533115976	2648.25
2946.26156876536	2666.5
2948.30724661853	2733.25
2950.3523649846	2793.75
2952.39692412872	2822
2954.44092431587	2815.75
2956.48436581089	2826.75
2958.52724887843	2850
2960.56957378296	2855.25
2962.6113407888	2843.25
2964.65255016011	2785.75
2966.69320216083	2755
2968.73329705479	2686.25
2970.77283510559	2629.5
2972.81181657671	2580.25
2974.8502417314	2562
2976.88811083279	2503.75
2978.92542414378	2497.75
2980.96218192713	2483.5
2982.99838444541	2464.75
2985.034031961	2431
2987.06912473612	2443.75
2989.1036630328	2422.25
2991.13764711288	2436.75
2993.17107723804	2442.25
2995.20395366974	2462
2997.23627666931	2436.25
2999.26804649782	2426.25
3001.29926341624	2419
3003.32992768528	2460.75
3005.3600395655	2441
3007.38959931726	2457.5
3009.41860720076	2449.25
3011.44706347595	2463
3013.47496840263	2452.75
3015.50232224041	2445
3017.5291252487	2452
3019.5553776867	2437.5
3021.58107981344	2484.75
3023.60623188773	2477.75
3025.63083416822	2466.25
3027.65488691331	2488.25
3029.67839038125	2479.75
3031.70134483007	2464.25
3033.72375051759	2481.25
3035.74560770144	2486.5
3037.76691663907	2497.25
3039.78767758768	2469.25
3041.80789080431	2509.5
3043.82755654577	2511
3045.84667506867	2476.75
3047.8652466294	2511
3049.88327148418	2492.75
3051.90074988899	2473.75
3053.91768209961	2486.25
3055.9340683716	2489.5
3057.94990896033	2509.75
3059.96520412095	2483.5
3061.97995410838	2503.75
3063.99415917734	2518.25
3066.00781958234	2512.25
3068.02093557766	2496.75
3070.03350741738	2499.75
3072.04553535535	2500.5
3074.05701964521	2492.25
3076.06796054036	2497.5
3078.078358294	2477
3080.08821315912	2513.25
3082.09752538846	2495
3084.10629523454	2473.75
3086.11452294967	2520.5
3088.12220878592	2549
3090.12935299515	2502.25
3092.13595582898	2512
3094.1420175388	2479
3096.14753837579	2517.5
3098.15251859088	2490.5
3100.15695843477	2517
3102.16085815793	2478.75
3104.16421801061	2500.5
3106.16703824282	2489
3108.16931910432	2526
3110.17106084464	2503.5
3112.17226371308	2510
3114.17292795872	2529.75
3116.17305383034	2534.75
3118.17264157657	2521.25
3120.17169144571	2531.75
3122.17020368587	2503.5
3124.16817854492	2504
3126.16561627044	2515
3128.16251710982	2578
3130.15888131017	2541.5
3132.15470911837	2553.5
3134.15000078104	2562
3136.14475654455	2552.5
3138.13897665502	2556.5
3140.13266135835	2554.75
3142.12581090014	2555.5
3144.11842552577	2562
3146.11050548036	2566
3148.10205100875	2565.75
3150.09306235557	2573.75
3152.08353976515	2536
3154.07348348158	2562.5
3156.06289374869	2582
3158.05177081006	2551.5
3160.04011490899	2584.75
3162.02792628852	2575.5
3164.01520519145	2567.5
3166.00195186029	2588.5
3167.98816653728	2569.75
3169.97384946442	2579.25
3171.95900088344	2561.25
3173.94362103577	2548.5
3175.92771016259	2597
3177.91126850484	2560
3179.89429630312	2575.5
3181.87679379782	2570.75
3183.85876122903	2605.75
3185.84019883657	2599
3187.82110685997	2588.75
3189.80148553851	2595
3191.78133511116	2605
3193.76065581664	2598.75
3195.73944789337	2595
3197.7177115795	2589.25
3199.6954471129	2594.25
3201.67265473114	2601
3203.64933467153	2605.5
3205.62548717107	2610.5
3207.60111246648	2596
3209.57621079421	2600
3211.55078239041	2602.25
3213.52482749093	2597.5
3215.49834633133	2614
3217.4713391469	2633
3219.44380617262	2608.5
3221.41574764317	2627.75
3223.38716379296	2612.75
3225.35805485607	2606
3227.32842106631	2639.75
3229.29826265718	2648
3231.26757986187	2659.25
3233.2363729133	2667.5
3235.20464204405	2623.75
3237.17238748643	2682.5
3239.13960947243	2662.5
3241.10630823374	2667.75
3243.07248400174	2673.5
3245.03813700748	2692.25
3247.00326748177	2680.25
3248.96787565503	2645
3250.93196175742	2648.75
3252.89552601877	2711.5
3254.8585686686	2659.25
3256.82108993612	2689.5
3258.78309005022	2704
3260.74456923948	2686
3262.70552773215	2701.5
3264.66596575617	2694.25
3266.62588353916	2699
3268.58528130843	2701.5
3270.54415929094	2683.5
3272.50251771336	2680.5
3274.46035680201	2682.5
3276.4176767829	2715.25
3278.37447788171	2674
3280.33076032379	2685.5
3282.28652433416	2706.75
3284.24177013751	2701.5
3286.1964979582	2730.25
3288.15070802027	2712.75
3290.10440054741	2703.75
3292.05757576298	2683.5
3294.01023389001	2705.75
3295.96237515119	2703.5
3297.91399976887	2706.25
3299.86510796506	2693
3301.81569996142	2695.25
3303.76577597932	2705.25
3305.7153362397	2715.75
3307.66438096324	2723.75
3309.61291037024	2710.75
3311.56092468064	2697.5
3313.50842411404	2708.75
3315.45540888971	2702
3317.40187922656	2695.75
3319.34783534315	2699.25
3321.29327745768	2668.25
3323.23820578801	2693
3325.18262055164	2702.5
3327.1265219657	2688.25
3329.06991024699	2725.75
3331.01278561194	2709
3332.95514827662	2699.5
3334.89699845674	2735.75
3336.83833636766	2692.75
3338.77916222434	2679.75
3340.71947624143	2689.5
3342.65927863317	2677.5
3344.59856961346	2694.5
3346.53734939584	2730.25
3348.47561819344	2728.5
3350.41337621906	2678.25
3352.35062368513	2695.5
3354.28736080368	2686.5
3356.22358778637	2701
3358.15930484452	2690.75
3360.09451218904	2714.25
3362.02921003047	2716.75
3363.96339857898	2739.75
3365.89707804436	2710.75
3367.83024863602	2699.25
3369.76291056299	2711
3371.69506403389	2719.75
3373.62670925699	2698.5
3375.55784644016	2739.5
3377.4884757909	2719.5
3379.41859751629	2735.25
3381.34821182305	2713
3383.27731891749	2742.5
3385.20591900555	2743.25
3387.13401229276	2720
3389.06159898426	2744.5
3390.9886792848	2730
3392.91525339872	2754.75
3394.84132152998	2721.75
3396.76688388213	2749.75
3398.69194065833	2755.5
3400.61649206133	2730.25
3402.54053829348	2733
3404.46407955672	2750
3406.3871160526	2723.5
3408.30964798225	2777.25
3410.23167554639	2766.5
3412.15319894535	2777.75
3414.07421837904	2728.25
3415.99473404695	2778.25
3417.91474614817	2761
3419.83425488136	2742
3421.75326044479	2767.25
3423.67176303631	2766.5
3425.58976285332	2774.25
3427.50726009282	2759.75
3429.42425495143	2766.75
3431.34074762528	2748.5
3433.25673831012	2765.75
3435.17222720127	2715.5
3437.08721449362	2745.25
3439.00170038164	2714.25
3440.91568505936	2734.25
3442.82916872039	2740.5
3444.74215155791	2738.25
3446.65463376468	2706.5
3448.566615533	2738.25
3450.47809705476	2725.75
3452.3890785214	2736.5
3454.29956012393	2747.25
3456.20954205293	2745.75
3458.11902449853	2747.75
3460.02800765041	2732.5
3461.93649169784	2734.25
3463.84447682962	2693.75
3465.75196323412	2708.25
3467.65895109925	2730
3469.56544061249	2717.75
3471.47143196086	2707.25
3473.37692533093	2695.25
3475.28192090884	2713
3477.18641888026	2724
3479.09041943039	2731.75
3480.99392274402	2710.25
3482.89692900545	2683
3484.79943839853	2734
3486.70145110666	2727.5
3488.60296731277	2732
3490.50398719933	2696.75
3492.40451094836	2674.25
3494.30453874141	2684
3496.20407075956	2735.5
3498.10310718342	2714
3500.00164819315	2672.75