201.866871357051	2591.25
204.754250281454	2573.75
207.640596790938	2587.5
210.525911876299	2599.75
213.410196525689	2581.25
216.293451724508	2596.5
219.175678455485	2631
222.056877698662	2589
224.937050431388	2590.75
227.816197628363	2610
230.694320261602	2570.25
233.571419300504	2615.25
236.447495711764	2640
239.322550459507	2636.5
242.196584505182	2622.5
245.069598807626	2635.5
247.941594323078	2643.75
250.812572005154	2629.5
253.682532804884	2667.75
256.551477670699	2680.75
259.419407548456	2657.75
262.286323381439	2685.75
265.152226110364	2672.25
268.017116673389	2653.25
270.880996006115	2675.25
273.743865041622	2673.75
276.605724710436	2669.25
279.466575940562	2690
282.326419657496	2706
285.1852567842	2683.5
288.043088241157	2691
290.899914946349	2699.25
293.75573781526	2738.5
296.610557760898	2719.75
299.464375693817	2723.5
302.317192522078	2715.25
305.169009151297	2728.75
308.019826484655	2727.5
310.86964542287	2727.25
313.718466864233	2715.5
316.566291704614	2735.25
319.413120837457	2733
322.258955153804	2726.75
325.103795542291	2722
327.947642889128	2724
330.79049807819	2715.75
333.632361990927	2706.5
336.473235506444	2724.5
339.31311950145	2716.5
342.152014850322	2723.25
344.989922425062	2744.75
347.826843095354	2776
350.662777728528	2765.75
353.497727189577	2814.25
356.331692341195	2793.5
359.164674043732	2824.5
361.996673155267	2809.75
364.827690531536	2830.5
367.65772702602	2816.5
370.486783489887	2823
373.314860772047	2811.75
376.14195971912	2804.5
378.968081175466	2802
381.793225983212	2826.75
384.617394982201	2824.75
387.44058901005	2864.5
390.262808902131	2823.75
393.08405549161	2807
395.904329609395	2825.5
398.723632084213	2794
401.541963742569	2844.25
404.359325408779	2826.75
407.175717904938	2813.5
409.991142050982	2832
412.805598664665	2853.25
415.619088561551	2849.25
418.43161255505	2860.75
421.243171456415	2859.75
424.053766074758	2864.5
426.863397217017	2893.5
429.672065688024	2852.25
432.479772290455	2867
435.286517824879	2917.25
438.092303089736	2871.25
440.897128881359	2871
443.70099599399	2885.5
446.503905219761	2878.5
449.305857348711	2881.25
452.106853168796	2886.25
454.906893465919	2876.25
457.705979023885	2882
460.504110624439	2876.25
463.3012890473	2869.25
466.097515070087	2870.5
468.892789468424	2868.5
471.687113015869	2893.75
474.48048648395	2887
477.272910642198	2890.5
480.064386258109	2869.25
482.854914097159	2896.5
485.644494922839	2876
488.433129496636	2903
491.220818578047	2913.25
494.007562924584	2918.75
496.793363291785	2912.75
499.578220433217	2922.5
502.362135100473	2958.75
505.145108043209	2954.75
507.927140009098	2926
510.708231743909	2924.75
513.488383991433	2962.5
516.267597493556	2964.25
519.04587299022	2943.5
521.82321121946	2980.25
524.599612917398	2980
527.375078818233	2987
530.149609654287	2955
532.923206155967	2970.25
535.695869051804	2933
538.467599068448	2930.75
541.238396930665	2916.75
544.008263361364	2937.75
546.777199081578	2915
549.545204810493	2926.25
552.312281265436	2913.25
555.078429161898	2954
557.843649213533	2943
560.607942132156	2912.75
563.371308627753	2931.75
566.133749408495	2952.5
568.895265180756	2962.25
571.655856649064	2943.5
574.415524516189	2948.5
577.174269483075	2983
579.932092248884	2978.25
582.688993510994	2964.5
585.444973965023	2961
588.200034304795	3005.25
590.95417522237	2969.75
593.70739740807	2982.75
596.459701550433	2979.25
599.21108833628	2976.5
601.961558450668	2974.75
604.711112576933	2975
607.459751396673	2954.75
610.207475589748	2946.25
612.954285834338	2966.5
615.700182806879	2956.25
618.445167182101	2989.25
621.189239633055	2953
623.932400831087	2923.75
626.674651445839	2918.75
629.415992145303	2901.5
632.156423595745	2921.25
634.895946461813	2921.25
637.634561406449	2906.25
640.37226909096	2940.5
643.109070174978	2933.25
645.844965316508	2978.25
648.579955171888	2928.75
651.314040395846	2935.75
654.047221641456	2926
656.779499560176	2939.25
659.510874801828	2936.25
662.241348014642	2934.25
664.97091984524	2974.5
667.699590938606	2973.5
670.427361938164	2941.75
673.15423348573	2984.25
675.880206221526	2987.25
678.605280784206	3014.5
681.329457810829	2978.5
684.05273793692	2963.5
686.775121796389	2951.25
689.49661002163	2987.5
692.217203243454	2948.25
694.936902091144	2946.75
697.655707192425	2957.75
700.373619173493	2961.25
703.09063865901	2938.75
705.806766272093	2935.25
708.522002634378	2967.5
711.236348365946	2991.5
713.94980408538	2951.75
716.662370409762	2934.25
719.374047954676	2975
722.08483733419	2935.75
724.794739160909	2964
727.503754045949	2980.75
730.21188259892	2969
732.919125427998	2980.75
735.625483139855	2977.5
738.330956339723	2936
741.035545631374	2999.25
743.739251617106	2984.25
746.44207489779	2987.5
749.144016072852	3007.25
751.845075740272	2987
754.545254496603	3024.5
757.244552936976	3038.5
759.94297165508	3000
762.640511243222	2989
765.337172292249	2991.25
768.032955391649	2984.5
770.727861129482	3033.75
773.421890092413	2992.75
776.11504286572	2995.75
778.807320033298	2978.25
781.49872217765	2995.5
784.18924987991	2985
786.87890371984	2974.25
789.567684275826	2978.5
792.255592124908	2985
794.94262784276	2984.5
797.628792003703	2962.5
800.314085180715	2944.5
802.998507945427	2980.75
805.682060868145	2970.75
808.364744517821	2959.75
811.046559462105	2963.5
813.727506267311	2984.5
816.407585498422	3004.25
819.08679771913	2951.5
821.765143491822	3000.25
824.442623377563	2975.5
827.119237936127	3018
829.794987726003	3036
832.469873304377	3033.5
835.143895227167	3008.25
837.817054048985	3016.5
840.489350323205	3035.75
843.160784601892	3019.5
845.831357435894	3049.75
848.501069374739	3003.25
851.169920966753	3034.75
853.837912758987	3019.5
856.505045297232	3070.25
859.171319126071	3076.75
861.836734788823	3022.5
864.501292827579	3049.75
867.164993783208	3048.25
869.827838195361	2990
872.489826602454	3044
875.150959541701	3033.75
877.811237549104	3002.75
880.470661159456	3019.75
883.129230906357	3012.75
885.786947322205	2978.5
888.443810938206	3034.75
891.099822284385	3010
893.754981889586	3021
896.409290281452	2996.25
899.062747986485	3007
901.715355529999	3021.75
904.367113436154	2996.75
907.01802222793	3034.25
909.668082427172	2995.75
912.317294554574	3002.25
914.965659129659	3010.75
917.613176670835	3039.5
920.259847695364	3059
922.90567271936	3019
925.550652257825	3009.5
928.194786824621	3015.5
930.838076932512	3015.25
933.480523093109	3017
936.122125816953	3027
938.762885613447	3033.75
941.402802990899	3026.75
944.041878456523	3062.75
946.680112516428	2987.75
949.31750567563	3012.25
951.954058438081	3040
954.589771306633	3064.5
957.224644783048	3072.75
959.858679368044	3011.25
962.491875561238	3023.5
965.12423386121	2998
967.75575476545	3008.5
970.386438770423	3030.25
973.016286371501	3022.5
975.645298063046	3006.5
978.273474338355	3018.25
980.900815689674	3035.5
983.527322608243	2982.25
986.152995584245	3041
988.777835106834	3040.5
991.401841664148	3039
994.025015743307	3044.75
996.647357830407	3019
999.268868410534	3037.75
1001.88954796777	3037.5
1004.50939698518	3035.5
1007.12841594484	3039.25
1009.74660532783	3054
1012.36396561423	3094
1014.98049728314	3027.5
1017.59620081267	3068.5
1020.21107667995	3051.25
1022.82512536112	3104
1025.43834733138	3091.25
1028.05074306493	3110.25
1030.66231303501	3106.5
1033.27305771392	3125.25
1035.88297757299	3096.75
1038.49207308257	3062.5
1041.10034471211	3086.75
1043.70779293008	3112
1046.31441820402	3121.25
1048.92022100052	3120
1051.52520178525	3145.75
1054.12936102295	3164.5
1056.73269917742	3175.5
1059.33521671154	3217.25
1061.93691408729	3234.25
1064.53779176571	3213.25
1067.13785020694	3215.25
1069.73708987022	3182
1072.33551121386	3187.25
1074.93311469528	3140.5
1077.52990077103	3138.25
1080.12586989674	3156
1082.72102252714	3150.5
1085.31535911611	3181.75
1087.90888011663	3153.25
1090.50158598078	3186.5
1093.09347715979	3132.25
1095.68455410403	3126.5
1098.27481726296	3105.25
1100.86426708523	3155.75
1103.45290401857	3117.25
1106.04072850991	3120.75
1108.6277410053	3137.25
1111.21394194993	3123.75
1113.79933178816	3126.25
1116.3839109635	3120.75
1118.96767991862	3193
1121.55063909539	3166.25
1124.13278893477	3189.25
1126.71412987696	3231.25
1129.29466236132	3241
1131.87438682637	3232.75
1134.45330370982	3189.75
1137.03141344858	3127.75
1139.60871647872	3161.25
1142.18521323554	3180.5
1144.7609041535	3159.5
1147.33578966629	3173.25
1149.90987020676	3158.25
1152.48314620702	3178.75
1155.05561809835	3169.5
1157.62728631125	3145.25
1160.19815127545	3118.75
1162.76821341988	3145.75
1165.33747317271	3171.5
1167.90593096133	3153
1170.47358721235	3138.75
1173.04044235163	3173.25
1175.60649680425	3151.5
1178.17175099454	3136.25
1180.73620534607	3135.5
1183.29986028165	3150.75
1185.86271622336	3125
1188.42477359249	3145.25
1190.98603280964	3113.25
1193.54649429462	3118
1196.10615846653	3114.5
1198.66502574372	3123.75
1201.22309654385	3121.5
1203.78037128378	3104
1206.33685037971	3113.25
1208.89253424709	3103
1211.44742330063	3096.75
1214.00151795438	3111.75
1216.55481862163	3125.5
1219.10732571497	3102.25
1221.65903964631	3128.25
1224.20996082683	3092.25
1226.760089667	3130.5
1229.30942657664	3131.5
1231.85797196483	3153.75
1234.40572623998	3154.25
1236.95268980981	3186.5
1239.49886308136	3172
1242.04424646098	3158.75
1244.58884035435	3180.75
1247.13264516647	3218.5
1249.67566130166	3168.75
1252.21788916358	3167.25
1254.75932915524	3184.5
1257.29998167896	3209.25
1259.83984713639	3207.75
1262.37892592857	3227.5
1264.91721845586	3235
1267.45472511795	3245.75
1269.9914463139	3261.75
1272.52738244213	3276.5
1275.0625339004	3248.5
1277.59690108587	3281.5
1280.130484395	3246.75
1282.66328422367	3290.5
1285.19530096712	3292
1287.72653501993	3341.5
1290.25698677608	3421
1292.78665662894	3494
1295.31554497125	3483.5
1297.8436521951	3485
1300.37097869203	3444.75
1302.89752485292	3429.25
1305.42329106805	3379.25
1307.94827772713	3411.75
1310.47248521921	3396
1312.99591393279	3402.25
1315.51856425575	3341.5
1318.04043657536	3349.75
1320.56153127836	3354.75
1323.08184875083	3353.25
1325.6013893783	3361.75
1328.12015354572	3378
1330.63814163744	3388
1333.15535403727	3356.25
1335.67179112839	3391.5
1338.18745329347	3384.25
1340.70234091454	3367
1343.21645437314	3353.75
1345.72979405019	3405
1348.24236032607	3407
1350.75415358059	3401
1353.26517419303	3429
1355.7754225421	3402.75
1358.28489900594	3425.5
1360.79360396218	3455.25
1363.30153778787	3473.75
1365.80870085955	3437
1368.31509355319	3472.75
1370.82071624424	3421.25
1373.32556930762	3449.75
1375.8296531177	3414.5
1378.33296804832	3417.5
1380.83551447282	3411.25
1383.33729276399	3364.25
1385.83830329408	3365
1388.33854643489	3377.75
1390.83802255762	3395.25
1393.33673203301	3367.75
1395.83467523128	3309.5
1398.33185252211	3329.75
1400.82826427471	3356.5
1403.32391085777	3350.25
1405.81879263947	3351.25
1408.31290998752	3380
1410.80626326908	3356.75
1413.29885285087	3382.25
1415.79067909909	3342.75
1418.28174237944	3406.25
1420.77204305717	3410
1423.26158149702	3457
1425.75035806323	3444.5
1428.2383731196	3492
1430.72562702942	3577.75
1433.21212015554	3624.5
1435.69785286028	3681.25
1438.18282550555	3720
1440.66703845275	3706.75
1443.15049206284	3698
1445.6331866963	3674.25
1448.11512271316	3669.75
1450.59630047298	3670
1453.07672033486	3677.5
1455.55638265748	3686.5
1458.03528779902	3638
1460.51343611725	3674.5
1462.99082796946	3619.5
1465.46746371252	3592
1467.94334370285	3578.75
1470.41846829642	3553.25
1472.89283784878	3534
1475.36645271503	3528.25
1477.83931324983	3499
1480.31141980743	3500.25
1482.78277274164	3508
1485.25337240583	3503.5
1487.72321915297	3472
1490.19231333557	3456.25
1492.66065530578	3455.75
1495.12824541525	3467
1497.5950840153	3466.75
1500.06117145678	3440.5
1502.52650809014	3426.5
1504.99109426543	3441.75
1507.45493033227	3459.75
1509.91801663992	3417.5
1512.38035353717	3476.5
1514.84194137248	3450
1517.30278049386	3502.25
1519.76287124894	3504.25
1522.22221398497	3451.5
1524.68080904876	3483.5
1527.13865678681	3442
1529.59575754514	3451.25
1532.05211166945	3492.25
1534.50771950503	3482.25
1536.96258139678	3500
1539.41669768924	3533.25
1541.87006872656	3526
1544.32269485252	3517.75
1546.77457641051	3550
1549.22571374357	3603.75
1551.67610719434	3570.75
1554.12575710513	3605.25
1556.57466381785	3600.75
1559.02282767408	3570.75
1561.47024901499	3626
1563.91692818144	3634
1566.3628655139	3632.25
1568.80806135249	3619.5
1571.252516037	3652.5
1573.6962299068	3661.25
1576.13920330099	3663.5
1578.58143655828	3671.5
1581.02293001704	3695.75
1583.46368401528	3666
1585.90369889071	3675.25
1588.34297498065	3695.25
1590.7815126221	3714.25
1593.21931215173	3696.25
1595.65637390588	3707.25
1598.09269822053	3709.25
1600.52828543135	3688
1602.96313587367	3703.75
1605.3972498825	3700
1607.83062779252	3710.5
1610.26326993808	3699.25
1612.69517665322	3682.25
1615.12634827165	3691.5
1617.55678512676	3668
1619.98648755163	3681.75
1622.41545587902	3645.75
1624.84369044138	3645
1627.27119157085	3671.5
1629.69795959924	3636.25
1632.12399485808	3652.5
1634.54929767859	3642.25
1636.97386839165	3684.75
1639.39770732789	3662
1641.8208148176	3663
1644.24319119078	3675
1646.66483677715	3646.5
1649.0857519061	3671
1651.50593690677	3656.25
1653.92539210795	3691
1656.3441178382	3674.75
1658.76211442575	3695.25
1661.17938219855	3727
1663.59592148428	3721.5
1666.01173261032	3748.25
1668.42681590377	3771.25
1670.84117169145	3725
1673.25480029991	3751.25
1675.66770205541	3733.75
1678.07987728393	3742
1680.49132631119	3783.25
1682.90204946263	3800.25
1685.31204706342	3766.5
1687.72131943846	3803.75
1690.1298669124	3810
1692.53768980957	3817
1694.94478845411	3843.5
1697.35116316982	3832.5
1699.75681428031	3812.75
1702.16174210887	3803.25
1704.56594697858	3853
1706.96942921222	3873
1709.37218913235	3853.25
1711.77422706125	3818.25
1714.17554332098	3839.25
1716.5761382333	3894.75
1718.97601211977	3833.5
1721.37516530169	3871.5
1723.77359810006	3816.25
1726.17131083572	3853
1728.56830382922	3856.5
1730.96457740087	3859.5
1733.36013187075	3826.75
1735.75496755868	3847.75
1738.14908478428	3826.5
1740.54248386689	3883.25
1742.93516512565	3879.75
1745.32712887946	3879
1747.71837544697	3828
1750.10890514662	3845
1752.49871829661	3883.75
1754.88781521492	3883.25
1757.27619621929	3892.75
1759.66386162726	3884.75
1762.05081175612	3878.75
1764.43704692297	3898.75
1766.82256744465	3925
1769.20737363782	3901
1771.59146581887	3906.75
1773.97484430405	3936.75
1776.35750940932	3961.75
1778.73946145048	3941.5
1781.12070074309	3949.5
1783.50122760249	4006.75
1785.88104234385	4018.75
1788.26014528209	4012.5
1790.63853673196	3993.75
1793.01621700796	4004.5
1795.39318642443	4071.75
1797.76944529549	4031
1800.14499393503	4036.5
1802.51983265681	4041.75
1804.8939617743	4071.5
1807.26738160085	4097.5
1809.64009244957	4058.75
1812.01209463339	4046.25
1814.38338846504	4075.75
1816.75397425706	4067.75
1819.12385232181	4067
1821.49302297142	4128
1823.86148651789	4049.25
1826.22924327299	4094
1828.59629354831	4144
1830.96263765526	4092.25
1833.32827590507	4101.75
1835.69320860877	4125
1838.05743607724	4097.25
1840.42095862113	4125.75
1842.78377655097	4150.25
1845.14589017707	4152.75
1847.50729980956	4129.25
1849.86800575843	4139.25
1852.22800833346	4125.25
1854.58730784427	4173.25
1856.94590460032	4179.75
1859.30379891087	4207
1861.66099108503	4204.5
1864.01748143175	4199.25
1866.37327025978	4213.5
1868.72835787773	4196.25
1871.08274459403	4240
1873.43643071697	4213.75
1875.78941655464	4274.5
1878.14170241498	4237.75
1880.4932886058	4300.5
1882.84417543469	4323.75
1885.19436320915	4282.25
1887.54385223646	4299.75
1889.89264282378	4352.25
1892.24073527809	4325.5
1894.58812990625	4362
1896.93482701493	4419.5
1899.28082691067	4387.25
1901.62612989984	4424
1903.97073628868	4455.75
1906.31464638326	4459
1908.6578604895	4481.75
1911.00037891321	4494.75
1913.34220196	4535.5
1915.68332993537	4552.5
1918.02376314468	4520.5
1920.36350189311	4532.75
1922.70254648573	4567.75
1925.04089722744	4589.25
1927.37855442303	4563.75
1929.71551837715	4585.5
1932.05178939426	4582.5
1934.38736777876	4587.75
1936.72225383484	4596.5
1939.0564478666	4623.5
1941.38995017799	4627.75
1943.72276107283	4657
1946.05488085479	4639
1948.38630982744	4654.25
1950.71704829419	4677
1953.04709655832	4602.25
1955.376454923	4632
1957.70512369126	4682.75
1960.03310316599	4622.25
1962.36039364999	4646
1964.68699544589	4705.5
1967.01290885622	4704.75
1969.33813418338	4707
1971.66267172965	4695.5
1973.98652179718	4759.75
1976.309684688	4816.75
1978.63216070402	4777.5
1980.95395014705	4867.75
1983.27505331873	4772
1985.59547052063	4813.5
1987.9152020542	4825
1990.23424822074	4844.5
1992.55260932146	4874.75
1994.87028565746	4879.75
1997.18727752968	4922.5
1999.503585239	4945.5
2001.81920908618	4942.5
2004.13414937184	4998
2006.44840639651	5096.75
2008.7619804606	5076.25
2011.07487186442	5084.5
2013.38708090815	5126.75
2015.6986078919	5126
2018.00945311564	5140
2020.31961687923	5162.5
2022.62909948246	5172.5
2024.93790122498	5163.75
2027.24602240636	5198.75
2029.55346332604	5274.5
2031.86022428337	5272
2034.16630557761	5302
2036.47170750791	5244.5
2038.77643037331	5267.5
2041.08047447275	5370
2043.38384010509	5360.25
2045.68652756907	5351.75
2047.98853716335	5450
2050.28986918648	5402.75
2052.59052393692	5461.75
2054.89050171302	5458.75
2057.18980281306	5494
2059.4884275352	5536.5
2061.78637617753	5499.5
2064.08364903802	5459.5
2066.38024641457	5468.75
2068.67616860497	5500.75
2070.97141590694	5480.75
2073.26598861809	5569
2075.55988703595	5492.25
2077.85311145796	5525.75
2080.14566218145	5595.75
2082.43753950371	5597.75
2084.72874372188	5514.75
2087.01927513307	5603.25
2089.30913403428	5576.25
2091.59832072241	5574.5
2093.88683549429	5544
2096.17467864666	5606
2098.46185047619	5672.75
2100.74835127944	5672.25
2103.03418135292	5700.75
2105.31934099303	5660
2107.6038304961	5722.5
2109.88765015838	5719
2112.17080027602	5696
2114.45328114513	5782.75
2116.7350930617	5776.5
2119.01623632165	5764.75
2121.29671122085	5732.5
2123.57651805505	5787.25
2125.85565711996	5824.25
2128.13412871117	5851
2130.41193312424	5830.5
2132.68907065462	5918
2134.96554159771	5889
2137.24134624881	5889.5
2139.51648490317	5905.25
2141.79095785593	5932
2144.0647654022	5959
2146.33790783698	5869.25
2148.61038545524	5922.25
2150.88219855182	5976
2153.15334742154	5992.5
2155.42383235911	6006.5
2157.6936536592	6003.75
2159.9628116164	5992
2162.23130652522	5971
2164.49913868011	5965.5
2166.76630837544	6016
2169.03281590552	6008.5
2171.2986615646	6056.5
2173.56384564685	6018.25
2175.82836844637	5995.5
2178.0922302572	6050
2180.35543137332	6016
2182.61797208862	6017.75
2184.87985269695	5981.75
2187.14107349208	6022.25
2189.40163476773	6050.5
2191.66153681753	5998
2193.92077993507	5993
2196.17936441386	5965.25
2198.43729054735	5976
2200.69455862894	5959.75
2202.95116895194	6000.25
2205.20712180962	5954
2207.46241749519	5954.25
2209.71705630179	5983.5
2211.97103852248	5954.25
2214.2243644503	5963.75
2216.47703437819	5934
2218.72904859905	5939.5
2220.98040740571	5924.5
2223.23111109095	5868.25
2225.4811599475	5893.25
2227.73055426799	5891.75
2229.97929434504	5864
2232.22738047118	5821.75
2234.47481293889	5911
2236.72159204058	5896.25
2238.96771806864	5881.75
2241.21319131536	5832.25
2243.458012073	5842.25
2245.70218063374	5872.25
2247.94569728973	5898
2250.18856233304	5864.75
2252.4307760557	5775
2254.67233874967	5797.75
2256.91325070687	5822
2259.15351221915	5803
2261.39312357831	5807
2263.63208507611	5799.25
2265.87039700422	5790.75
2268.1080596543	5802.75
2270.34507331792	5776.5
2272.5814382866	5795
2274.81715485183	5783.75
2277.05222330502	5750.5
2279.28664393755	5844.5
2281.52041704072	5747.25
2283.75354290581	5772
2285.98602182401	5737
2288.21785408648	5724.75
2290.44903998434	5739.75
2292.67957980862	5737.75
2294.90947385033	5687.5
2297.1387224004	5672.25
2299.36732574975	5756.75
2301.59528418921	5750.5
2303.82259800958	5727.5
2306.04926750158	5678
2308.27529295593	5741.5
2310.50067466325	5708.75
2312.72541291412	5657.25
2314.9495079991	5704.5
2317.17296020866	5598.75
2319.39576983323	5688.5
2321.61793716322	5653.75
2323.83946248894	5629.75
2326.06034610069	5674.75
2328.28058828871	5667.25
2330.50018934317	5639
2332.7191495542	5641.25
2334.93746921192	5616.75
2337.15514860633	5599.75
2339.37218802743	5584.5
2341.58858776516	5572.75
2343.80434810941	5570
2346.01946935001	5584.75
2348.23395177675	5566.5
2350.44779567939	5608.5
2352.66100134759	5535.25
2354.87356907101	5556.25
2357.08549913925	5537
2359.29679184185	5505
2361.50744746829	5563.75
2363.71746630804	5474.75
2365.92684865048	5462.5
2368.13559478499	5508
2370.34370500083	5544.5
2372.55117958727	5493.5
2374.75801883352	5462.5
2376.96422302874	5434
2379.16979246202	5450.25
2381.37472742243	5466.75
2383.57902819898	5428
2385.78269508063	5433.75
2387.98572835629	5409.75
2390.18812831482	5373.75
2392.38989524505	5357.75
2394.59102943573	5345.25
2396.79153117559	5388.5
2398.9914007533	5371.75
2401.19063845748	5346
2403.38924457672	5352.75
2405.58721939951	5384.75
2407.78456321435	5346
2409.98127630966	5314.25
2412.17735897382	5311.5
2414.37281149517	5328.25
2416.56763416198	5266.25
2418.76182726249	5348
2420.95539108487	5277.25
2423.14832591726	5325.75
2425.34063204776	5285.25
2427.53230976439	5277.5
2429.72335935513	5312
2431.91378110795	5249.25
2434.10357531071	5301.5
2436.29274225125	5277.5
2438.48128221739	5241.25
2440.66919549683	5262.25
2442.8564823773	5237.75
2445.04314314641	5204
2447.22917809176	5177.5
2449.4145875009	5241
2451.59937166131	5192.75
2453.78353086044	5189.75
2455.96706538568	5201
2458.14997552436	5180
2460.33226156379	5151.25
2462.51392379119	5174
2464.69496249376	5127.25
2466.87537795862	5130
2469.05517047288	5077.5
2471.23434032357	5133.5
2473.41288779767	5114.75
2475.59081318211	5074.25
2477.76811676378	5121
2479.9447988295	5105.75
2482.12085966605	5033
2484.29629956016	5041.25
2486.4711187985	5069.75
2488.64531766769	5037
2490.8188964543	5092.75
2492.99185544484	5046
2495.16419492579	4988.5
2497.33591518353	5034
2499.50701650444	5020.5
2501.67749917482	5031.75
2503.84736348091	5002
2506.01660970891	4989.75
2508.18523814496	5011
2510.35324907514	5019.5
2512.52064278551	5034.5
2514.68741956201	5026.25
2516.85357969058	5074.25
2519.01912345709	5063.25
2521.18405114735	4994
2523.34836304711	5055.5
2525.51205944208	5025.75
2527.6751406179	5065.25
2529.83760686016	5058.25
2531.99945845439	5029.25
2534.16069568606	5043.75
2536.3213188406	5042.5
2538.48132820336	4977.75
2540.64072405965	5036.75
2542.79950669471	5022.25
2544.95767639373	5035.25
2547.11523344184	4988
2549.27217812411	4968.75
2551.42851072555	5002.75
2553.58423153111	4962
2555.73934082569	4926.75
2557.89383889412	5005
2560.04772602118	5007
2562.20100249158	4939.75
2564.35366858996	4884
2566.50572460093	4943.75
2568.65717080901	4907
2570.80800749867	4861.25
2572.95823495433	4885.75
2575.10785346031	4874.75
2577.25686330093	4862.75
2579.40526476038	4872.25
2581.55305812282	4879.25
2583.70024367237	4825.75
2585.84682169303	4843.75
2587.99279246879	4810.25
2590.13815628354	4824
2592.28291342112	4785.75
2594.42706416531	4816.5
2596.5706087998	4799.75
2598.71354760826	4808
2600.85588087425	4796.25
2602.99760888127	4835
2605.13873191278	4821.5
2607.27925025214	4776.25
2609.41916418269	4790.75
2611.55847398764	4783
2613.69717995017	4791
2615.83528235339	4813.25
2617.97278148034	4793.5
2620.10967761398	4801
2622.2459710372	4755.75
2624.38166203284	4811.5
2626.51675088365	4799
2628.65123787231	4759
2630.78512328145	4782.75
2632.9184073936	4773.75
2635.05109049124	4792.75
2637.18317285676	4807.5
2639.31465477248	4776.5
2641.44553652067	4763.5
2643.5758183835	4765.25
2645.70550064309	4773.25
2647.83458358144	4778.75
2649.96306748053	4798.75
2652.09095262223	4811.75
2654.21823928836	4812.5
2656.34492776063	4773.75
2658.47101832071	4796
2660.59651125015	4824.75
2662.72140683047	4791.5
2664.84570534309	4794.25
2666.96940706934	4778.5
2669.0925122905	4791.75
2671.21502128773	4781.25
2673.33693434215	4782.75
2675.45825173479	4776.5
2677.57897374658	4751.25
2679.69910065839	4785.25
2681.818632751	4791.5
2683.93757030511	4764.25
2686.05591360133	4822.5
2688.17366292021	4744
2690.29081854218	4783
2692.40738074762	4708
2694.52334981681	4760.25
2696.63872602995	4763.5
2698.75350966713	4825.5
2700.86770100841	4804.25
2702.98130033371	4791
2705.09430792289	4778.25
2707.20672405571	4786.75
2709.31854901185	4837.75
2711.42978307091	4823.5
2713.54042651238	4795
2715.65047961567	4808.25
2717.7599426601	4838.5
2719.86881592491	4851.25
2721.97709968924	4841.75
2724.08479423213	4803
2726.19189983255	4804
2728.29841676934	4814.75
2730.4043453213	4776.5
2732.5096857671	4783.75
2734.61443838532	4737.75
2736.71860345444	4705.25
2738.82218125286	4724.5
2740.92517205889	4723.25
2743.02757615072	4761.25
2745.12939380646	4669.25
2747.23062530411	4723
2749.33127092159	4717.5
2751.4313309367	4655.75
2753.53080562716	4703.5
2755.62969527058	4729.5
2757.72800014448	4693
2759.82572052625	4686.25
2761.92285669323	4643.25
2764.0194089226	4708
2766.11537749147	4689.75
2768.21076267686	4715.25
2770.30556475566	4683.25
2772.39978400465	4713
2774.49342070054	4642.25
2776.58647511991	4692.75
2778.67894753923	4666.25
2780.77083823487	4654.25
2782.8621474831	4647
2784.95287556007	4675
2787.04302274184	4657.75
2789.13258930433	4690.25
2791.22157552338	4624.75
2793.30998167471	4669
2795.39780803392	4666.75
2797.4850548765	4709.25
2799.57172247786	4698.5
2801.65781111324	4653.25
2803.74332105781	4603.75
2805.82825258661	4661.75
2807.91260597457	4683.5
2809.9963814965	4676.75
2812.07957942711	4695.5
2814.16220004096	4669.25
2816.24424361252	4692.75
2818.32571041614	4731.75
2820.40660072604	4773.75
2822.48691481631	4730.5
2824.56665296098	4804.75
2826.64581543388	4833.25
2828.72440250876	4885.75
2830.80241445925	4988.25
2832.87985155885	5063.75
2834.95671408093	5214
2837.03300229875	5415.5
2839.10871648544	5714
2841.18385691399	6145
2843.25842385729	6604.25
2845.33241758808	6998
2847.40583837898	7411.25
2849.4786865025	7614.5
2851.550962231	7643.25
2853.6226658367	7480.75
2855.69379759173	7163.75
2857.76435776806	6972.5
2859.83434663753	6818
2861.90376447184	6630.5
2863.97261154259	6470.25
2866.0408881212	6387.5
2868.10859447901	6452.25
2870.17573088717	6377.5
2872.24229761673	6424.75
2874.30829493859	6538
2876.37372312352	6653
2878.43858244215	6977.25
2880.50287316496	7243
2882.56659556231	7283
2884.62974990439	7107.75
2886.69233646129	6962.25
2888.75435550293	6892.25
2890.81580729909	6928
2892.87669211941	6927.5
2894.93701023339	6873.5
2896.99676191039	6777
2899.05594741961	6830
2901.1145670301	6678
2903.1726210108	6685.5
2905.23010963045	6613
2907.28703315768	6524.25
2909.34339186096	6418.75
2911.39918600861	6386.5
2913.45441586879	6268
2915.50908170952	6294.5
2917.56318379867	6355.5
2919.61672240395	6373.75
2921.66969779291	6344
2923.72211023295	6358.25
2925.77395999134	6423
2927.82524733515	6319.5
2929.87597253132	6316.75
2931.92613584663	6165.25
2933.97573754769	6048
2936.02477790097	5892
2938.07325717276	5723.25
2940.1211756292	5624
2942.16853353626	5446.25
2944.21533115976	5336.5
2946.26156876536	5169
2948.30724661853	5089.75
2950.3523649846	5000
2952.39692412872	4977
2954.44092431587	4913.5
2956.48436581089	4902.25
2958.52724887843	4878
2960.56957378296	4826.25
2962.6113407888	4870.75
2964.65255016011	4817.5
2966.69320216083	4803
2968.73329705479	4776.75
2970.77283510559	4759
2972.81181657671	4744.5
2974.8502417314	4740.5
2976.88811083279	4752.75
2978.92542414378	4738.5
2980.96218192713	4713.75
2982.99838444541	4726.75
2985.034031961	4701.25
2987.06912473612	4737.25
2989.1036630328	4700.75
2991.13764711288	4709.25
2993.17107723804	4653.5
2995.20395366974	4675.75
2997.23627666931	4689.75
2999.26804649782	4694
3001.29926341624	4690.25
3003.32992768528	4712
3005.3600395655	4732.5
3007.38959931726	4786.5
3009.41860720076	4746.5
3011.44706347595	4746.25
3013.47496840263	4727.5
3015.50232224041	4715
3017.5291252487	4756.5
3019.5553776867	4747.5
3021.58107981344	4738
3023.60623188773	4786.75
3025.63083416822	4727.25
3027.65488691331	4785.75
3029.67839038125	4767.75
3031.70134483007	4789
3033.72375051759	4796.5
3035.74560770144	4764
3037.76691663907	4788.25
3039.78767758768	4810.5
3041.80789080431	4790.25
3043.82755654577	4801
3045.84667506867	4786
3047.8652466294	4810
3049.88327148418	4797
3051.90074988899	4792.75
3053.91768209961	4767.5
3055.9340683716	4760.75
3057.94990896033	4763
3059.96520412095	4826
3061.97995410838	4775
3063.99415917734	4788.25
3066.00781958234	4790.75
3068.02093557766	4764.25
3070.03350741738	4768.5
3072.04553535535	4779.25
3074.05701964521	4758
3076.06796054036	4791.25
3078.078358294	4797.5
3080.08821315912	4766.25
3082.09752538846	4807.25
3084.10629523454	4770
3086.11452294967	4757
3088.12220878592	4732.75
3090.12935299515	4801
3092.13595582898	4771.5
3094.1420175388	4770
3096.14753837579	4767.25
3098.15251859088	4792.25
3100.15695843477	4810.25
3102.16085815793	4788.75
3104.16421801061	4778.5
3106.16703824282	4741.5
3108.16931910432	4773.25
3110.17106084464	4735.25
3112.17226371308	4812.5
3114.17292795872	4781.5
3116.17305383034	4804
3118.17264157657	4801.75
3120.17169144571	4811.25
3122.17020368587	4777.75
3124.16817854492	4836
3126.16561627044	4801.75
3128.16251710982	4874
3130.15888131017	4826.75
3132.15470911837	4859.25
3134.15000078104	4869.25
3136.14475654455	4888
3138.13897665502	4871.75
3140.13266135835	4840.75
3142.12581090014	4832.25
3144.11842552577	4885.25
3146.11050548036	4928
3148.10205100875	4920.75
3150.09306235557	4918.5
3152.08353976515	4901.5
3154.07348348158	4835.5
3156.06289374869	4884.75
3158.05177081006	4890.25
3160.04011490899	4890.25
3162.02792628852	4937.5
3164.01520519145	4911.5
3166.00195186029	4877.25
3167.98816653728	4942.75
3169.97384946442	4955.5
3171.95900088344	4899.75
3173.94362103577	4911.75
3175.92771016259	4934.75
3177.91126850484	4923.5
3179.89429630312	4918.75
3181.87679379782	4862.25
3183.85876122903	4967.25
3185.84019883657	4927.5
3187.82110685997	4990.75
3189.80148553851	4954.25
3191.78133511116	4979.75
3193.76065581664	5021.75
3195.73944789337	4971
3197.7177115795	4979.25
3199.6954471129	5008
3201.67265473114	4999
3203.64933467153	4998.5
3205.62548717107	4972
3207.60111246648	5017.75
3209.57621079421	4985
3211.55078239041	4994.5
3213.52482749093	5016.5
3215.49834633133	4992.75
3217.4713391469	5086.5
3219.44380617262	5003.75
3221.41574764317	5073.75
3223.38716379296	5041.75
3225.35805485607	5079
3227.32842106631	5053.75
3229.29826265718	5087
3231.26757986187	5107.25
3233.2363729133	5110
3235.20464204405	5123.75
3237.17238748643	5094.75
3239.13960947243	5102.75
3241.10630823374	5135.75
3243.07248400174	5132.25
3245.03813700748	5211.25
3247.00326748177	5171.75
3248.96787565503	5146.75
3250.93196175742	5197.5
3252.89552601877	5185.25
3254.8585686686	5186
3256.82108993612	5196.5
3258.78309005022	5199
3260.74456923948	5216
3262.70552773215	5215.25
3264.66596575617	5243
3266.62588353916	5210.5
3268.58528130843	5204.5
3270.54415929094	5164.5
3272.50251771336	5156.25
3274.46035680201	5249.75
3276.4176767829	5233.5
3278.37447788171	5207
3280.33076032379	5290
3282.28652433416	5232
3284.24177013751	5252.75
3286.1964979582	5305.25
3288.15070802027	5242.25
3290.10440054741	5253.75
3292.05757576298	5203
3294.01023389001	5282
3295.96237515119	5304.25
3297.91399976887	5265
3299.86510796506	5300.5
3301.81569996142	5301.5
3303.76577597932	5319
3305.7153362397	5315.25
3307.66438096324	5319.25
3309.61291037024	5312
3311.56092468064	5295.5
3313.50842411404	5268.75
3315.45540888971	5330.25
3317.40187922656	5301.25
3319.34783534315	5312
3321.29327745768	5296.25
3323.23820578801	5249.5
3325.18262055164	5337.75
3327.1265219657	5333
3329.06991024699	5306.75
3331.01278561194	5299.25
3332.95514827662	5373.5
3334.89699845674	5351.25
3336.83833636766	5352.25
3338.77916222434	5238.5
3340.71947624143	5341.75
3342.65927863317	5373.75
3344.59856961346	5336.25
3346.53734939584	5356.5
3348.47561819344	5317.75
3350.41337621906	5357.25
3352.35062368513	5375.5
3354.28736080368	5314
3356.22358778637	5384.75
3358.15930484452	5337.75
3360.09451218904	5432.25
3362.02921003047	5399.75
3363.96339857898	5411.75
3365.89707804436	5398
3367.83024863602	5354.75
3369.76291056299	5369.25
3371.69506403389	5403
3373.62670925699	5383.25
3375.55784644016	5439.75
3377.4884757909	5400.25
3379.41859751629	5442.5
3381.34821182305	5445
3383.27731891749	5424.25
3385.20591900555	5469.75
3387.13401229276	5429.75
3389.06159898426	5484.25
3390.9886792848	5523.75
3392.91525339872	5487
3394.84132152998	5553.75
3396.76688388213	5489.5
3398.69194065833	5549.75
3400.61649206133	5540
3402.54053829348	5586.25
3404.46407955672	5534
3406.3871160526	5490.5
3408.30964798225	5534
3410.23167554639	5557.75
3412.15319894535	5609.25
3414.07421837904	5576.75
3415.99473404695	5585
3417.91474614817	5603.25
3419.83425488136	5627
3421.75326044479	5590.75
3423.67176303631	5628.75
3425.58976285332	5610.25
3427.50726009282	5629.75
3429.42425495143	5605.25
3431.34074762528	5612
3433.25673831012	5645.75
3435.17222720127	5599.25
3437.08721449362	5644.75
3439.00170038164	5572
3440.91568505936	5603.75
3442.82916872039	5551.75
3444.74215155791	5544.25
3446.65463376468	5590.5
3448.566615533	5594.75
3450.47809705476	5599.75
3452.3890785214	5601.75
3454.29956012393	5650.25
3456.20954205293	5628.75
3458.11902449853	5605.75
3460.02800765041	5611
3461.93649169784	5562
3463.84447682962	5608.75
3465.75196323412	5537.75
3467.65895109925	5539.5
3469.56544061249	5613
3471.47143196086	5571.25
3473.37692533093	5591.75
3475.28192090884	5601
3477.18641888026	5610
3479.09041943039	5607.5
3480.99392274402	5601.75
3482.89692900545	5601.5
3484.79943839853	5572
3486.70145110666	5593.75
3488.60296731277	5606
3490.50398719933	5567.75
3492.40451094836	5550.75
3494.30453874141	5555.75
3496.20407075956	5659
3498.10310718342	5610.25
3500.00164819315	5535.25