201.866871357051	624.25
204.754250281454	628.5
207.640596790938	625.5
210.525911876299	632.75
213.410196525689	626.5
216.293451724508	629
219.175678455485	623.25
222.056877698662	620.25
224.937050431388	627.25
227.816197628363	618.5
230.694320261602	621.25
233.571419300504	622.25
236.447495711764	622
239.322550459507	627.5
242.196584505182	623.25
245.069598807626	628.5
247.941594323078	624.75
250.812572005154	624.75
253.682532804884	628.5
256.551477670699	623.75
259.419407548456	625.25
262.286323381439	623.5
265.152226110364	626.75
268.017116673389	628.25
270.880996006115	626.75
273.743865041622	629.75
276.605724710436	620
279.466575940562	632
282.326419657496	629.5
285.1852567842	634.75
288.043088241157	630.75
290.899914946349	636
293.75573781526	630.25
296.610557760898	631
299.464375693817	628.25
302.317192522078	632
305.169009151297	628
308.019826484655	635
310.86964542287	632.75
313.718466864233	629
316.566291704614	633.75
319.413120837457	636
322.258955153804	630.75
325.103795542291	632.75
327.947642889128	633.5
330.79049807819	632.75
333.632361990927	629.5
336.473235506444	627.25
339.31311950145	636.75
342.152014850322	630.5
344.989922425062	642.25
347.826843095354	636.5
350.662777728528	634
353.497727189577	630
356.331692341195	640
359.164674043732	641.25
361.996673155267	630.75
364.827690531536	636.75
367.65772702602	646.5
370.486783489887	639
373.314860772047	640
376.14195971912	633.25
378.968081175466	629.5
381.793225983212	636
384.617394982201	635.5
387.44058901005	636
390.262808902131	628.5
393.08405549161	635
395.904329609395	640.5
398.723632084213	632.5
401.541963742569	634.5
404.359325408779	636.75
407.175717904938	633.5
409.991142050982	640.75
412.805598664665	629.25
415.619088561551	639.25
418.43161255505	639
421.243171456415	638.25
424.053766074758	635.5
426.863397217017	639.75
429.672065688024	641.5
432.479772290455	643.5
435.286517824879	639.75
438.092303089736	638
440.897128881359	646.5
443.70099599399	642
446.503905219761	636.25
449.305857348711	639
452.106853168796	637
454.906893465919	639.75
457.705979023885	639
460.504110624439	639.25
463.3012890473	639.25
466.097515070087	642.25
468.892789468424	642.75
471.687113015869	636
474.48048648395	645.5
477.272910642198	639.5
480.064386258109	644.5
482.854914097159	640.5
485.644494922839	646
488.433129496636	647
491.220818578047	641
494.007562924584	645
496.793363291785	633.5
499.578220433217	645.5
502.362135100473	649.25
505.145108043209	642
507.927140009098	648.75
510.708231743909	645
513.488383991433	646
516.267597493556	647.25
519.04587299022	647
521.82321121946	644
524.599612917398	647.5
527.375078818233	638.5
530.149609654287	638.5
532.923206155967	651.25
535.695869051804	646.25
538.467599068448	644.5
541.238396930665	644.25
544.008263361364	647.5
546.777199081578	648.5
549.545204810493	645.75
552.312281265436	641.75
555.078429161898	646.75
557.843649213533	644
560.607942132156	640
563.371308627753	648.5
566.133749408495	648.25
568.895265180756	647.5
571.655856649064	639.5
574.415524516189	653.25
577.174269483075	640.5
579.932092248884	646.75
582.688993510994	655
585.444973965023	642
588.200034304795	656.25
590.95417522237	645.25
593.70739740807	641
596.459701550433	651.25
599.21108833628	652.5
601.961558450668	642
604.711112576933	647.5
607.459751396673	650
610.207475589748	648.25
612.954285834338	649.75
615.700182806879	646.5
618.445167182101	645.5
621.189239633055	639
623.932400831087	643.5
626.674651445839	650.25
629.415992145303	646.25
632.156423595745	643.5
634.895946461813	644.5
637.634561406449	646.5
640.37226909096	647.25
643.109070174978	645
645.844965316508	644.5
648.579955171888	648
651.314040395846	652.75
654.047221641456	647.75
656.779499560176	649
659.510874801828	651
662.241348014642	656.25
664.97091984524	647
667.699590938606	642.5
670.427361938164	650
673.15423348573	649.25
675.880206221526	647.5
678.605280784206	654.25
681.329457810829	644.5
684.05273793692	658.75
686.775121796389	657.75
689.49661002163	654.75
692.217203243454	651.25
694.936902091144	653.5
697.655707192425	645
700.373619173493	646
703.09063865901	649.25
705.806766272093	645.5
708.522002634378	659.5
711.236348365946	653.5
713.94980408538	649.5
716.662370409762	659.25
719.374047954676	649.75
722.08483733419	657.25
724.794739160909	652.5
727.503754045949	649.5
730.21188259892	651.75
732.919125427998	660.75
735.625483139855	646.75
738.330956339723	660.75
741.035545631374	653.5
743.739251617106	653.5
746.44207489779	655
749.144016072852	653
751.845075740272	661.25
754.545254496603	657.75
757.244552936976	662.75
759.94297165508	652.75
762.640511243222	660
765.337172292249	649
768.032955391649	652.5
770.727861129482	661.25
773.421890092413	659
776.11504286572	657
778.807320033298	657.25
781.49872217765	657
784.18924987991	656.25
786.87890371984	653.5
789.567684275826	656.75
792.255592124908	658.75
794.94262784276	657.75
797.628792003703	651.75
800.314085180715	660.25
802.998507945427	655.25
805.682060868145	654.25
808.364744517821	655.25
811.046559462105	657
813.727506267311	659
816.407585498422	657.25
819.08679771913	659.5
821.765143491822	662.25
824.442623377563	667.5
827.119237936127	664.25
829.794987726003	662.25
832.469873304377	659.25
835.143895227167	664.25
837.817054048985	655.25
840.489350323205	658.5
843.160784601892	669
845.831357435894	664
848.501069374739	670.25
851.169920966753	662.75
853.837912758987	671.25
856.505045297232	667.25
859.171319126071	668.5
861.836734788823	662.5
864.501292827579	663.75
867.164993783208	671.25
869.827838195361	662.25
872.489826602454	665.25
875.150959541701	666
877.811237549104	661.5
880.470661159456	666.25
883.129230906357	667.25
885.786947322205	657
888.443810938206	659.5
891.099822284385	675.5
893.754981889586	674.25
896.409290281452	671.25
899.062747986485	665
901.715355529999	676.75
904.367113436154	670.5
907.01802222793	671
909.668082427172	663
912.317294554574	669.75
914.965659129659	667.75
917.613176670835	673.25
920.259847695364	674.25
922.90567271936	672.5
925.550652257825	672.25
928.194786824621	670.25
930.838076932512	672.25
933.480523093109	677.75
936.122125816953	681.25
938.762885613447	675.5
941.402802990899	670.75
944.041878456523	671.25
946.680112516428	673.25
949.31750567563	676.5
951.954058438081	676.75
954.589771306633	685
957.224644783048	676.25
959.858679368044	681.25
962.491875561238	678
965.12423386121	684.25
967.75575476545	678
970.386438770423	676
973.016286371501	684.5
975.645298063046	679.75
978.273474338355	679.75
980.900815689674	683.5
983.527322608243	686.75
986.152995584245	674.25
988.777835106834	683
991.401841664148	685.75
994.025015743307	694.75
996.647357830407	684.5
999.268868410534	689
1001.88954796777	682
1004.50939698518	688.75
1007.12841594484	688.5
1009.74660532783	687.75
1012.36396561423	693.75
1014.98049728314	684
1017.59620081267	694.5
1020.21107667995	691.25
1022.82512536112	687
1025.43834733138	699.75
1028.05074306493	694.25
1030.66231303501	689.25
1033.27305771392	698
1035.88297757299	703
1038.49207308257	697.25
1041.10034471211	699.5
1043.70779293008	701.25
1046.31441820402	701.5
1048.92022100052	715.75
1051.52520178525	708
1054.12936102295	711.75
1056.73269917742	708.25
1059.33521671154	723.25
1061.93691408729	722.75
1064.53779176571	717.25
1067.13785020694	707.75
1069.73708987022	710.75
1072.33551121386	713
1074.93311469528	712.75
1077.52990077103	707.75
1080.12586989674	711.75
1082.72102252714	716.25
1085.31535911611	711.75
1087.90888011663	716
1090.50158598078	716.25
1093.09347715979	709.5
1095.68455410403	709.5
1098.27481726296	714.75
1100.86426708523	715.5
1103.45290401857	716.25
1106.04072850991	708.5
1108.6277410053	714.75
1111.21394194993	718.75
1113.79933178816	715.75
1116.3839109635	723
1118.96767991862	726
1121.55063909539	729.5
1124.13278893477	748.25
1126.71412987696	746.25
1129.29466236132	756
1131.87438682637	740.75
1134.45330370982	741.25
1137.03141344858	735.25
1139.60871647872	737.5
1142.18521323554	729.5
1144.7609041535	725.25
1147.33578966629	734.75
1149.90987020676	743.5
1152.48314620702	732.25
1155.05561809835	731.75
1157.62728631125	733.5
1160.19815127545	738
1162.76821341988	749
1165.33747317271	746.25
1167.90593096133	752.5
1170.47358721235	746.5
1173.04044235163	743.25
1175.60649680425	746.5
1178.17175099454	749.75
1180.73620534607	743.75
1183.29986028165	746
1185.86271622336	751.5
1188.42477359249	757
1190.98603280964	754.5
1193.54649429462	754.25
1196.10615846653	749
1198.66502574372	760.5
1201.22309654385	760.5
1203.78037128378	756
1206.33685037971	747.75
1208.89253424709	757
1211.44742330063	763
1214.00151795438	763
1216.55481862163	760
1219.10732571497	769
1221.65903964631	769.75
1224.20996082683	771.75
1226.760089667	768.5
1229.30942657664	772.5
1231.85797196483	777.25
1234.40572623998	787.75
1236.95268980981	774.75
1239.49886308136	781.75
1242.04424646098	791
1244.58884035435	784.5
1247.13264516647	796.75
1249.67566130166	798
1252.21788916358	791.75
1254.75932915524	804.25
1257.29998167896	802
1259.83984713639	813.5
1262.37892592857	817.5
1264.91721845586	815.75
1267.45472511795	812.25
1269.9914463139	817
1272.52738244213	821.75
1275.0625339004	828.75
1277.59690108587	829.75
1280.130484395	844.5
1282.66328422367	846.75
1285.19530096712	844.5
1287.72653501993	859.75
1290.25698677608	855.5
1292.78665662894	888.75
1295.31554497125	887
1297.8436521951	872
1300.37097869203	874
1302.89752485292	873
1305.42329106805	867.25
1307.94827772713	876.75
1310.47248521921	865.5
1312.99591393279	874.75
1315.51856425575	876.5
1318.04043657536	894.5
1320.56153127836	889.25
1323.08184875083	889.25
1325.6013893783	884.25
1328.12015354572	906
1330.63814163744	904.5
1333.15535403727	907.75
1335.67179112839	911.25
1338.18745329347	919
1340.70234091454	920
1343.21645437314	916.75
1345.72979405019	931
1348.24236032607	940.75
1350.75415358059	951.5
1353.26517419303	958.25
1355.7754225421	956.25
1358.28489900594	965.5
1360.79360396218	978
1363.30153778787	970
1365.80870085955	971
1368.31509355319	984.75
1370.82071624424	997.5
1373.32556930762	1001.25
1375.8296531177	995.25
1378.33296804832	995.75
1380.83551447282	1007.25
1383.33729276399	1008.25
1385.83830329408	1001.25
1388.33854643489	1032.5
1390.83802255762	1034
1393.33673203301	1038
1395.83467523128	1042.5
1398.33185252211	1043.5
1400.82826427471	1064.5
1403.32391085777	1052.25
1405.81879263947	1062.5
1408.31290998752	1073.75
1410.80626326908	1060.5
1413.29885285087	1100.75
1415.79067909909	1093.75
1418.28174237944	1111.75
1420.77204305717	1114.25
1423.26158149702	1124.25
1425.75035806323	1129
1428.2383731196	1148
1430.72562702942	1155.25
1433.21212015554	1175
1435.69785286028	1204.25
1438.18282550555	1216.25
1440.66703845275	1231.25
1443.15049206284	1224.5
1445.6331866963	1220.25
1448.11512271316	1249.75
1450.59630047298	1260.75
1453.07672033486	1250.5
1455.55638265748	1288.25
1458.03528779902	1283
1460.51343611725	1305.75
1462.99082796946	1306.75
1465.46746371252	1319.75
1467.94334370285	1337.5
1470.41846829642	1325.5
1472.89283784878	1338.25
1475.36645271503	1360.25
1477.83931324983	1383.25
1480.31141980743	1374
1482.78277274164	1402.25
1485.25337240583	1405
1487.72321915297	1395.75
1490.19231333557	1406
1492.66065530578	1427.25
1495.12824541525	1431.5
1497.5950840153	1454.25
1500.06117145678	1462
1502.52650809014	1480.25
1504.99109426543	1487.25
1507.45493033227	1496.75
1509.91801663992	1525.75
1512.38035353717	1530.5
1514.84194137248	1527.75
1517.30278049386	1560.75
1519.76287124894	1573.75
1522.22221398497	1577
1524.68080904876	1600.75
1527.13865678681	1588.5
1529.59575754514	1640.75
1532.05211166945	1632.75
1534.50771950503	1671.75
1536.96258139678	1660
1539.41669768924	1706
1541.87006872656	1715.25
1544.32269485252	1739.25
1546.77457641051	1739
1549.22571374357	1773.5
1551.67610719434	1790.5
1554.12575710513	1800.75
1556.57466381785	1809.75
1559.02282767408	1832
1561.47024901499	1844.25
1563.91692818144	1867
1566.3628655139	1873.75
1568.80806135249	1900.5
1571.252516037	1929
1573.6962299068	1950.5
1576.13920330099	1966.25
1578.58143655828	1988.75
1581.02293001704	1989.5
1583.46368401528	1994.5
1585.90369889071	1986.75
1588.34297498065	2041
1590.7815126221	2042.5
1593.21931215173	2047.25
1595.65637390588	2072.25
1598.09269822053	2104.25
1600.52828543135	2091.25
1602.96313587367	2082
1605.3972498825	2083.5
1607.83062779252	2117
1610.26326993808	2153.75
1612.69517665322	2117.25
1615.12634827165	2138.75
1617.55678512676	2158
1619.98648755163	2160.25
1622.41545587902	2164.75
1624.84369044138	2153.75
1627.27119157085	2205.75
1629.69795959924	2166.75
1632.12399485808	2203
1634.54929767859	2190.75
1636.97386839165	2240.75
1639.39770732789	2209.75
1641.8208148176	2246.75
1644.24319119078	2236.75
1646.66483677715	2239
1649.0857519061	2289
1651.50593690677	2258.5
1653.92539210795	2269.25
1656.3441178382	2295.25
1658.76211442575	2275.25
1661.17938219855	2323
1663.59592148428	2343
1666.01173261032	2356
1668.42681590377	2352.5
1670.84117169145	2369.75
1673.25480029991	2406.5
1675.66770205541	2414.25
1678.07987728393	2416.5
1680.49132631119	2414
1682.90204946263	2433.25
1685.31204706342	2461
1687.72131943846	2474.25
1690.1298669124	2494.25
1692.53768980957	2513.25
1694.94478845411	2529
1697.35116316982	2503
1699.75681428031	2509.75
1702.16174210887	2513.75
1704.56594697858	2510.25
1706.96942921222	2567.25
1709.37218913235	2569.25
1711.77422706125	2554.5
1714.17554332098	2550.25
1716.5761382333	2590.75
1718.97601211977	2573.25
1721.37516530169	2582.25
1723.77359810006	2543.75
1726.17131083572	2609.75
1728.56830382922	2611.5
1730.96457740087	2615.25
1733.36013187075	2593.5
1735.75496755868	2623.5
1738.14908478428	2636.25
1740.54248386689	2680.25
1742.93516512565	2672.75
1745.32712887946	2669.25
1747.71837544697	2698.75
1750.10890514662	2713.25
1752.49871829661	2681
1754.88781521492	2735.25
1757.27619621929	2750.75
1759.66386162726	2745
1762.05081175612	2751
1764.43704692297	2771.5
1766.82256744465	2762
1769.20737363782	2797
1771.59146581887	2792.5
1773.97484430405	2849.5
1776.35750940932	2849.5
1778.73946145048	2868.5
1781.12070074309	2874.75
1783.50122760249	2912.75
1785.88104234385	2923
1788.26014528209	2906
1790.63853673196	2926
1793.01621700796	2984
1795.39318642443	2986
1797.76944529549	2964
1800.14499393503	2983.5
1802.51983265681	3004.25
1804.8939617743	3034
1807.26738160085	3050.75
1809.64009244957	3087.25
1812.01209463339	3064
1814.38338846504	3095.75
1816.75397425706	3098.5
1819.12385232181	3081.5
1821.49302297142	3153.25
1823.86148651789	3118.25
1826.22924327299	3089.5
1828.59629354831	3146.25
1830.96263765526	3153
1833.32827590507	3163.75
1835.69320860877	3165.75
1838.05743607724	3181.25
1840.42095862113	3203
1842.78377655097	3195
1845.14589017707	3191.25
1847.50729980956	3222.5
1849.86800575843	3228
1852.22800833346	3237
1854.58730784427	3232.25
1856.94590460032	3275.25
1859.30379891087	3304.25
1861.66099108503	3259.5
1864.01748143175	3285.5
1866.37327025978	3309
1868.72835787773	3326
1871.08274459403	3341.75
1873.43643071697	3359.75
1875.78941655464	3393.5
1878.14170241498	3404.75
1880.4932886058	3410.25
1882.84417543469	3435.5
1885.19436320915	3451.5
1887.54385223646	3446
1889.89264282378	3487.25
1892.24073527809	3463.75
1894.58812990625	3487.25
1896.93482701493	3528.25
1899.28082691067	3508.25
1901.62612989984	3557
1903.97073628868	3545.5
1906.31464638326	3587.25
1908.6578604895	3622
1911.00037891321	3616.25
1913.34220196	3618.5
1915.68332993537	3568.5
1918.02376314468	3597.25
1920.36350189311	3596
1922.70254648573	3610.25
1925.04089722744	3655.25
1927.37855442303	3637
1929.71551837715	3621.25
1932.05178939426	3606.75
1934.38736777876	3690.75
1936.72225383484	3607.25
1939.0564478666	3714.75
1941.38995017799	3649
1943.72276107283	3705.25
1946.05488085479	3665.75
1948.38630982744	3659.5
1950.71704829419	3677
1953.04709655832	3677.75
1955.376454923	3672
1957.70512369126	3678.5
1960.03310316599	3695.25
1962.36039364999	3683.5
1964.68699544589	3684
1967.01290885622	3686.75
1969.33813418338	3675.75
1971.66267172965	3700.5
1973.98652179718	3722.25
1976.309684688	3733.25
1978.63216070402	3728.25
1980.95395014705	3781.5
1983.27505331873	3717
1985.59547052063	3760.5
1987.9152020542	3772.75
1990.23424822074	3753
1992.55260932146	3795
1994.87028565746	3818.25
1997.18727752968	3796
1999.503585239	3850.5
2001.81920908618	3827.75
2004.13414937184	3884
2006.44840639651	3938.5
2008.7619804606	3910
2011.07487186442	3982
2013.38708090815	3969.75
2015.6986078919	3974
2018.00945311564	3996.75
2020.31961687923	3984.25
2022.62909948246	4004
2024.93790122498	4043.75
2027.24602240636	4083.25
2029.55346332604	4062.75
2031.86022428337	4093
2034.16630557761	4124.25
2036.47170750791	4108.5
2038.77643037331	4173.5
2041.08047447275	4193.25
2043.38384010509	4149.5
2045.68652756907	4211.25
2047.98853716335	4201
2050.28986918648	4190
2052.59052393692	4234.75
2054.89050171302	4250.25
2057.18980281306	4312.5
2059.4884275352	4315.5
2061.78637617753	4274.5
2064.08364903802	4327.5
2066.38024641457	4337.25
2068.67616860497	4330.75
2070.97141590694	4377.25
2073.26598861809	4330.75
2075.55988703595	4329
2077.85311145796	4361.25
2080.14566218145	4379
2082.43753950371	4464
2084.72874372188	4446.5
2087.01927513307	4416.25
2089.30913403428	4456
2091.59832072241	4438.75
2093.88683549429	4426
2096.17467864666	4501.25
2098.46185047619	4499.75
2100.74835127944	4535
2103.03418135292	4546.75
2105.31934099303	4544.25
2107.6038304961	4595.75
2109.88765015838	4556.5
2112.17080027602	4612.75
2114.45328114513	4634.75
2116.7350930617	4645.25
2119.01623632165	4670
2121.29671122085	4643
2123.57651805505	4728.5
2125.85565711996	4684
2128.13412871117	4705.5
2130.41193312424	4766.75
2132.68907065462	4722.75
2134.96554159771	4798
2137.24134624881	4765.25
2139.51648490317	4792.25
2141.79095785593	4753.5
2144.0647654022	4815.5
2146.33790783698	4825.25
2148.61038545524	4755.5
2150.88219855182	4882.25
2153.15334742154	4799.5
2155.42383235911	4819.75
2157.6936536592	4828.25
2159.9628116164	4848.75
2162.23130652522	4879.75
2164.49913868011	4864
2166.76630837544	4840.25
2169.03281590552	4876.25
2171.2986615646	4843.5
2173.56384564685	4829
2175.82836844637	4825.25
2178.0922302572	4802.75
2180.35543137332	4862.75
2182.61797208862	4797.75
2184.87985269695	4781.5
2187.14107349208	4804.25
2189.40163476773	4786.75
2191.66153681753	4770
2193.92077993507	4745.75
2196.17936441386	4737.5
2198.43729054735	4714.75
2200.69455862894	4747.5
2202.95116895194	4719.25
2205.20712180962	4696.75
2207.46241749519	4664.5
2209.71705630179	4709.25
2211.97103852248	4681
2214.2243644503	4698.25
2216.47703437819	4655.25
2218.72904859905	4607.75
2220.98040740571	4600.75
2223.23111109095	4577
2225.4811599475	4592
2227.73055426799	4563.5
2229.97929434504	4535.75
2232.22738047118	4501.25
2234.47481293889	4499.75
2236.72159204058	4546.25
2238.96771806864	4504.75
2241.21319131536	4450
2243.458012073	4451
2245.70218063374	4425.75
2247.94569728973	4431.5
2250.18856233304	4370
2252.4307760557	4337
2254.67233874967	4328
2256.91325070687	4347
2259.15351221915	4297.25
2261.39312357831	4301.75
2263.63208507611	4242.25
2265.87039700422	4274.5
2268.1080596543	4259.75
2270.34507331792	4248
2272.5814382866	4149
2274.81715485183	4173
2277.05222330502	4211.75
2279.28664393755	4150.25
2281.52041704072	4155.75
2283.75354290581	4103.5
2285.98602182401	4045
2288.21785408648	4054.5
2290.44903998434	4068.75
2292.67957980862	4014.25
2294.90947385033	4020.75
2297.1387224004	3996
2299.36732574975	3996.25
2301.59528418921	3941.25
2303.82259800958	3918.25
2306.04926750158	3938
2308.27529295593	3898.5
2310.50067466325	3893
2312.72541291412	3870.5
2314.9495079991	3825.25
2317.17296020866	3759.75
2319.39576983323	3801
2321.61793716322	3771
2323.83946248894	3773.75
2326.06034610069	3759.5
2328.28058828871	3734.5
2330.50018934317	3678.75
2332.7191495542	3721.5
2334.93746921192	3678.75
2337.15514860633	3622.25
2339.37218802743	3653
2341.58858776516	3609
2343.80434810941	3612
2346.01946935001	3609.5
2348.23395177675	3520
2350.44779567939	3524.75
2352.66100134759	3532.25
2354.87356907101	3533.25
2357.08549913925	3514.5
2359.29679184185	3459.25
2361.50744746829	3495
2363.71746630804	3457.75
2365.92684865048	3439.5
2368.13559478499	3426.25
2370.34370500083	3401.5
2372.55117958727	3386.75
2374.75801883352	3400.25
2376.96422302874	3350
2379.16979246202	3339.5
2381.37472742243	3315.25
2383.57902819898	3305.75
2385.78269508063	3287.25
2387.98572835629	3270.5
2390.18812831482	3282
2392.38989524505	3233
2394.59102943573	3263.25
2396.79153117559	3230.5
2398.9914007533	3221
2401.19063845748	3240
2403.38924457672	3186.75
2405.58721939951	3158
2407.78456321435	3211
2409.98127630966	3190.5
2412.17735897382	3167.5
2414.37281149517	3127
2416.56763416198	3128.75
2418.76182726249	3129.25
2420.95539108487	3106
2423.14832591726	3097.75
2425.34063204776	3105.75
2427.53230976439	3063.25
2429.72335935513	3077.25
2431.91378110795	3036.75
2434.10357531071	3041.25
2436.29274225125	3051.75
2438.48128221739	2981.5
2440.66919549683	2980
2442.8564823773	2989
2445.04314314641	2992.25
2447.22917809176	2996.5
2449.4145875009	2993
2451.59937166131	2957.25
2453.78353086044	2927.75
2455.96706538568	2933
2458.14997552436	2940.5
2460.33226156379	2896.75
2462.51392379119	2893.5
2464.69496249376	2868.5
2466.87537795862	2856.25
2469.05517047288	2858.75
2471.23434032357	2840.75
2473.41288779767	2824.5
2475.59081318211	2831.25
2477.76811676378	2810.5
2479.9447988295	2796.5
2482.12085966605	2778
2484.29629956016	2768.5
2486.4711187985	2792.5
2488.64531766769	2767.5
2490.8188964543	2767.5
2492.99185544484	2742.75
2495.16419492579	2737.5
2497.33591518353	2737.5
2499.50701650444	2712.75
2501.67749917482	2729.25
2503.84736348091	2711.5
2506.01660970891	2737.5
2508.18523814496	2679.75
2510.35324907514	2716.5
2512.52064278551	2669.75
2514.68741956201	2667
2516.85357969058	2693.5
2519.01912345709	2688
2521.18405114735	2648.75
2523.34836304711	2635.5
2525.51205944208	2630.75
2527.6751406179	2629.25
2529.83760686016	2639
2531.99945845439	2651
2534.16069568606	2623
2536.3213188406	2625
2538.48132820336	2567.25
2540.64072405965	2603.5
2542.79950669471	2583.5
2544.95767639373	2594.75
2547.11523344184	2584.75
2549.27217812411	2557.25
2551.42851072555	2552.75
2553.58423153111	2546
2555.73934082569	2552.75
2557.89383889412	2520.25
2560.04772602118	2528.5
2562.20100249158	2491
2564.35366858996	2528
2566.50572460093	2493.75
2568.65717080901	2482
2570.80800749867	2482.5
2572.95823495433	2459.75
2575.10785346031	2428.75
2577.25686330093	2422.25
2579.40526476038	2426.25
2581.55305812282	2435.75
2583.70024367237	2427.5
2585.84682169303	2382.75
2587.99279246879	2383.75
2590.13815628354	2378.75
2592.28291342112	2380
2594.42706416531	2386.75
2596.5706087998	2380
2598.71354760826	2360.5
2600.85588087425	2374.25
2602.99760888127	2351.75
2605.13873191278	2333.25
2607.27925025214	2351.5
2609.41916418269	2361
2611.55847398764	2315.25
2613.69717995017	2337.25
2615.83528235339	2351.75
2617.97278148034	2321
2620.10967761398	2301.5
2622.2459710372	2308
2624.38166203284	2301
2626.51675088365	2315.5
2628.65123787231	2310.25
2630.78512328145	2302.5
2632.9184073936	2285
2635.05109049124	2299.25
2637.18317285676	2303
2639.31465477248	2287.5
2641.44553652067	2273.25
2643.5758183835	2286.5
2645.70550064309	2278.75
2647.83458358144	2293
2649.96306748053	2295
2652.09095262223	2322.25
2654.21823928836	2259.5
2656.34492776063	2243.75
2658.47101832071	2265.75
2660.59651125015	2296
2662.72140683047	2261
2664.84570534309	2259
2666.96940706934	2249.5
2669.0925122905	2223
2671.21502128773	2250
2673.33693434215	2255.5
2675.45825173479	2243.25
2677.57897374658	2252.75
2679.69910065839	2236.75
2681.818632751	2218.25
2683.93757030511	2255.25
2686.05591360133	2236.5
2688.17366292021	2227.5
2690.29081854218	2220.25
2692.40738074762	2237
2694.52334981681	2217
2696.63872602995	2188.25
2698.75350966713	2241.25
2700.86770100841	2224.5
2702.98130033371	2219
2705.09430792289	2199.5
2707.20672405571	2223.75
2709.31854901185	2257.5
2711.42978307091	2214
2713.54042651238	2235
2715.65047961567	2246.5
2717.7599426601	2212.5
2719.86881592491	2225
2721.97709968924	2199
2724.08479423213	2172.5
2726.19189983255	2220
2728.29841676934	2197.25
2730.4043453213	2227
2732.5096857671	2233.5
2734.61443838532	2186.5
2736.71860345444	2216.75
2738.82218125286	2199.75
2740.92517205889	2216.5
2743.02757615072	2231
2745.12939380646	2227.25
2747.23062530411	2206
2749.33127092159	2216.5
2751.4313309367	2209.25
2753.53080562716	2220
2755.62969527058	2224.5
2757.72800014448	2214.75
2759.82572052625	2199
2761.92285669323	2211.5
2764.0194089226	2183.25
2766.11537749147	2222
2768.21076267686	2211.5
2770.30556475566	2217.25
2772.39978400465	2188.25
2774.49342070054	2207.25
2776.58647511991	2199.25
2778.67894753923	2208.25
2780.77083823487	2230.25
2782.8621474831	2200
2784.95287556007	2192.75
2787.04302274184	2213.25
2789.13258930433	2224.75
2791.22157552338	2201.5
2793.30998167471	2186.25
2795.39780803392	2222.25
2797.4850548765	2210.75
2799.57172247786	2206.25
2801.65781111324	2213
2803.74332105781	2210
2805.82825258661	2208.25
2807.91260597457	2226.25
2809.9963814965	2201.5
2812.07957942711	2232.25
2814.16220004096	2200.25
2816.24424361252	2228.25
2818.32571041614	2224.75
2820.40660072604	2220.75
2822.48691481631	2252
2824.56665296098	2225.5
2826.64581543388	2234.75
2828.72440250876	2248.5
2830.80241445925	2265.5
2832.87985155885	2282
2834.95671408093	2311
2837.03300229875	2342.75
2839.10871648544	2364.75
2841.18385691399	2417.5
2843.25842385729	2474.75
2845.33241758808	2495.25
2847.40583837898	2549.75
2849.4786865025	2485.5
2851.550962231	2506.25
2853.6226658367	2497.5
2855.69379759173	2468.75
2857.76435776806	2465.5
2859.83434663753	2443
2861.90376447184	2450
2863.97261154259	2411.75
2866.0408881212	2429.5
2868.10859447901	2431.25
2870.17573088717	2423.5
2872.24229761673	2448.25
2874.30829493859	2466.75
2876.37372312352	2504.25
2878.43858244215	2575.5
2880.50287316496	2616.75
2882.56659556231	2573.25
2884.62974990439	2544
2886.69233646129	2525
2888.75435550293	2494
2890.81580729909	2500.75
2892.87669211941	2522.75
2894.93701023339	2506.25
2896.99676191039	2489.5
2899.05594741961	2500
2901.1145670301	2486.5
2903.1726210108	2485.5
2905.23010963045	2497
2907.28703315768	2469.75
2909.34339186096	2466.5
2911.39918600861	2439.25
2913.45441586879	2446.75
2915.50908170952	2443.25
2917.56318379867	2460.75
2919.61672240395	2474.5
2921.66969779291	2486.75
2923.72211023295	2444.5
2925.77395999134	2464.25
2927.82524733515	2489
2929.87597253132	2513.5
2931.92613584663	2495.25
2933.97573754769	2438.75
2936.02477790097	2470.75
2938.07325717276	2451.5
2940.1211756292	2435.75
2942.16853353626	2471.25
2944.21533115976	2429.75
2946.26156876536	2438.75
2948.30724661853	2434
2950.3523649846	2436
2952.39692412872	2454.25
2954.44092431587	2420.25
2956.48436581089	2413.75
2958.52724887843	2440.75
2960.56957378296	2434
2962.6113407888	2437.5
2964.65255016011	2423.5
2966.69320216083	2455.5
2968.73329705479	2429.5
2970.77283510559	2426.25
2972.81181657671	2462.75
2974.8502417314	2468.5
2976.88811083279	2462
2978.92542414378	2494.5
2980.96218192713	2470.75
2982.99838444541	2494
2985.034031961	2475
2987.06912473612	2495
2989.1036630328	2471.75
2991.13764711288	2515.5
2993.17107723804	2523.75
2995.20395366974	2508.5
2997.23627666931	2517.5
2999.26804649782	2524.25
3001.29926341624	2529.5
3003.32992768528	2555.25
3005.3600395655	2538.25
3007.38959931726	2522.5
3009.41860720076	2561.25
3011.44706347595	2550
3013.47496840263	2570.75
3015.50232224041	2560.75
3017.5291252487	2588.5
3019.5553776867	2578.5
3021.58107981344	2597.25
3023.60623188773	2586.25
3025.63083416822	2600.25
3027.65488691331	2630.25
3029.67839038125	2588.75
3031.70134483007	2628.25
3033.72375051759	2636.75
3035.74560770144	2604.5
3037.76691663907	2630.5
3039.78767758768	2653
3041.80789080431	2633.75
3043.82755654577	2654.25
3045.84667506867	2644.75
3047.8652466294	2623.25
3049.88327148418	2662.25
3051.90074988899	2626
3053.91768209961	2639.75
3055.9340683716	2633.5
3057.94990896033	2648
3059.96520412095	2682.75
3061.97995410838	2683
3063.99415917734	2671.5
3066.00781958234	2660.75
3068.02093557766	2675.75
3070.03350741738	2640
3072.04553535535	2657.25
3074.05701964521	2679.25
3076.06796054036	2672.25
3078.078358294	2658.75
3080.08821315912	2683
3082.09752538846	2665
3084.10629523454	2628.25
3086.11452294967	2684.5
3088.12220878592	2667.75
3090.12935299515	2666.75
3092.13595582898	2687.75
3094.1420175388	2697
3096.14753837579	2718
3098.15251859088	2731.25
3100.15695843477	2698.25
3102.16085815793	2700
3104.16421801061	2699.75
3106.16703824282	2699
3108.16931910432	2731.75
3110.17106084464	2688.75
3112.17226371308	2711.75
3114.17292795872	2715.25
3116.17305383034	2730.5
3118.17264157657	2709.75
3120.17169144571	2759.75
3122.17020368587	2713.75
3124.16817854492	2735.25
3126.16561627044	2759.5
3128.16251710982	2776.75
3130.15888131017	2749
3132.15470911837	2749.5
3134.15000078104	2767.75
3136.14475654455	2790.25
3138.13897665502	2771.25
3140.13266135835	2787.25
3142.12581090014	2807.25
3144.11842552577	2779.75
3146.11050548036	2842.25
3148.10205100875	2806.5
3150.09306235557	2799
3152.08353976515	2799.5
3154.07348348158	2789
3156.06289374869	2848.25
3158.05177081006	2814
3160.04011490899	2835
3162.02792628852	2839.25
3164.01520519145	2789
3166.00195186029	2814.5
3167.98816653728	2865.25
3169.97384946442	2844.75
3171.95900088344	2850
3173.94362103577	2861
3175.92771016259	2843
3177.91126850484	2836.75
3179.89429630312	2844.75
3181.87679379782	2843
3183.85876122903	2872.25
3185.84019883657	2879.75
3187.82110685997	2885.5
3189.80148553851	2853.5
3191.78133511116	2887.5
3193.76065581664	2886.5
3195.73944789337	2856.25
3197.7177115795	2913
3199.6954471129	2927.75
3201.67265473114	2931.5
3203.64933467153	2905.75
3205.62548717107	2932.5
3207.60111246648	2936.75
3209.57621079421	2911.5
3211.55078239041	2938.5
3213.52482749093	2923.5
3215.49834633133	2935.75
3217.4713391469	2985.5
3219.44380617262	2976
3221.41574764317	2993.5
3223.38716379296	2947
3225.35805485607	2985
3227.32842106631	2994
3229.29826265718	3015.25
3231.26757986187	3000.5
3233.2363729133	3021
3235.20464204405	3009.25
3237.17238748643	3044
3239.13960947243	3015
3241.10630823374	3049.75
3243.07248400174	3030.75
3245.03813700748	3070
3247.00326748177	3029.25
3248.96787565503	3019.5
3250.93196175742	3053.25
3252.89552601877	3060.25
3254.8585686686	3064.25
3256.82108993612	3107.75
3258.78309005022	3067.75
3260.74456923948	3064
3262.70552773215	3106.5
3264.66596575617	3057.5
3266.62588353916	3052.25
3268.58528130843	3084.75
3270.54415929094	3055
3272.50251771336	3069.5
3274.46035680201	3115.75
3276.4176767829	3099.5
3278.37447788171	3073.5
3280.33076032379	3096.25
3282.28652433416	3092.5
3284.24177013751	3105.5
3286.1964979582	3094.75
3288.15070802027	3105
3290.10440054741	3098.75
3292.05757576298	3125
3294.01023389001	3120.25
3295.96237515119	3121.75
3297.91399976887	3130.5
3299.86510796506	3097
3301.81569996142	3109.75
3303.76577597932	3097.25
3305.7153362397	3090.5
3307.66438096324	3114
3309.61291037024	3114
3311.56092468064	3086.25
3313.50842411404	3113.75
3315.45540888971	3122.75
3317.40187922656	3133.5
3319.34783534315	3085.75
3321.29327745768	3117.5
3323.23820578801	3093.75
3325.18262055164	3068.75
3327.1265219657	3101.75
3329.06991024699	3114.5
3331.01278561194	3084
3332.95514827662	3108.5
3334.89699845674	3127
3336.83833636766	3097.75
3338.77916222434	3082.5
3340.71947624143	3117.5
3342.65927863317	3112.75
3344.59856961346	3100.5
3346.53734939584	3081.25
3348.47561819344	3065.5
3350.41337621906	3067.75
3352.35062368513	3077
3354.28736080368	3086.5
3356.22358778637	3101.75
3358.15930484452	3087
3360.09451218904	3107.5
3362.02921003047	3101.5
3363.96339857898	3096
3365.89707804436	3114.75
3367.83024863602	3077.5
3369.76291056299	3114.5
3371.69506403389	3106.5
3373.62670925699	3108.25
3375.55784644016	3083.75
3377.4884757909	3110.25
3379.41859751629	3097.75
3381.34821182305	3121
3383.27731891749	3142.25
3385.20591900555	3143.25
3387.13401229276	3126.5
3389.06159898426	3108.75
3390.9886792848	3144.75
3392.91525339872	3148.25
3394.84132152998	3131.25
3396.76688388213	3121.75
3398.69194065833	3178.25
3400.61649206133	3158.75
3402.54053829348	3130
3404.46407955672	3125.75
3406.3871160526	3126.75
3408.30964798225	3153.5
3410.23167554639	3139.25
3412.15319894535	3175.75
3414.07421837904	3138
3415.99473404695	3179.75
3417.91474614817	3142.5
3419.83425488136	3213.5
3421.75326044479	3175.75
3423.67176303631	3203
3425.58976285332	3174.5
3427.50726009282	3195.5
3429.42425495143	3142.5
3431.34074762528	3153
3433.25673831012	3188.25
3435.17222720127	3179.25
3437.08721449362	3206.5
3439.00170038164	3160
3440.91568505936	3193
3442.82916872039	3150.5
3444.74215155791	3156.5
3446.65463376468	3157
3448.566615533	3173.5
3450.47809705476	3185.25
3452.3890785214	3179.75
3454.29956012393	3212.5
3456.20954205293	3172.75
3458.11902449853	3198.25
3460.02800765041	3171
3461.93649169784	3164
3463.84447682962	3170.5
3465.75196323412	3169.5
3467.65895109925	3149.25
3469.56544061249	3179.25
3471.47143196086	3173
3473.37692533093	3196
3475.28192090884	3176
3477.18641888026	3203.25
3479.09041943039	3189.25
3480.99392274402	3196
3482.89692900545	3206.25
3484.79943839853	3151.75
3486.70145110666	3217.75
3488.60296731277	3200.25
3490.50398719933	3178
3492.40451094836	3169
3494.30453874141	3188.25
3496.20407075956	3218.75
3498.10310718342	3228.5
3500.00164819315	3161.25