200.090469251518	1033
202.974751419362	1035
205.858021632263	1030
208.740280737522	1054
211.621529580443	1028
214.501769004371	1059
217.380999850626	1048
220.25922295859	1027
223.136439165646	1067
226.012649307235	1077
228.88785421682	1051
231.762054725918	1066
234.635251664113	1036
237.507445859021	1073
240.378638136346	1079
243.248829319855	1095
246.11802023137	1118
248.986211690826	1105
251.853404516227	1087
254.719599523654	1125
257.584797527335	1077
260.44899933954	1075
263.312205770682	1086
266.174417629303	1091
269.035635722015	1081
271.895860853609	1071
274.755093826978	1057
277.613335443144	1059
280.470586501309	1089
283.326847798766	1050
286.182120131019	1080
289.036404291684	1079
291.889701072574	1078
294.742011263643	1072
297.593335653048	1086
300.443675027094	1104
303.293030170295	1102
306.141401865367	1081
308.988790893174	1099
311.835198032837	1126
314.680624061635	1099
317.525069755113	1118
320.36853588697	1095
323.211023229178	1108
326.052532551923	1121
328.893064623604	1118
331.732620210885	1088
334.57120007867	1102
337.408804990093	1117
340.245435706565	1094
343.081092987733	1100
345.915777591523	1117
348.749490274145	1142
351.582231790049	1124
354.414002891997	1138
357.244804331021	1133
360.074636856443	1132
362.903501215886	1122
365.731398155265	1159
368.558328418814	1155
371.384292749062	1131
374.209291886869	1149
377.033326571407	1128
379.85639754017	1140
382.678505529009	1167
385.499651272065	1186
388.319835501872	1165
391.139058949258	1221
393.957322343453	1278
396.774626412011	1333
399.590971880847	1297
402.406359474258	1254
405.220789914893	1243
408.034263923801	1150
410.8467822204	1159
413.658345522483	1169
416.468954546242	1161
419.278610006277	1158
422.087312615557	1154
424.895063085503	1192
427.701862125901	1161
430.507710444981	1181
433.312608749366	1154
436.116557744146	1180
438.919558132791	1201
441.721610617238	1190
444.522715897856	1196
447.322874673457	1229
450.122087641299	1235
452.920355497092	1232
455.717678935009	1261
458.514058647681	1211
461.309495326219	1221
464.103989660191	1214
466.89754233765	1180
469.690154045114	1182
472.481825467625	1162
475.272557288674	1173
478.062350190281	1207
480.851204852952	1189
483.639121955683	1194
486.426102176007	1177
489.212146189955	1195
491.997254672093	1177
494.781428295471	1190
497.564667731716	1196
500.346973650958	1203
503.128346721878	1240
505.90878761169	1212
508.688296986151	1215
511.46687550957	1211
514.244523844831	1223
517.021242653354	1251
519.797032595132	1257
522.571894328732	1271
525.345828511279	1290
528.11883579849	1240
530.890916844655	1249
533.662072302668	1273
536.432302823985	1212
539.201609058684	1234
541.96999165542	1268
544.737451261473	1218
547.503988522723	1231
550.26960408366	1229
553.034298587394	1217
555.798072675669	1238
558.560926988819	1246
561.322862165849	1224
564.083878844369	1253
566.843977660654	1253
569.603159249604	1242
572.361424244769	1265
575.118773278369	1266
577.87520698124	1279
580.630725982905	1242
583.385330911566	1274
586.139022394076	1283
588.891801055954	1251
591.643667521406	1242
594.394622413318	1239
597.144666353273	1260
599.893799961512	1249
602.64202385701	1249
605.389338657413	1284
608.135744979089	1267
610.881243437092	1268
613.625834645191	1259
616.369519215881	1254
619.112297760374	1249
621.854170888604	1281
624.595139209225	1257
627.335203329614	1292
630.074363855914	1288
632.81262139299	1267
635.549976544436	1267
638.286429912612	1290
641.021982098635	1250
643.756633702364	1263
646.49038532241	1259
649.223237556176	1294
651.955190999808	1304
654.686246248224	1313
657.416403895135	1283
660.145664533011	1304
662.874028753133	1303
665.601497145537	1297
668.328070299071	1306
671.05374880138	1297
673.778533238885	1308
676.502424196839	1304
679.225422259297	1266
681.947528009099	1302
684.668742027927	1294
687.389064896281	1323
690.108497193465	1305
692.827039497621	1362
695.544692385724	1324
698.261456433585	1338
700.977332215847	1325
703.692320305981	1323
706.406421276337	1322
709.11963569808	1350
711.831964141256	1360
714.54340717474	1352
717.253965366304	1350
719.963639282552	1327
722.672429488961	1348
725.380336549904	1321
728.087361028596	1400
730.793503487166	1352
733.498764486594	1344
736.203144586758	1353
738.906644346447	1375
741.60926432331	1388
744.311005073912	1368
747.011867153727	1390
749.711851117121	1393
752.410957517375	1382
755.109186906677	1419
757.806539836132	1392
760.503016855779	1447
763.198618514551	1411
765.893345360346	1389
768.587197939964	1414
771.28017679914	1417
773.972282482566	1407
776.663515533859	1411
779.353876495581	1410
782.043365909241	1419
784.731984315327	1409
787.419732253235	1444
790.106610261366	1416
792.792618877058	1430
795.477758636618	1426
798.162030075313	1486
800.845433727423	1534
803.52797012615	1675
806.209639803714	1826
808.890443291304	1866
811.570381119098	1747
814.249453816265	1599
816.927661910959	1534
819.60500593036	1478
822.281486400603	1479
824.957103846864	1488
827.631858793316	1496
830.305751763135	1539
832.978783278519	1558
835.650953860677	1573
838.322264029848	1624
840.992714305292	1672
843.662305205289	1573
846.331037247157	1562
848.998910947241	1520
851.665926820933	1530
854.332085382674	1464
856.997387145915	1537
859.661832623191	1492
862.325422326066	1512
864.988156765172	1529
867.650036450181	1530
870.311061889846	1488
872.971233591961	1511
875.630552063409	1503
878.28901781013	1499
880.946631337138	1520
883.603393148533	1505
886.259303747484	1488
888.914363636246	1515
891.568573316155	1477
894.22193328767	1512
896.874444050281	1512
899.526106102625	1537
902.176919942416	1516
904.826886066483	1487
907.476004970747	1535
910.124277150255	1532
912.77170309913	1521
915.418283310642	1547
918.064018277175	1571
920.708908490222	1518
923.352954440405	1574
925.996156617486	1569
928.638515510334	1591
931.280031606966	1563
933.920705394521	1596
936.560537359303	1579
939.199527986737	1605
941.837677761392	1594
944.474987167006	1609
947.111456686438	1606
949.747086801734	1592
952.38187799407	1590
955.015830743792	1584
957.648945530418	1615
960.281222832633	1618
962.91266312826	1618
965.543266894336	1671
968.173034607058	1794
970.801966741779	1862
973.43006377307	1843
976.057326174661	1781
978.683754419471	1695
981.309348979623	1624
983.93411032642	1650
986.558038930361	1605
989.181135261144	1617
991.803399787692	1700
994.424832978086	1671
997.045435299653	1724
999.665207218906	1658
1002.2841492016	1659
1004.90226171266	1677
1007.51954521628	1703
1010.13600017584	1680
1012.75162705397	1694
1015.3664263125	1685
1017.9803984125	1636
1020.5935438143	1682
1023.20586297741	1644
1025.81735636063	1704
1028.42802442196	1692
1031.03786761869	1722
1033.64688640732	1750
1036.2550812436	1740
1038.86245258255	1761
1041.46900087844	1716
1044.07472658479	1760
1046.67963015438	1737
1049.28371203927	1714
1051.88697269075	1723
1054.48941255943	1679
1057.09103209513	1743
1059.691831747	1728
1062.29181196343	1717
1064.89097319211	1693
1067.48931587999	1680
1070.08684047333	1693
1072.68354741766	1679
1075.27943715779	1657
1077.87451013787	1698
1080.46876680127	1724
1083.06220759071	1691
1085.65483294822	1667
1088.24664331509	1708
1090.83763913194	1708
1093.42782083869	1715
1096.01718887459	1704
1098.60574367818	1723
1101.19348568732	1752
1103.78041533919	1728
1106.3665330703	1708
1108.95183931646	1730
1111.53633451284	1725
1114.12001909391	1772
1116.70289349349	1739
1119.2849581447	1725
1121.86621348005	1704
1124.44665993134	1765
1127.02629792973	1730
1129.60512790574	1772
1132.18315028919	1781
1134.76036550929	1757
1137.3367739946	1800
1139.912376173	1814
1142.48717247176	1826
1145.06116331748	1871
1147.63434913616	1923
1150.20673035312	1943
1152.77830739307	1963
1155.34908068007	1973
1157.91905063757	1954
1160.48821768838	2011
1163.05658225471	1952
1165.6241447581	2045
1168.19090561951	2057
1170.75686525927	2005
1173.32202409708	1957
1175.88638255206	1882
1178.44994104269	1809
1181.01269998684	1812
1183.57465980182	1784
1186.13582090427	1742
1188.69618371026	1810
1191.25574863529	1815
1193.8145160942	1794
1196.37248650129	1794
1198.92966027025	1785
1201.48603781416	1778
1204.04161954556	1800
1206.59640587635	1783
1209.15039721788	1779
1211.70359398092	1852
1214.25599657564	1771
1216.80760541166	1877
1219.35842089801	1878
1221.90844344314	1891
1224.45767345496	1866
1227.00611134077	1846
1229.55375750736	1829
1232.10061236092	1833
1234.64667630707	1848
1237.1919497509	1820
1239.73643309692	1819
1242.28012674912	1840
1244.82303111089	1871
1247.36514658511	1879
1249.9064735741	1891
1252.44701247964	1876
1254.98676370294	1887
1257.52572764469	1887
1260.06390470506	1907
1262.60129528365	1867
1265.13789977954	1895
1267.67371859128	1845
1270.20875211688	1879
1272.74300075384	1882
1275.2764648991	1856
1277.80914494911	1853
1280.34104129978	1885
1282.87215434652	1896
1285.40248448419	1925
1287.93203210715	1936
1290.46079760927	1869
1292.98878138385	1920
1295.51598382375	1896
1298.04240532127	1962
1300.56804626822	1957
1303.09290705593	1939
1305.6169880752	1970
1308.14028971632	1942
1310.66281236913	1939
1313.18455642292	1970
1315.70552226653	1909
1318.22571028829	1993
1320.74512087603	2019
1323.26375441711	2060
1325.7816112984	2123
1328.29869190629	2098
1330.81499662666	2166
1333.33052584497	2070
1335.84527994613	1998
1338.35925931464	2034
1340.87246433446	2007
1343.38489538916	2010
1345.89655286177	2046
1348.40743713487	2026
1350.91754859059	2042
1353.42688761059	2041
1355.93545457606	2090
1358.44324986772	2139
1360.95027386588	2100
1363.45652695032	2080
1365.96200950042	2074
1368.4667218951	2095
1370.97066451281	2115
1373.47383773156	2036
1375.97624192891	2054
1378.47787748199	2019
1380.97874476746	2041
1383.47884416157	2068
1385.97817604009	2037
1388.4767407784	2084
1390.9745387514	2047
1393.47157033358	2053
1395.96783589898	2095
1398.46333582124	2009
1400.95807047354	1973
1403.45204022864	2014
1405.94524545889	2021
1408.4376865362	2059
1410.92936383205	2075
1413.42027771752	2076
1415.91042856328	2026
1418.39981673955	2043
1420.88844261615	2056
1423.37630656249	2098
1425.86340894757	2066
1428.34975013999	2108
1430.83533050792	2142
1433.32015041912	2159
1435.80421024098	2165
1438.28751034045	2246
1440.77005108411	2225
1443.25183283812	2193
1445.73285596824	2227
1448.21312083984	2269
1450.69262781791	2346
1453.17137726702	2387
1455.64936955137	2430
1458.12660503477	2426
1460.60308408063	2444
1463.07880705197	2420
1465.55377431145	2349
1468.02798622133	2317
1470.50144314348	2228
1472.97414543941	2258
1475.44609347024	2260
1477.91728759673	2265
1480.38772817924	2218
1482.85741557777	2270
1485.32635015194	2209
1487.79453226103	2225
1490.26196226391	2320
1492.72864051911	2257
1495.1945673848	2265
1497.65974321874	2267
1500.1241683784	2310
1502.58784322083	2291
1505.05076810274	2327
1507.51294338049	2375
1509.97436941009	2323
1512.43504654717	2356
1514.89497514704	2323
1517.35415556462	2363
1519.81258815451	2310
1522.27027327095	2308
1524.72721126784	2299
1527.18340249874	2329
1529.63884731684	2331
1532.09354607502	2335
1534.5474991258	2361
1537.00070682136	2340
1539.45316951355	2332
1541.90488755388	2335
1544.35586129353	2357
1546.80609108336	2412
1549.25557727385	2349
1551.70432021519	2302
1554.15232025725	2423
1556.59957774953	2348
1559.04609304125	2445
1561.49186648127	2421
1563.93689841815	2391
1566.38118920011	2402
1568.82473917506	2397
1571.2675486906	2428
1573.70961809399	2444
1576.15094773219	2407
1578.59153795184	2497
1581.03138909928	2450
1583.47050152051	2416
1585.90887556123	2463
1588.34651156686	2474
1590.78340988246	2474
1593.21957085283	2511
1595.65499482245	2517
1598.08968213547	2521
1600.52363313578	2479
1602.95684816694	2465
1605.38932757224	2480
1607.82107169462	2476
1610.25208087677	2506
1612.68235546107	2477
1615.1118957896	2492
1617.54070220415	2456
1619.96877504621	2428
1622.39611465701	2425
1624.82272137746	2495
1627.24859554818	2498
1629.67373750953	2532
1632.09814760155	2437
1634.52182616404	2440
1636.94477353647	2491
1639.36699005806	2483
1641.78847606776	2521
1644.20923190418	2489
1646.62925790573	2507
1649.04855441048	2510
1651.46712175628	2521
1653.88496028066	2532
1656.3020703209	2537
1658.71845221401	2478
1661.13410629671	2542
1663.54903290547	2546
1665.96323237649	2605
1668.37670504571	2590
1670.78945124877	2566
1673.20147132109	2615
1675.61276559779	2584
1678.02333441377	2669
1680.43317810362	2652
1682.84229700171	2657
1685.25069144213	2610
1687.65836175872	2662
1690.06530828507	2650
1692.47153135451	2613
1694.87703130009	2686
1697.28180845467	2668
1699.6858631508	2673
1702.08919572081	2695
1704.49180649676	2692
1706.89369581049	2677
1709.29486399355	2645
1711.69531137731	2758
1714.09503829282	2647
1716.49404507095	2700
1718.89233204229	2664
1721.28989953721	2629
1723.68674788581	2673
1726.08287741798	2685
1728.47828846338	2751
1730.87298135139	2755
1733.26695641119	2717
1735.66021397173	2679
1738.05275436169	2723
1740.44457790954	2710
1742.83568494354	2707
1745.22607579168	2723
1747.61575078175	2716
1750.00471024128	2688
1752.39295449761	2747
1754.78048387783	2769
1757.16729870881	2716
1759.5533993172	2735
1761.93878602942	2749
1764.32345917168	2811
1766.70741906995	2756
1769.09066604999	2760
1771.47320043735	2818
1773.85502255735	2813
1776.2361327351	2859
1778.61653129548	2819
1780.99621856318	2763
1783.37519486264	2829
1785.75346051813	2892
1788.13101585368	2918
1790.5078611931	2812
1792.88399686002	2867
1795.25942317785	2895
1797.63414046977	2868
1800.00814905878	2890
1802.38144926766	2921
1804.75404141898	2841
1807.12592583514	2837
1809.49710283829	2853
1811.86757275039	2864
1814.23733589322	2900
1816.60639258834	2881
1818.97474315712	2871
1821.34238792073	2911
1823.70932720012	2930
1826.07556131608	2878
1828.44109058918	2874
1830.8059153398	2876
1833.17003588812	2869
1835.53345255413	2917
1837.89616565765	2901
1840.25817551827	2883
1842.61948245541	2919
1844.9800867883	2919
1847.33998883598	2914
1849.69918891729	2962
1852.05768735091	2934
1854.4154844553	2896
1856.77258054875	2957
1859.12897594938	2932
1861.4846709751	2920
1863.83966594366	2992
1866.19396117261	2975
1868.54755697932	2939
1870.90045368099	2966
1873.25265159463	2962
1875.60415103708	2977
1877.95495232501	3027
1880.30505577486	2993
1882.65446170299	2982
1885.00317042548	3057
1887.35118225832	3074
1889.69849751726	3111
1892.04511651792	3032
1894.39103957574	3082
1896.73626700596	3132
1899.08079912368	3106
1901.42463624384	3156
1903.76777868116	3083
1906.11022675025	3099
1908.4519807655	3074
1910.79304104117	3105
1913.13340789134	3168
1915.47308162992	3128
1917.81206257067	3176
1920.15035102718	3159
1922.48794731286	3141
1924.82485174096	3189
1927.16106462461	3121
1929.49658627672	3198
1931.83141701008	3148
1934.1655571373	3150
1936.49900697085	3226
1938.83176682301	3198
1941.16383700594	3194
1943.49521783161	3235
1945.82590961186	3195
1948.15591265835	3245
1950.48522728262	3148
1952.81385379602	3157
1955.14179250976	3227
1957.46904373489	3208
1959.79560778233	3143
1962.12148496284	3202
1964.44667558701	3157
1966.77117996529	3245
1969.09499840799	3170
1971.41813122527	3222
1973.74057872714	3214
1976.06234122345	3310
1978.38341902391	3240
1980.7038124381	3276
1983.02352177543	3283
1985.34254734518	3262
1987.66088945649	3254
1989.97854841833	3278
1992.29552453956	3293
1994.61181812887	3305
1996.92742949483	3277
1999.24235894586	3335
2001.55660679023	3346
2003.87017333608	3378
2006.18305889143	3307
2008.49526376413	3305
2010.80678826189	3355
2013.1176326923	3415
2015.42779736282	3357
2017.73728258075	3302
2020.04608865326	3433
2022.3542158874	3356
2024.66166459008	3465
2026.96843506807	3392
2029.274527628	3413
2031.57994257637	3376
2033.88468021957	3499
2036.18874086383	3499
2038.49212481526	3446
2040.79483237983	3432
2043.0968638634	3391
2045.39821957169	3446
2047.69889981028	3444
2049.99890488462	3480
2052.29823510006	3430
2054.59689076181	3486
2056.89487217492	3501
2059.19217964437	3423
2061.48881347497	3491
2063.7847739714	3490
2066.08006143826	3490
2068.37467618	3479
2070.66861850093	3471
2072.96188870527	3459
2075.25448709707	3549
2077.54641398031	3460
2079.83766965881	3454
2082.12825443629	3463
2084.41816861634	3466
2086.70741250242	3446
2088.99598639789	3481
2091.28389060597	3480
2093.57112542978	3419
2095.85769117232	3500
2098.14358813644	3422
2100.42881662491	3495
2102.71337694037	3527
2104.99726938532	3483
2107.28049426219	3513
2109.56305187325	3493
2111.84494252069	3475
2114.12616650655	3469
2116.40672413278	3544
2118.68661570121	3523
2120.96584151355	3545
2123.24440187138	3600
2125.52229707622	3507
2127.79952742943	3519
2130.07609323227	3537
2132.35199478588	3619
2134.62723239132	3543
2136.90180634949	3563
2139.17571696123	3574
2141.44896452723	3579
2143.72154934809	3513
2145.99347172429	3539
2148.26473195623	3648
2150.53533034415	3642
2152.80526718821	3591
2155.07454278848	3575
2157.3431574449	3612
2159.61111145728	3584
2161.87840512538	3574
2164.1450387488	3599
2166.41101262707	3614
2168.67632705959	3610
2170.94098234567	3616
2173.20497878451	3587
2175.46831667519	3607
2177.73099631672	3670
2179.99301800797	3591
2182.25438204772	3658
2184.51508873466	3659
2186.77513836735	3575
2189.03453124427	3614
2191.29326766378	3649
2193.55134792416	3670
2195.80877232355	3625
2198.06554116004	3618
2200.32165473157	3573
2202.577113336	3645
2204.83191727111	3593
2207.08606683453	3630
2209.33956232384	3588
2211.59240403648	3630
2213.84459226982	3664
2216.09612732112	3649
2218.34700948753	3617
2220.59723906612	3608
2222.84681635385	3604
2225.09574164758	3664
2227.34401524408	3667
2229.59163744002	3627
2231.83860853197	3662
2234.08492881639	3643
2236.33059858968	3631
2238.5756181481	3598
2240.81998778784	3647
2243.06370780499	3602
2245.30677849555	3653
2247.54920015539	3616
2249.79097308033	3545
2252.03209756607	3600
2254.27257390822	3611
2256.51240240228	3576
2258.75158334369	3637
2260.99011702777	3591
2263.22800374976	3637
2265.46524380477	3611
2267.70183748786	3628
2269.93778509399	3684
2272.17308691801	3652
2274.40774325467	3615
2276.64175439866	3700
2278.87512064454	3674
2281.10784228682	3615
2283.33991961987	3617
2285.571352938	3658
2287.80214253541	3625
2290.03228870623	3678
2292.26179174449	3579
2294.4906519441	3659
2296.71886959892	3676
2298.9464450027	3597
2301.1733784491	3670
2303.39967023169	3642
2305.62532064395	3659
2307.85032997926	3685
2310.07469853093	3644
2312.29842659216	3791
2314.52151445608	3722
2316.7439624157	3653
2318.96577076397	3661
2321.18693979374	3665
2323.40746979777	3644
2325.62736106873	3636
2327.8466138992	3643
2330.06522858166	3693
2332.28320540853	3704
2334.50054467212	3658
2336.71724666465	3697
2338.93331167827	3636
2341.14874000501	3685
2343.36353193685	3674
2345.57768776564	3702
2347.79120778319	3636
2350.00409228117	3661
2352.21634155121	3659
2354.42795588482	3735
2356.63893557342	3575
2358.84928090838	3638
2361.05899218094	3595
2363.26806968228	3633
2365.47651370347	3591
2367.68432453552	3656
2369.89150246933	3623
2372.09804779571	3665
2374.30396080541	3639
2376.50924178907	3619
2378.71389103725	3617
2380.91790884042	3705
2383.12129548897	3549
2385.3240512732	3599
2387.52617648332	3601
2389.72767140946	3612
2391.92853634165	3572
2394.12877156985	3581
2396.32837738392	3628
2398.52735407365	3662
2400.72570192873	3563
2402.92342123875	3574
2405.12051229325	3545
2407.31697538167	3617
2409.51281079333	3561
2411.70801881751	3555
2413.90259974339	3522
2416.09655386004	3614
2418.28988145648	3520
2420.48258282162	3531
2422.6746582443	3600
2424.86610801325	3535
2427.05693241713	3591
2429.24713174452	3500
2431.43670628389	3456
2433.62565632365	3613
2435.81398215212	3493
2438.00168405752	3532
2440.18876232799	3546
2442.37521725158	3578
2444.56104911628	3510
2446.74625820994	3518
2448.93084482038	3607
2451.1148092353	3602
2453.29815174233	3567
2455.480872629	3466
2457.66297218275	3444
2459.84445069097	3441
2462.02530844092	3491
2464.2055457198	3521
2466.38516281471	3518
2468.56416001267	3447
2470.74253760061	3448
2472.92029586537	3476
2475.09743509372	3476
2477.27395557232	3456
2479.44985758777	3460
2481.62514142655	3456
2483.79980737508	3431
2485.97385571969	3456
2488.14728674661	3434
2490.32010074198	3509
2492.49229799188	3423
2494.66387878228	3498
2496.83484339905	3475
2499.00519212802	3498
2501.17492525488	3481
2503.34404306528	3530
2505.51254584473	3479
2507.6804338787	3456
2509.84770745254	3496
2512.01436685153	3486
2514.18041236085	3505
2516.34584426561	3515
2518.51066285081	3482
2520.67486840138	3518
2522.83846120214	3541
2525.00144153784	3560
2527.16380969314	3513
2529.32556595261	3473
2531.48671060072	3519
2533.64724392186	3539
2535.80716620033	3505
2537.96647772034	3501
2540.12517876602	3424
2542.2832696214	3485
2544.44075057041	3519
2546.59762189691	3511
2548.75388388466	3428
2550.90953681735	3473
2553.06458097853	3509
2555.21901665172	3512
2557.37284412031	3479
2559.5260636676	3488
2561.67867557684	3413
2563.83068013113	3411
2565.98207761351	3430
2568.13286830695	3496
2570.28305249429	3402
2572.43263045829	3482
2574.58160248163	3453
2576.72996884689	3413
2578.87772983655	3393
2581.02488573303	3428
2583.1714368186	3415
2585.31738337549	3346
2587.46272568582	3442
2589.60746403161	3433
2591.75159869479	3439
2593.89512995722	3421
2596.03805810061	3405
2598.18038340665	3432
2600.32210615686	3413
2602.46322663274	3479
2604.60374511563	3465
2606.74366188683	3332
2608.88297722751	3415
2611.02169141875	3486
2613.15980474156	3432
2615.29731747681	3438
2617.43422990532	3440
2619.57054230779	3380
2621.70625496483	3401
2623.84136815694	3403
2625.97588216456	3432
2628.10979726799	3371
2630.24311374746	3430
2632.3758318831	3435
2634.50795195493	3465
2636.6394742429	3441
2638.77039902682	3516
2640.90072658645	3466
2643.0304572014	3468
2645.15959115123	3465
2647.28812871538	3456
2649.41607017319	3479
2651.5434158039	3426
2653.67016588665	3495
2655.79632070049	3455
2657.92188052436	3468
2660.04684563711	3492
2662.17121631749	3494
2664.29499284413	3504
2666.41817549558	3519
2668.54076455027	3443
2670.66276028656	3482
2672.78416298267	3395
2674.90497291675	3462
2677.02519036682	3423
2679.14481561082	3483
2681.26384892658	3471
2683.38229059182	3409
2685.50014088417	3489
2687.61740008114	3456
2689.73406846017	3477
2691.85014629854	3409
2693.96563387347	3537
2696.08053146206	3428
2698.1948393413	3470
2700.3085577881	3463
2702.42168707924	3458
2704.53422749139	3506
2706.64617930112	3472
2708.75754278492	3509
2710.86831821913	3472
2712.97850588002	3483
2715.08810604372	3526
2717.19711898628	3561
2719.30554498363	3571
2721.41338431158	3526
2723.52063724586	3549
2725.62730406206	3542
2727.73338503569	3548
2729.83888044213	3521
2731.94379055664	3506
2734.04811565441	3513
2736.15185601048	3520
2738.25501189979	3509
2740.35758359718	3533
2742.45957137738	3452
2744.56097551499	3524
2746.6617962845	3480
2748.7620339603	3495
2750.86168881666	3492
2752.96076112774	3436
2755.05925116758	3502
2757.15715921012	3501
2759.25448552917	3444
2761.35123039843	3495
2763.44739409148	3527
2765.5429768818	3462
2767.63797904275	3513
2769.73240084756	3473
2771.82624256934	3491
2773.91950448113	3523
2776.01218685579	3493
2778.10428996609	3462
2780.19581408469	3492
2782.28675948414	3544
2784.37712643683	3548
2786.46691521507	3472
2788.55612609104	3521
2790.64475933678	3462
2792.73281522425	3506
2794.82029402525	3511
2796.90719601149	3475
2798.99352145453	3480
2801.07927062583	3517
2803.16444379672	3476
2805.24904123841	3518
2807.33306322197	3512
2809.41651001838	3522
2811.49938189847	3536
2813.58167913296	3517
2815.66340199243	3592
2817.74455074734	3532
2819.82512566805	3597
2821.90512702475	3566
2823.98455508754	3530
2826.06341012637	3658
2828.14169241109	3710
2830.2194022114	3714
2832.29653979686	3882
2834.37310543694	4120
2836.44909940096	4242
2838.5245219581	4272
2840.59937337744	4251
2842.67365392791	4134
2844.74736387829	3983
2846.82050349727	3968
2848.8930730534	3811
2850.96507281506	3804
2853.03650305056	3879
2855.10736402802	3790
2857.17765601545	3867
2859.24737928074	4046
2861.31653409164	4193
2863.38512071574	4462
2865.45313942054	4605
2867.52059047335	4616
2869.58747414139	4642
2871.65379069173	4655
2873.7195403913	4789
2875.78472350688	4811
2877.84934030515	4888
2879.91339105262	5060
2881.97687601567	5177
2884.03979546053	5199
2886.10214965332	4958
2888.16393886	4819
2890.22516334639	4752
2892.28582337816	4661
2894.34591922087	4611
2896.40545113992	4643
2898.46441940054	4711
2900.52282426787	4659
2902.58066600687	4803
2904.63794488237	4895
2906.69466115906	4670
2908.75081510147	4719
2910.806406974	4632
2912.8614370409	4538
2914.91590556626	4569
2916.96981281404	4504
2919.02315904807	4491
2921.07594453199	4537
2923.12816952932	4516
2925.17983430343	4535
2927.23093911753	4472
2929.28148423469	4365
2931.33146991782	4285
2933.3808964297	4154
2935.42976403294	4001
2937.47807299	4045
2939.5258235632	3949
2941.57301601469	3961
2943.61965060648	4054
2945.66572760042	4233
2947.71124725823	4374
2949.75620984143	4549
2951.80061561143	4648
2953.84446482945	4636
2955.88775775656	4742
2957.9304946537	4894
2959.97267578162	4939
2962.01430140095	5070
2964.05537177211	4770
2966.09588715541	4558
2968.13584781097	4595
2970.17525399875	4421
2972.21410597859	4169
2974.25240401011	3965
2976.29014835283	3998
2978.32733926604	3900
2980.36397700892	3843
2982.40006184049	3855
2984.43559401955	3822
2986.4705738048	3829
2988.50500145473	3870
2990.53887722771	3765
2992.57220138189	3791
2994.6049741753	3750
2996.63719586576	3792
2998.66886671097	3775
3000.69998696843	3835
3002.73055689549	3804
3004.7605767493	3777
3006.79004678688	3768
3008.81896726505	3722
3010.84733844048	3782
3012.87516056966	3774
3014.9024339089	3765
3016.92915871433	3845
3018.95533524196	3860
3020.98096374756	3873
3023.00604448675	3810
3025.030577715	3866
3027.05456368757	3875
3029.07800265956	3791
3031.10089488589	3825
3033.12324062131	3831
3035.14504012038	3840
3037.16629363749	3784
3039.18700142685	3848
3041.20716374249	3801
3043.22678083826	3775
3045.24585296782	3844
3047.26438038468	3841
3049.28236334212	3901
3051.29980209329	3892
3053.31669689111	3921
3055.33304798835	3844
3057.34885563757	3925
3059.36412009117	3899
3061.37884160134	3859
3063.39302042011	3843
3065.40665679931	3887
3067.41975099058	3852
3069.43230324538	3882
3071.44431381495	3796
3073.45578295041	3913
3075.46671090261	3861
3077.47709792227	3896
3079.48694425989	3854
3081.49625016578	3883
3083.50501589008	3902
3085.5132416827	3913
3087.5209277934	3846
3089.52807447169	3866
3091.53468196695	3860
3093.54075052832	3876
3095.54628040476	3921
3097.55127184503	3850
3099.55572509769	3865
3101.55964041111	3853
3103.56301803346	3934
3105.5658582127	3894
3107.56816119661	3923
3109.56992723275	3963
3111.57115656849	3899
3113.571849451	3854
3115.57200612724	3963
3117.57162684397	3932
3119.57071184775	3894
3121.56926138493	3947
3123.56727570166	3952
3125.56475504389	3980
3127.56169965735	3898
3129.55810978757	3917
3131.55398567987	3994
3133.54932757937	3919
3135.54413573099	4050
3137.53841037939	3987
3139.53215176909	3939
3141.52536014435	4013
3143.51803574924	3985
3145.51017882762	3976
3147.50178962311	4012
3149.49286837916	4028
3151.48341533897	4004
3153.47343074553	4041
3155.46291484164	3990
3157.45186786985	4003
3159.44029007252	4060
3161.42818169179	4037
3163.41554296955	4006
3165.40237414753	3998
3167.38867546718	3999
3169.37444716975	4006
3171.35968949631	3971
3173.34440268764	3975
3175.32858698436	4117
3177.31224262682	4046
3179.29536985517	3964
3181.27796890934	4080
3183.26004002902	3958
3185.24158345368	4003
3187.22259942256	4023
3189.2030881747	4093
3191.18304994886	4002
3193.16248498363	4045
3195.14139351733	4012
3197.11977578807	3999
3199.09763203371	4020
3201.07496249191	4057
3203.05176740007	4067
3205.02804699537	4039
3207.00380151475	4070
3208.97903119493	4078
3210.95373627238	4093
3212.92791698335	4065
3214.90157356383	4122
3216.8747062496	4072
3218.84731527619	4115
3220.81940087889	4093
3222.79096329275	4151
3224.76200275259	4037
3226.73251949298	4139
3228.70251374825	4147
3230.67198575251	4096
3232.64093573959	4160
3234.6093639431	4030
3236.57727059641	4101
3238.54465593261	4162
3240.51152018461	4098
3242.47786358502	4184
3244.44368636621	4177
3246.40898876031	4094
3248.37377099923	4083
3250.33803331458	4128
3252.30177593775	4131
3254.26499909987	4232
3256.22770303184	4108
3258.18988796427	4156
3260.15155412755	4127
3262.1127017518	4181
3264.0733310669	4092
3266.03344230246	4141
3267.99303568784	4218
3269.95211145215	4160
3271.91066982422	4177
3273.86871103267	4210
3275.82623530581	4179
3277.7832428717	4227
3279.73973395818	4122
3281.69570879278	4107
3283.6511676028	4238
3285.60611061527	4242
3287.56053805694	4197
3289.51445015432	4224
3291.46784713364	4210
3293.42072922088	4182
3295.37309664173	4203
3297.32494962163	4165
3299.27628838575	4157
3301.227113159	4264
3303.17742416601	4160
3305.12722163114	4235
3307.07650577848	4274
3309.02527683185	4220
3310.9735350148	4192
3312.9212805506	4275
3314.86851366225	4221
3316.81523457249	4240
3318.76144350377	4244
3320.70714067825	4296
3322.65232631783	4220
3324.59700064415	4154
3326.54116387854	4177
3328.48481624207	4218
3330.42795795551	4234
3332.37058923938	4237
3334.31271031389	4190
3336.25432139898	4210
3338.19542271432	4117
3340.13601447927	4190
3342.07609691292	4212
3344.01567023407	4321
3345.95473466124	4152
3347.89329041266	4218
3349.83133770627	4160
3351.76887675973	4187
3353.70590779039	4173
3355.64243101534	4180
3357.57844665135	4184
3359.51395491492	4160
3361.44895602224	4161
3363.38345018922	4233
3365.31743763148	4152
3367.25091856432	4180
3369.18389320278	4182
3371.11636176156	4177
3373.0483244551	4205
3374.97978149754	4237
3376.91073310269	4222
3378.84117948409	4217
3380.77112085498	4247
3382.70055742826	4283
3384.62948941659	4251
3386.55791703227	4256
3388.48584048733	4225
3390.41325999348	4207
3392.34017576214	4280
3394.2665880044	4311
3396.19249693107	4197
3398.11790275263	4262
3400.04280567926	4234
3401.96720592084	4272
3403.89110368692	4267
3405.81449918675	4325
3407.73739262928	4260
3409.65978422311	4321
3411.58167417658	4328
3413.50306269768	4264
3415.42394999408	4264
3417.34433627316	4319
3419.26422174195	4353
3421.18360660721	4249
3423.10249107532	4266
3425.02087535239	4237
3426.93875964421	4171
3428.8561441562	4225
3430.77302909353	4240
3432.68941466097	4291
3434.60530106301	4258
3436.52068850383	4247
3438.43557718726	4211
3440.34996731681	4240
3442.26385909565	4191
3444.17725272664	4261
3446.09014841231	4297
3448.00254635486	4220
3449.91444675614	4214
3451.82584981771	4230
3453.73675574076	4196
3455.64716472616	4245
3457.55707697445	4258
3459.46649268584	4142
3461.37541206018	4215
3463.28383529703	4233
3465.19176259555	4220
3467.09919415464	4220
3469.00613017278	4177
3470.91257084817	4180
3472.81851637863	4193
3474.72396696168	4200
3476.62892279446	4167
3478.53338407379	4159
3480.43735099614	4137
3482.34082375764	4105
3484.24380255404	4266
3486.1462875808	4205
3488.048279033	4202
3489.94977710537	4196
3491.85078199231	4093
3493.75129388783	4215
3495.65131298566	4137
3497.5508394791	4176
3499.44987356115	4110