201.866871357051	5271.5
204.754250281454	5284
207.640596790938	5285.25
210.525911876299	5280.5
213.410196525689	5303.75
216.293451724508	5276
219.175678455485	5310.25
222.056877698662	5297
224.937050431388	5272.25
227.816197628363	5314.25
230.694320261602	5335.5
233.571419300504	5322.75
236.447495711764	5368
239.322550459507	5357
242.196584505182	5419
245.069598807626	5414.5
247.941594323078	5392.5
250.812572005154	5428.5
253.682532804884	5480
256.551477670699	5452.25
259.419407548456	5436.75
262.286323381439	5431.25
265.152226110364	5454.25
268.017116673389	5426.5
270.880996006115	5451.5
273.743865041622	5471.75
276.605724710436	5482.5
279.466575940562	5481.25
282.326419657496	5489.25
285.1852567842	5513.5
288.043088241157	5476
290.899914946349	5539
293.75573781526	5501.5
296.610557760898	5511
299.464375693817	5552.5
302.317192522078	5461.5
305.169009151297	5465.5
308.019826484655	5496
310.86964542287	5531.25
313.718466864233	5478.5
316.566291704614	5489.25
319.413120837457	5534.75
322.258955153804	5543
325.103795542291	5447.5
327.947642889128	5499.75
330.79049807819	5480.5
333.632361990927	5500.75
336.473235506444	5461.75
339.31311950145	5504.25
342.152014850322	5507.25
344.989922425062	5572.5
347.826843095354	5563
350.662777728528	5567.25
353.497727189577	5631.25
356.331692341195	5593.25
359.164674043732	5574.25
361.996673155267	5633.5
364.827690531536	5655.75
367.65772702602	5648
370.486783489887	5654.25
373.314860772047	5624.5
376.14195971912	5678.25
378.968081175466	5623.75
381.793225983212	5636.5
384.617394982201	5624.75
387.44058901005	5674.25
390.262808902131	5673
393.08405549161	5672
395.904329609395	5633.5
398.723632084213	5652.25
401.541963742569	5665
404.359325408779	5649
407.175717904938	5640.5
409.991142050982	5665
412.805598664665	5612.5
415.619088561551	5659
418.43161255505	5654.25
421.243171456415	5706.25
424.053766074758	5704
426.863397217017	5723.75
429.672065688024	5712.5
432.479772290455	5704
435.286517824879	5720.25
438.092303089736	5734.5
440.897128881359	5759.25
443.70099599399	5743.25
446.503905219761	5743.5
449.305857348711	5724
452.106853168796	5728.75
454.906893465919	5703.75
457.705979023885	5709
460.504110624439	5725.75
463.3012890473	5673.75
466.097515070087	5713.25
468.892789468424	5696
471.687113015869	5658.5
474.48048648395	5673.25
477.272910642198	5667
480.064386258109	5675
482.854914097159	5682.5
485.644494922839	5681.5
488.433129496636	5739.5
491.220818578047	5723.25
494.007562924584	5715
496.793363291785	5750
499.578220433217	5820.5
502.362135100473	5811.75
505.145108043209	5796.5
507.927140009098	5802.75
510.708231743909	5772.5
513.488383991433	5783.5
516.267597493556	5851.75
519.04587299022	5771.25
521.82321121946	5829.5
524.599612917398	5794.75
527.375078818233	5822.5
530.149609654287	5798
532.923206155967	5799.5
535.695869051804	5808.5
538.467599068448	5746.25
541.238396930665	5732
544.008263361364	5742.25
546.777199081578	5668
549.545204810493	5687
552.312281265436	5719.5
555.078429161898	5730.25
557.843649213533	5746.5
560.607942132156	5678.5
563.371308627753	5708.25
566.133749408495	5714.25
568.895265180756	5807
571.655856649064	5719.75
574.415524516189	5773.5
577.174269483075	5785
579.932092248884	5874.25
582.688993510994	5856.75
585.444973965023	5749.75
588.200034304795	5820
590.95417522237	5781.75
593.70739740807	5809.75
596.459701550433	5815.75
599.21108833628	5790.5
601.961558450668	5846.5
604.711112576933	5780.5
607.459751396673	5744.75
610.207475589748	5765.25
612.954285834338	5796.75
615.700182806879	5787.25
618.445167182101	5728.75
621.189239633055	5710.5
623.932400831087	5750.5
626.674651445839	5668.75
629.415992145303	5728.25
632.156423595745	5690.25
634.895946461813	5682
637.634561406449	5678.25
640.37226909096	5682.75
643.109070174978	5711
645.844965316508	5765.5
648.579955171888	5704.25
651.314040395846	5711.75
654.047221641456	5730.25
656.779499560176	5739.25
659.510874801828	5743.5
662.241348014642	5715.75
664.97091984524	5779.75
667.699590938606	5753.5
670.427361938164	5761.25
673.15423348573	5745.5
675.880206221526	5791
678.605280784206	5827.25
681.329457810829	5797.5
684.05273793692	5733.25
686.775121796389	5782
689.49661002163	5792
692.217203243454	5768.75
694.936902091144	5727.25
697.655707192425	5783
700.373619173493	5723.5
703.09063865901	5681.25
705.806766272093	5705.25
708.522002634378	5717
711.236348365946	5726.25
713.94980408538	5724.75
716.662370409762	5688
719.374047954676	5700.75
722.08483733419	5719
724.794739160909	5707.5
727.503754045949	5692.25
730.21188259892	5752.5
732.919125427998	5742
735.625483139855	5759.5
738.330956339723	5717.25
741.035545631374	5737
743.739251617106	5787.25
746.44207489779	5808.5
749.144016072852	5792.75
751.845075740272	5843
754.545254496603	5810.75
757.244552936976	5865.5
759.94297165508	5786.25
762.640511243222	5812.75
765.337172292249	5843.5
768.032955391649	5794.75
770.727861129482	5832.25
773.421890092413	5844.75
776.11504286572	5803.25
778.807320033298	5819.25
781.49872217765	5801.5
784.18924987991	5765.5
786.87890371984	5740
789.567684275826	5806.75
792.255592124908	5745
794.94262784276	5732.75
797.628792003703	5797.5
800.314085180715	5724.75
802.998507945427	5807.75
805.682060868145	5828.75
808.364744517821	5882
811.046559462105	5872.25
813.727506267311	5815.5
816.407585498422	5848.25
819.08679771913	5792.25
821.765143491822	5827.5
824.442623377563	5817.5
827.119237936127	5910
829.794987726003	5825.25
832.469873304377	5893.5
835.143895227167	5875.25
837.817054048985	5886.25
840.489350323205	5887.5
843.160784601892	5918.5
845.831357435894	5934.75
848.501069374739	5889.75
851.169920966753	5910.5
853.837912758987	5898.5
856.505045297232	5931
859.171319126071	5973.5
861.836734788823	5925.25
864.501292827579	5981
867.164993783208	5868.5
869.827838195361	5875.5
872.489826602454	5904
875.150959541701	5964.5
877.811237549104	5876
880.470661159456	5925.25
883.129230906357	5879.5
885.786947322205	5902.25
888.443810938206	5914.5
891.099822284385	5908.25
893.754981889586	5912
896.409290281452	5945.75
899.062747986485	5972.25
901.715355529999	6003.5
904.367113436154	5958
907.01802222793	5999.5
909.668082427172	5923.75
912.317294554574	6012.75
914.965659129659	6050.75
917.613176670835	6038.75
920.259847695364	6040.25
922.90567271936	6029.75
925.550652257825	6093.5
928.194786824621	6063.75
930.838076932512	6124
933.480523093109	6074.75
936.122125816953	6067.25
938.762885613447	6117
941.402802990899	6135.5
944.041878456523	6132.75
946.680112516428	6142
949.31750567563	6154.5
951.954058438081	6228
954.589771306633	6206.25
957.224644783048	6169
959.858679368044	6209.5
962.491875561238	6203.5
965.12423386121	6198.5
967.75575476545	6210.75
970.386438770423	6184.75
973.016286371501	6246.75
975.645298063046	6226.25
978.273474338355	6216.75
980.900815689674	6238.25
983.527322608243	6214
986.152995584245	6292.25
988.777835106834	6307.25
991.401841664148	6292.5
994.025015743307	6269.25
996.647357830407	6288.25
999.268868410534	6302.5
1001.88954796777	6311.75
1004.50939698518	6349.25
1007.12841594484	6346.5
1009.74660532783	6402.5
1012.36396561423	6477.5
1014.98049728314	6442.5
1017.59620081267	6410.25
1020.21107667995	6477.5
1022.82512536112	6475.75
1025.43834733138	6502.25
1028.05074306493	6518.5
1030.66231303501	6525.25
1033.27305771392	6554.25
1035.88297757299	6608.75
1038.49207308257	6604.75
1041.10034471211	6559.25
1043.70779293008	6619.5
1046.31441820402	6627.25
1048.92022100052	6614
1051.52520178525	6700.75
1054.12936102295	6735.25
1056.73269917742	6714.75
1059.33521671154	6756.25
1061.93691408729	6730.75
1064.53779176571	6760.5
1067.13785020694	6739.75
1069.73708987022	6715.5
1072.33551121386	6770.25
1074.93311469528	6745.25
1077.52990077103	6762.5
1080.12586989674	6760.75
1082.72102252714	6827.5
1085.31535911611	6873
1087.90888011663	6898.75
1090.50158598078	6832.25
1093.09347715979	6853.5
1095.68455410403	6865
1098.27481726296	6877.75
1100.86426708523	6911.5
1103.45290401857	6917
1106.04072850991	6942.5
1108.6277410053	6944.25
1111.21394194993	6921.5
1113.79933178816	7009.75
1116.3839109635	7061.25
1118.96767991862	7075.5
1121.55063909539	7070.5
1124.13278893477	7110.5
1126.71412987696	7184
1129.29466236132	7189.25
1131.87438682637	7209
1134.45330370982	7288
1137.03141344858	7265.5
1139.60871647872	7324.5
1142.18521323554	7278
1144.7609041535	7296.5
1147.33578966629	7434.25
1149.90987020676	7421.75
1152.48314620702	7429.5
1155.05561809835	7432.25
1157.62728631125	7451.75
1160.19815127545	7502.5
1162.76821341988	7480
1165.33747317271	7499
1167.90593096133	7503.75
1170.47358721235	7524.5
1173.04044235163	7558.5
1175.60649680425	7548.25
1178.17175099454	7566.25
1180.73620534607	7565.5
1183.29986028165	7559.75
1185.86271622336	7597.25
1188.42477359249	7596.5
1190.98603280964	7635.5
1193.54649429462	7588.75
1196.10615846653	7650.5
1198.66502574372	7674.5
1201.22309654385	7695
1203.78037128378	7651.25
1206.33685037971	7731.75
1208.89253424709	7724.25
1211.44742330063	7725.5
1214.00151795438	7788
1216.55481862163	7827
1219.10732571497	7860.5
1221.65903964631	7927.5
1224.20996082683	7911
1226.760089667	7959.5
1229.30942657664	7990.5
1231.85797196483	8102.25
1234.40572623998	8074.5
1236.95268980981	8141.75
1239.49886308136	8185.5
1242.04424646098	8227.25
1244.58884035435	8309.75
1247.13264516647	8383.25
1249.67566130166	8386.25
1252.21788916358	8392.5
1254.75932915524	8544.25
1257.29998167896	8620.5
1259.83984713639	8579.75
1262.37892592857	8600.25
1264.91721845586	8657.25
1267.45472511795	8695.25
1269.9914463139	8722.5
1272.52738244213	8826
1275.0625339004	8774.25
1277.59690108587	8891.25
1280.130484395	8938.75
1282.66328422367	8984.25
1285.19530096712	8979.75
1287.72653501993	9075.75
1290.25698677608	9085.5
1292.78665662894	9183
1295.31554497125	9224.5
1297.8436521951	9311.75
1300.37097869203	9314.25
1302.89752485292	9318.25
1305.42329106805	9340
1307.94827772713	9437
1310.47248521921	9486.75
1312.99591393279	9589
1315.51856425575	9623.5
1318.04043657536	9670
1320.56153127836	9726.25
1323.08184875083	9756.25
1325.6013893783	9852.25
1328.12015354572	10007.75
1330.63814163744	9999.25
1333.15535403727	10096
1335.67179112839	10229.25
1338.18745329347	10219
1340.70234091454	10339.5
1343.21645437314	10298.75
1345.72979405019	10450.5
1348.24236032607	10482.5
1350.75415358059	10715.5
1353.26517419303	10666.5
1355.7754225421	10714.5
1358.28489900594	10813
1360.79360396218	10919.5
1363.30153778787	10973.25
1365.80870085955	11029.25
1368.31509355319	11069.75
1370.82071624424	11098
1373.32556930762	11157.25
1375.8296531177	11248
1378.33296804832	11252.5
1380.83551447282	11207.5
1383.33729276399	11318
1385.83830329408	11391.5
1388.33854643489	11474.25
1390.83802255762	11441.25
1393.33673203301	11493.75
1395.83467523128	11582.5
1398.33185252211	11642.25
1400.82826427471	11746.75
1403.32391085777	11749.75
1405.81879263947	11793
1408.31290998752	11895.25
1410.80626326908	11889.5
1413.29885285087	11960.25
1415.79067909909	12064.5
1418.28174237944	12173
1420.77204305717	12294.25
1423.26158149702	12324.5
1425.75035806323	12464.25
1428.2383731196	12569
1430.72562702942	12633.5
1433.21212015554	12844.5
1435.69785286028	12937.25
1438.18282550555	13114.75
1440.66703845275	13191
1443.15049206284	13283.75
1445.6331866963	13431
1448.11512271316	13575.75
1450.59630047298	13685.25
1453.07672033486	13844.25
1455.55638265748	13970.25
1458.03528779902	14129
1460.51343611725	14219
1462.99082796946	14336.5
1465.46746371252	14298.25
1467.94334370285	14515.75
1470.41846829642	14445.75
1472.89283784878	14694.5
1475.36645271503	14812.5
1477.83931324983	14840
1480.31141980743	14955.75
1482.78277274164	15068.75
1485.25337240583	15007.25
1487.72321915297	15121
1490.19231333557	15216.75
1492.66065530578	15325.5
1495.12824541525	15414.75
1497.5950840153	15526.25
1500.06117145678	15577.5
1502.52650809014	15760.25
1504.99109426543	15709
1507.45493033227	15849.25
1509.91801663992	15903
1512.38035353717	16099.75
1514.84194137248	16139.75
1517.30278049386	16375.25
1519.76287124894	16536.5
1522.22221398497	16398.25
1524.68080904876	16580
1527.13865678681	16654.5
1529.59575754514	16872
1532.05211166945	17072.75
1534.50771950503	17142.75
1536.96258139678	17325.75
1539.41669768924	17460.75
1541.87006872656	17573.75
1544.32269485252	17740.5
1546.77457641051	17769.25
1549.22571374357	18135.5
1551.67610719434	18231.75
1554.12575710513	18306
1556.57466381785	18463.5
1559.02282767408	18583.25
1561.47024901499	18681
1563.91692818144	18950.25
1566.3628655139	19080.75
1568.80806135249	19154
1571.252516037	19360.25
1573.6962299068	19675
1576.13920330099	19644.5
1578.58143655828	19870.5
1581.02293001704	20128.75
1583.46368401528	20024
1585.90369889071	20267.5
1588.34297498065	20388
1590.7815126221	20520.75
1593.21931215173	20642.5
1595.65637390588	20701
1598.09269822053	20646
1600.52828543135	20834.75
1602.96313587367	20851
1605.3972498825	20793.75
1607.83062779252	20775.25
1610.26326993808	20904
1612.69517665322	20916.25
1615.12634827165	21112
1617.55678512676	21003.25
1619.98648755163	21033.25
1622.41545587902	21047.75
1624.84369044138	21157
1627.27119157085	21389.5
1629.69795959924	21367.25
1632.12399485808	21591.75
1634.54929767859	21696.25
1636.97386839165	21773.75
1639.39770732789	21749
1641.8208148176	21887.75
1644.24319119078	21953
1646.66483677715	22074.5
1649.0857519061	22200.5
1651.50593690677	22246.75
1653.92539210795	22397.25
1656.3441178382	22347.25
1658.76211442575	22514.5
1661.17938219855	22557.75
1663.59592148428	22864.75
1666.01173261032	22853
1668.42681590377	23171.75
1670.84117169145	23165.75
1673.25480029991	23164.75
1675.66770205541	23364.75
1678.07987728393	23492.75
1680.49132631119	23726.75
1682.90204946263	23747
1685.31204706342	23830.75
1687.72131943846	23997.75
1690.1298669124	24054.5
1692.53768980957	24334.5
1694.94478845411	24214.5
1697.35116316982	24221.75
1699.75681428031	24308.25
1702.16174210887	24392.5
1704.56594697858	24518.75
1706.96942921222	24789
1709.37218913235	24707.75
1711.77422706125	24655.5
1714.17554332098	24631.5
1716.5761382333	24855.5
1718.97601211977	24725
1721.37516530169	24824.75
1723.77359810006	24895.25
1726.17131083572	24872
1728.56830382922	25109
1730.96457740087	24951
1733.36013187075	24933.5
1735.75496755868	25072.25
1738.14908478428	25185.25
1740.54248386689	25295.5
1742.93516512565	25263
1745.32712887946	25367.5
1747.71837544697	25327.25
1750.10890514662	25487.5
1752.49871829661	25531.5
1754.88781521492	25617.75
1757.27619621929	25773
1759.66386162726	25721.75
1762.05081175612	25920.5
1764.43704692297	25981.75
1766.82256744465	26007
1769.20737363782	26185.75
1771.59146581887	26108
1773.97484430405	26427.5
1776.35750940932	26477.5
1778.73946145048	26533.75
1781.12070074309	26656
1783.50122760249	26834.25
1785.88104234385	27011.75
1788.26014528209	27070.5
1790.63853673196	27124.5
1793.01621700796	27265.75
1795.39318642443	27379.75
1797.76944529549	27436.75
1800.14499393503	27592.75
1802.51983265681	27464.25
1804.8939617743	27777.5
1807.26738160085	27950.25
1809.64009244957	27963
1812.01209463339	27797.75
1814.38338846504	28179.25
1816.75397425706	28068.75
1819.12385232181	28176.25
1821.49302297142	28437.25
1823.86148651789	28359.75
1826.22924327299	28271.75
1828.59629354831	28574.25
1830.96263765526	28496.75
1833.32827590507	28579.25
1835.69320860877	28694.25
1838.05743607724	28832.5
1840.42095862113	28738.5
1842.78377655097	28898.25
1845.14589017707	28658
1847.50729980956	28748.5
1849.86800575843	28890.75
1852.22800833346	28999.75
1854.58730784427	28944.25
1856.94590460032	29332
1859.30379891087	29278.5
1861.66099108503	29360
1864.01748143175	29595.5
1866.37327025978	29673.75
1868.72835787773	29606.25
1871.08274459403	29751
1873.43643071697	29903.75
1875.78941655464	30098.5
1878.14170241498	30047.75
1880.4932886058	30342.5
1882.84417543469	30649.75
1885.19436320915	30564.5
1887.54385223646	30566.75
1889.89264282378	30900.5
1892.24073527809	30959.75
1894.58812990625	31180.25
1896.93482701493	31428.5
1899.28082691067	31373.5
1901.62612989984	31644.5
1903.97073628868	31739
1906.31464638326	31921
1908.6578604895	32073.75
1911.00037891321	32311
1913.34220196	32497.75
1915.68332993537	32686
1918.02376314468	32433
1920.36350189311	32542
1922.70254648573	32610.5
1925.04089722744	32639.5
1927.37855442303	32605.25
1929.71551837715	32865.25
1932.05178939426	32850.25
1934.38736777876	32803.5
1936.72225383484	32808
1939.0564478666	33280
1941.38995017799	32969
1943.72276107283	33285.75
1946.05488085479	33114.5
1948.38630982744	32920.25
1950.71704829419	33287.5
1953.04709655832	32971
1955.376454923	33034.75
1957.70512369126	33152.75
1960.03310316599	33221.75
1962.36039364999	33138
1964.68699544589	33312.75
1967.01290885622	33528.5
1969.33813418338	33656.25
1971.66267172965	33649.75
1973.98652179718	33787.75
1976.309684688	33870.5
1978.63216070402	34050.75
1980.95395014705	34573.5
1983.27505331873	34099
1985.59547052063	34315.75
1987.9152020542	34524.25
1990.23424822074	34395.25
1992.55260932146	34558.75
1994.87028565746	34704.75
1997.18727752968	34861.25
1999.503585239	35120
2001.81920908618	35045.75
2004.13414937184	35264.25
2006.44840639651	35832.25
2008.7619804606	35816.25
2011.07487186442	36124.75
2013.38708090815	36499.75
2015.6986078919	36347.5
2018.00945311564	36574.5
2020.31961687923	36630.75
2022.62909948246	36887.5
2024.93790122498	36909.25
2027.24602240636	37126
2029.55346332604	37246.25
2031.86022428337	37373.75
2034.16630557761	37582
2036.47170750791	37499.25
2038.77643037331	37680.5
2041.08047447275	37971
2043.38384010509	37571.25
2045.68652756907	38028
2047.98853716335	38033.75
2050.28986918648	38003.5
2052.59052393692	38174.75
2054.89050171302	38435.5
2057.18980281306	38532.5
2059.4884275352	38639.5
2061.78637617753	38484.75
2064.08364903802	38567.25
2066.38024641457	38623.75
2068.67616860497	38665.5
2070.97141590694	38646.25
2073.26598861809	38832.25
2075.55988703595	38612
2077.85311145796	38764.25
2080.14566218145	38885.25
2082.43753950371	38935.5
2084.72874372188	38963
2087.01927513307	38869.5
2089.30913403428	39056.25
2091.59832072241	38974.25
2093.88683549429	38880.5
2096.17467864666	39199
2098.46185047619	39268
2100.74835127944	39427
2103.03418135292	39571
2105.31934099303	39090.5
2107.6038304961	39591.75
2109.88765015838	39598.75
2112.17080027602	39524.5
2114.45328114513	39886.75
2116.7350930617	39919.75
2119.01623632165	39970
2121.29671122085	39764.25
2123.57651805505	40117.5
2125.85565711996	40224.5
2128.13412871117	40218
2130.41193312424	40389
2132.68907065462	40423
2134.96554159771	40504.5
2137.24134624881	40461.25
2139.51648490317	40768
2141.79095785593	40747
2144.0647654022	40782.75
2146.33790783698	40793
2148.61038545524	40526.5
2150.88219855182	41096.25
2153.15334742154	40799.25
2155.42383235911	40944
2157.6936536592	40982.5
2159.9628116164	40800.25
2162.23130652522	40773.75
2164.49913868011	40685
2166.76630837544	40696.5
2169.03281590552	40852.25
2171.2986615646	40699.25
2173.56384564685	40564.25
2175.82836844637	40350
2178.0922302572	40510
2180.35543137332	40458.5
2182.61797208862	40362.5
2184.87985269695	40057
2187.14107349208	40089.75
2189.40163476773	40470.75
2191.66153681753	40065.5
2193.92077993507	39811.25
2196.17936441386	39867.5
2198.43729054735	39899.75
2200.69455862894	39746.25
2202.95116895194	39845
2205.20712180962	39514.5
2207.46241749519	39396.5
2209.71705630179	39600.5
2211.97103852248	39351
2214.2243644503	39377.75
2216.47703437819	39170.75
2218.72904859905	38861.75
2220.98040740571	39255.5
2223.23111109095	38892.25
2225.4811599475	38569.25
2227.73055426799	38679.25
2229.97929434504	38396.5
2232.22738047118	38154.25
2234.47481293889	38149.25
2236.72159204058	38454.75
2238.96771806864	38192.5
2241.21319131536	37879.25
2243.458012073	37675.25
2245.70218063374	37792
2247.94569728973	37816.25
2250.18856233304	37501.75
2252.4307760557	37186.75
2254.67233874967	37137
2256.91325070687	37092
2259.15351221915	36893.25
2261.39312357831	36835.25
2263.63208507611	36572.75
2265.87039700422	36551.75
2268.1080596543	36686.25
2270.34507331792	36439.75
2272.5814382866	36337.25
2274.81715485183	36315.75
2277.05222330502	36194.5
2279.28664393755	36099.25
2281.52041704072	35821.75
2283.75354290581	36030.75
2285.98602182401	35698
2288.21785408648	35528.5
2290.44903998434	35496
2292.67957980862	35566.5
2294.90947385033	35274
2297.1387224004	35169.5
2299.36732574975	35271.75
2301.59528418921	35106
2303.82259800958	34998.5
2306.04926750158	34887.5
2308.27529295593	34631
2310.50067466325	34749.5
2312.72541291412	34682.25
2314.9495079991	34357
2317.17296020866	34184.5
2319.39576983323	34342
2321.61793716322	34225
2323.83946248894	33912.75
2326.06034610069	33860.5
2328.28058828871	33774.75
2330.50018934317	33666.5
2332.7191495542	33523
2334.93746921192	33429.75
2337.15514860633	33258.5
2339.37218802743	33004
2341.58858776516	32792
2343.80434810941	32778.75
2346.01946935001	32838.25
2348.23395177675	32465.75
2350.44779567939	32564.75
2352.66100134759	32303
2354.87356907101	32352
2357.08549913925	32081.75
2359.29679184185	31961.25
2361.50744746829	32004.75
2363.71746630804	31901.25
2365.92684865048	31514.5
2368.13559478499	31484.5
2370.34370500083	31443.25
2372.55117958727	31292.25
2374.75801883352	31144.5
2376.96422302874	31000.25
2379.16979246202	31061.5
2381.37472742243	30726.25
2383.57902819898	30720.25
2385.78269508063	30562
2387.98572835629	30471.75
2390.18812831482	30327.5
2392.38989524505	30332.75
2394.59102943573	30300.5
2396.79153117559	30151
2398.9914007533	29982.25
2401.19063845748	30075
2403.38924457672	29794.5
2405.58721939951	29742.25
2407.78456321435	29565.25
2409.98127630966	29451.25
2412.17735897382	29447.5
2414.37281149517	29342.25
2416.56763416198	29237.25
2418.76182726249	29303.75
2420.95539108487	29010.75
2423.14832591726	29108.25
2425.34063204776	28784.25
2427.53230976439	28721
2429.72335935513	28745
2431.91378110795	28609
2434.10357531071	28500
2436.29274225125	28544.5
2438.48128221739	28215
2440.66919549683	28141.25
2442.8564823773	28051.25
2445.04314314641	28031.5
2447.22917809176	27990.25
2449.4145875009	28050.25
2451.59937166131	27741.75
2453.78353086044	27776.25
2455.96706538568	27776.25
2458.14997552436	27663.5
2460.33226156379	27470.75
2462.51392379119	27423
2464.69496249376	27158.5
2466.87537795862	27097.75
2469.05517047288	27060.75
2471.23434032357	27019.75
2473.41288779767	27169.75
2475.59081318211	26815.75
2477.76811676378	26797.25
2479.9447988295	26667
2482.12085966605	26453.5
2484.29629956016	26584
2486.4711187985	26487.75
2488.64531766769	26501.75
2490.8188964543	26490
2492.99185544484	26237
2495.16419492579	26300.75
2497.33591518353	26077.25
2499.50701650444	26108.75
2501.67749917482	26229.25
2503.84736348091	25889.5
2506.01660970891	25959.25
2508.18523814496	25766.5
2510.35324907514	25855.75
2512.52064278551	25931.25
2514.68741956201	25811.75
2516.85357969058	26094.75
2519.01912345709	25914
2521.18405114735	25640
2523.34836304711	25646
2525.51205944208	25662.25
2527.6751406179	25649.75
2529.83760686016	25569
2531.99945845439	25634
2534.16069568606	25674.75
2536.3213188406	25516.5
2538.48132820336	25284.5
2540.64072405965	25403.25
2542.79950669471	25315.5
2544.95767639373	25524.25
2547.11523344184	25303.75
2549.27217812411	25101.25
2551.42851072555	25198.5
2553.58423153111	25074.25
2555.73934082569	24862.75
2557.89383889412	24927.25
2560.04772602118	24892
2562.20100249158	24717.75
2564.35366858996	24674.5
2566.50572460093	24582.25
2568.65717080901	24489.25
2570.80800749867	24475
2572.95823495433	24346.25
2575.10785346031	24223.75
2577.25686330093	24076.75
2579.40526476038	23833.75
2581.55305812282	23966.75
2583.70024367237	23787
2585.84682169303	23779.75
2587.99279246879	23779.75
2590.13815628354	23598.25
2592.28291342112	23571.5
2594.42706416531	23654
2596.5706087998	23493.25
2598.71354760826	23696.25
2600.85588087425	23572.75
2602.99760888127	23534.75
2605.13873191278	23346.75
2607.27925025214	23278.5
2609.41916418269	23372
2611.55847398764	23367.25
2613.69717995017	23351.5
2615.83528235339	23503.25
2617.97278148034	23524.5
2620.10967761398	23452.25
2622.2459710372	23384.5
2624.38166203284	23438
2626.51675088365	23287.5
2628.65123787231	23266.25
2630.78512328145	23347
2632.9184073936	23203.75
2635.05109049124	23258.5
2637.18317285676	23138.75
2639.31465477248	23264.25
2641.44553652067	23227.5
2643.5758183835	23170.25
2645.70550064309	23159.5
2647.83458358144	23251.25
2649.96306748053	23253
2652.09095262223	23279.5
2654.21823928836	23273.5
2656.34492776063	23146
2658.47101832071	23137.25
2660.59651125015	23196.75
2662.72140683047	23238.75
2664.84570534309	23070.5
2666.96940706934	23107.75
2669.0925122905	22981.5
2671.21502128773	23067.75
2673.33693434215	23112.25
2675.45825173479	23029.5
2677.57897374658	22959.25
2679.69910065839	23099
2681.818632751	22966
2683.93757030511	23011
2686.05591360133	23006
2688.17366292021	22919.25
2690.29081854218	22961.25
2692.40738074762	22755.25
2694.52334981681	22885
2696.63872602995	22707
2698.75350966713	22919.25
2700.86770100841	22929
2702.98130033371	22713.5
2705.09430792289	22669
2707.20672405571	22788.5
2709.31854901185	22893.25
2711.42978307091	22761
2713.54042651238	22830.25
2715.65047961567	22886.5
2717.7599426601	22819.75
2719.86881592491	22849.25
2721.97709968924	22915
2724.08479423213	22732
2726.19189983255	22780.5
2728.29841676934	22782.5
2730.4043453213	23047.75
2732.5096857671	23044.5
2734.61443838532	22849.75
2736.71860345444	22848.5
2738.82218125286	22829
2740.92517205889	23014.5
2743.02757615072	23079.75
2745.12939380646	22870.75
2747.23062530411	22930.75
2749.33127092159	23170.25
2751.4313309367	22845.25
2753.53080562716	23153.5
2755.62969527058	23167
2757.72800014448	22959.5
2759.82572052625	23078
2761.92285669323	22809.5
2764.0194089226	23070.5
2766.11537749147	23047.75
2768.21076267686	23098.5
2770.30556475566	23003.5
2772.39978400465	23065
2774.49342070054	22995.75
2776.58647511991	23164.5
2778.67894753923	23130
2780.77083823487	23239.5
2782.8621474831	23005.25
2784.95287556007	23069.25
2787.04302274184	23016.25
2789.13258930433	23163.25
2791.22157552338	22976.25
2793.30998167471	23035
2795.39780803392	23280.5
2797.4850548765	23251.25
2799.57172247786	23093.25
2801.65781111324	23081.5
2803.74332105781	23239.75
2805.82825258661	23219.25
2807.91260597457	23220
2809.9963814965	23189.75
2812.07957942711	23304.5
2814.16220004096	23112.75
2816.24424361252	23227.25
2818.32571041614	23288.75
2820.40660072604	23354.25
2822.48691481631	23421.5
2824.56665296098	23516
2826.64581543388	23394
2828.72440250876	23576.75
2830.80241445925	23561.5
2832.87985155885	23625.5
2834.95671408093	23802
2837.03300229875	23832
2839.10871648544	23849.25
2841.18385691399	24024.75
2843.25842385729	24026
2845.33241758808	23899.5
2847.40583837898	24148.25
2849.4786865025	24204
2851.550962231	24192.5
2853.6226658367	24235.75
2855.69379759173	24201.25
2857.76435776806	24366
2859.83434663753	24288.5
2861.90376447184	24377.25
2863.97261154259	24489.25
2866.0408881212	24617.25
2868.10859447901	24559.25
2870.17573088717	24785.5
2872.24229761673	24713.25
2874.30829493859	24731
2876.37372312352	24697.75
2878.43858244215	24927.5
2880.50287316496	24856.5
2882.56659556231	24918.5
2884.62974990439	25063
2886.69233646129	25046
2888.75435550293	25115.25
2890.81580729909	25108.25
2892.87669211941	25078.5
2894.93701023339	25137.75
2896.99676191039	25212.5
2899.05594741961	25384.75
2901.1145670301	25234.75
2903.1726210108	25203.25
2905.23010963045	25361.5
2907.28703315768	25316.5
2909.34339186096	25356
2911.39918600861	25376.5
2913.45441586879	25247.75
2915.50908170952	25350.5
2917.56318379867	25340.75
2919.61672240395	25536
2921.66969779291	25475.75
2923.72211023295	25507.25
2925.77395999134	25530.25
2927.82524733515	25642
2929.87597253132	25600
2931.92613584663	25642.75
2933.97573754769	25616.75
2936.02477790097	25402
2938.07325717276	25401.25
2940.1211756292	25506.25
2942.16853353626	25534.75
2944.21533115976	25701.75
2946.26156876536	25504.75
2948.30724661853	25453.5
2950.3523649846	25724.75
2952.39692412872	25733
2954.44092431587	25790
2956.48436581089	25703.5
2958.52724887843	25612.5
2960.56957378296	25837.5
2962.6113407888	25995.25
2964.65255016011	25912
2966.69320216083	26056.75
2968.73329705479	25854.25
2970.77283510559	25649.25
2972.81181657671	25782.75
2974.8502417314	25842
2976.88811083279	25920.25
2978.92542414378	26009.75
2980.96218192713	26034
2982.99838444541	26132.75
2985.034031961	26143.25
2987.06912473612	26250
2989.1036630328	26043.5
2991.13764711288	26151.75
2993.17107723804	26154.25
2995.20395366974	26428.75
2997.23627666931	26480.75
2999.26804649782	26422.75
3001.29926341624	26662.75
3003.32992768528	26628
3005.3600395655	26681.5
3007.38959931726	26968
3009.41860720076	26982
3011.44706347595	27195.5
3013.47496840263	27003.5
3015.50232224041	27163.75
3017.5291252487	27414.25
3019.5553776867	26999.25
3021.58107981344	27312.75
3023.60623188773	27481.25
3025.63083416822	27472.75
3027.65488691331	27704.25
3029.67839038125	27672.25
3031.70134483007	27524
3033.72375051759	27831.75
3035.74560770144	27635.75
3037.76691663907	27785.75
3039.78767758768	27890.75
3041.80789080431	27751.75
3043.82755654577	27908
3045.84667506867	27846.25
3047.8652466294	28001.5
3049.88327148418	27963.25
3051.90074988899	27755.75
3053.91768209961	27835.75
3055.9340683716	27831.75
3057.94990896033	27889.5
3059.96520412095	27955.5
3061.97995410838	28051.75
3063.99415917734	27972.75
3066.00781958234	27970
3068.02093557766	28057.75
3070.03350741738	27871
3072.04553535535	27939.5
3074.05701964521	28001.25
3076.06796054036	27883.75
3078.078358294	27899.25
3080.08821315912	28110
3082.09752538846	28288.25
3084.10629523454	27767.25
3086.11452294967	28142
3088.12220878592	28098.25
3090.12935299515	28024
3092.13595582898	28040.25
3094.1420175388	28195
3096.14753837579	28231.25
3098.15251859088	28108.25
3100.15695843477	28317.75
3102.16085815793	28329.5
3104.16421801061	28096.75
3106.16703824282	28249.5
3108.16931910432	28339.5
3110.17106084464	28340
3112.17226371308	28479.75
3114.17292795872	28561.75
3116.17305383034	28634.5
3118.17264157657	28499.25
3120.17169144571	28560.25
3122.17020368587	28454.5
3124.16817854492	28489
3126.16561627044	28556.75
3128.16251710982	28952.5
3130.15888131017	28899
3132.15470911837	28933.25
3134.15000078104	28979.25
3136.14475654455	29090.5
3138.13897665502	29085.75
3140.13266135835	29023.75
3142.12581090014	29062.5
3144.11842552577	29268.5
3146.11050548036	29450.5
3148.10205100875	29324.75
3150.09306235557	29456.75
3152.08353976515	29270
3154.07348348158	29035.25
3156.06289374869	29456.25
3158.05177081006	29337.75
3160.04011490899	29443.5
3162.02792628852	29639
3164.01520519145	29339.5
3166.00195186029	29387.25
3167.98816653728	29625.75
3169.97384946442	29547.25
3171.95900088344	29403.75
3173.94362103577	29621.25
3175.92771016259	29591
3177.91126850484	29755.25
3179.89429630312	29609
3181.87679379782	29478.75
3183.85876122903	29830.25
3185.84019883657	29806.5
3187.82110685997	29796.75
3189.80148553851	29664.5
3191.78133511116	29905
3193.76065581664	29923
3195.73944789337	29918
3197.7177115795	29938.5
3199.6954471129	29957.75
3201.67265473114	30040.5
3203.64933467153	29925.75
3205.62548717107	30049.5
3207.60111246648	30193.75
3209.57621079421	30051.25
3211.55078239041	30180.5
3213.52482749093	30040.25
3215.49834633133	30227.5
3217.4713391469	30523.75
3219.44380617262	30437.75
3221.41574764317	30574.25
3223.38716379296	30349.5
3225.35805485607	30626.75
3227.32842106631	30662.75
3229.29826265718	30821.5
3231.26757986187	30884.5
3233.2363729133	30991.5
3235.20464204405	30907.25
3237.17238748643	30919.5
3239.13960947243	30953.5
3241.10630823374	31123
3243.07248400174	30995.75
3245.03813700748	31365.25
3247.00326748177	31163.75
3248.96787565503	31231.5
3250.93196175742	31193.5
3252.89552601877	31392.5
3254.8585686686	31237.25
3256.82108993612	31499.75
3258.78309005022	31412.25
3260.74456923948	31235
3262.70552773215	31373.25
3264.66596575617	31518.5
3266.62588353916	31355.5
3268.58528130843	31182
3270.54415929094	31246.25
3272.50251771336	31359.25
3274.46035680201	31570
3276.4176767829	31587
3278.37447788171	31334.5
3280.33076032379	31602.5
3282.28652433416	31365.25
3284.24177013751	31690
3286.1964979582	31634.25
3288.15070802027	31650.75
3290.10440054741	31649.25
3292.05757576298	31396.75
3294.01023389001	31475.75
3295.96237515119	31773
3297.91399976887	31812.5
3299.86510796506	31633.5
3301.81569996142	31724.25
3303.76577597932	31739.25
3305.7153362397	31809.75
3307.66438096324	31721.75
3309.61291037024	31606
3311.56092468064	31805.25
3313.50842411404	31710.5
3315.45540888971	31866.25
3317.40187922656	31780.25
3319.34783534315	31804.75
3321.29327745768	31710.5
3323.23820578801	31394.25
3325.18262055164	31622.25
3327.1265219657	31589.5
3329.06991024699	31715.5
3331.01278561194	31709.75
3332.95514827662	31614.5
3334.89699845674	31811.25
3336.83833636766	31781.5
3338.77916222434	31269.5
3340.71947624143	31642
3342.65927863317	31839.75
3344.59856961346	31609
3346.53734939584	31731.25
3348.47561819344	31604.25
3350.41337621906	31591
3352.35062368513	31588.5
3354.28736080368	31555
3356.22358778637	31678
3358.15930484452	31605.5
3360.09451218904	31827.5
3362.02921003047	31617
3363.96339857898	31810.5
3365.89707804436	31780.5
3367.83024863602	31599.75
3369.76291056299	31681
3371.69506403389	31573
3373.62670925699	31698.25
3375.55784644016	31821.5
3377.4884757909	31700.25
3379.41859751629	31983.5
3381.34821182305	31944
3383.27731891749	32059.5
3385.20591900555	32073.5
3387.13401229276	32130.25
3389.06159898426	32202.25
3390.9886792848	32317.25
3392.91525339872	32392.75
3394.84132152998	32197.5
3396.76688388213	32206.25
3398.69194065833	32375.25
3400.61649206133	32283.25
3402.54053829348	32302.75
3404.46407955672	32229.75
3406.3871160526	32181
3408.30964798225	32394.75
3410.23167554639	32230.25
3412.15319894535	32492.5
3414.07421837904	32298.5
3415.99473404695	32451.75
3417.91474614817	32405.5
3419.83425488136	32533.5
3421.75326044479	32518.25
3423.67176303631	32310.5
3425.58976285332	32366
3427.50726009282	32376.5
3429.42425495143	32218.75
3431.34074762528	32410.5
3433.25673831012	32075.25
3435.17222720127	32168
3437.08721449362	32333.75
3439.00170038164	31984
3440.91568505936	32283.5
3442.82916872039	31909.5
3444.74215155791	32154.25
3446.65463376468	32037.75
3448.566615533	32090
3450.47809705476	32045.75
3452.3890785214	32014
3454.29956012393	32156.5
3456.20954205293	32165.25
3458.11902449853	31928.75
3460.02800765041	31792
3461.93649169784	31973
3463.84447682962	31760.5
3465.75196323412	31743.25
3467.65895109925	31646.25
3469.56544061249	31764
3471.47143196086	31481.75
3473.37692533093	31618.5
3475.28192090884	31649.25
3477.18641888026	31827.75
3479.09041943039	31607.75
3480.99392274402	31586.75
3482.89692900545	31512.25
3484.79943839853	31547.5
3486.70145110666	31583
3488.60296731277	31461.25
3490.50398719933	31391.5
3492.40451094836	31037
3494.30453874141	31303
3496.20407075956	31430.5
3498.10310718342	31408.25
3500.00164819315	31250.5