201.866871357051	815.25
204.754250281454	817.75
207.640596790938	817.5
210.525911876299	820.5
213.410196525689	824
216.293451724508	825.25
219.175678455485	814
222.056877698662	824.75
224.937050431388	823.5
227.816197628363	819.25
230.694320261602	816
233.571419300504	825.25
236.447495711764	818.5
239.322550459507	824.75
242.196584505182	826.25
245.069598807626	815
247.941594323078	831.5
250.812572005154	828.75
253.682532804884	826
256.551477670699	824
259.419407548456	816.5
262.286323381439	832.25
265.152226110364	844.5
268.017116673389	824.75
270.880996006115	828.5
273.743865041622	839.25
276.605724710436	829.75
279.466575940562	832.25
282.326419657496	843.5
285.1852567842	838.75
288.043088241157	845
290.899914946349	833.5
293.75573781526	826
296.610557760898	841.5
299.464375693817	842
302.317192522078	841
305.169009151297	834.25
308.019826484655	841
310.86964542287	838
313.718466864233	830.5
316.566291704614	833.75
319.413120837457	846.5
322.258955153804	835.75
325.103795542291	844.25
327.947642889128	843.75
330.79049807819	843
333.632361990927	842.75
336.473235506444	848.5
339.31311950145	845.75
342.152014850322	848.75
344.989922425062	854.25
347.826843095354	858
350.662777728528	846.5
353.497727189577	857
356.331692341195	852.25
359.164674043732	857.5
361.996673155267	864.25
364.827690531536	862.75
367.65772702602	860.5
370.486783489887	861.25
373.314860772047	873.25
376.14195971912	869.25
378.968081175466	867.25
381.793225983212	866.25
384.617394982201	870.5
387.44058901005	868.25
390.262808902131	876.25
393.08405549161	864.5
395.904329609395	863
398.723632084213	865.75
401.541963742569	876.25
404.359325408779	871.75
407.175717904938	870.5
409.991142050982	878
412.805598664665	881.25
415.619088561551	876
418.43161255505	886.75
421.243171456415	858.25
424.053766074758	871
426.863397217017	885.75
429.672065688024	896.75
432.479772290455	882.25
435.286517824879	875.75
438.092303089736	886.25
440.897128881359	880.75
443.70099599399	890.5
446.503905219761	878.5
449.305857348711	872.75
452.106853168796	876.75
454.906893465919	877.75
457.705979023885	877.5
460.504110624439	889.25
463.3012890473	885.75
466.097515070087	875.5
468.892789468424	893.25
471.687113015869	883.25
474.48048648395	877
477.272910642198	888
480.064386258109	880.5
482.854914097159	890.25
485.644494922839	891.25
488.433129496636	893.75
491.220818578047	903.5
494.007562924584	897
496.793363291785	884.5
499.578220433217	889.25
502.362135100473	880.25
505.145108043209	895.75
507.927140009098	909.5
510.708231743909	886.25
513.488383991433	899.5
516.267597493556	902.75
519.04587299022	891.5
521.82321121946	910.5
524.599612917398	906.5
527.375078818233	897
530.149609654287	922.75
532.923206155967	910.5
535.695869051804	898.25
538.467599068448	902.5
541.238396930665	900.25
544.008263361364	888.5
546.777199081578	902.25
549.545204810493	901.25
552.312281265436	908.25
555.078429161898	883.25
557.843649213533	906.5
560.607942132156	902
563.371308627753	892.25
566.133749408495	905
568.895265180756	898.5
571.655856649064	902.25
574.415524516189	901.75
577.174269483075	904.75
579.932092248884	903.25
582.688993510994	894.75
585.444973965023	898.5
588.200034304795	905.25
590.95417522237	914.5
593.70739740807	911.25
596.459701550433	911.75
599.21108833628	907
601.961558450668	904.25
604.711112576933	904.25
607.459751396673	912
610.207475589748	914.25
612.954285834338	910.75
615.700182806879	916
618.445167182101	909.75
621.189239633055	912.75
623.932400831087	908
626.674651445839	894.75
629.415992145303	891.75
632.156423595745	912
634.895946461813	910.25
637.634561406449	896.75
640.37226909096	895
643.109070174978	904.5
645.844965316508	910.25
648.579955171888	905.25
651.314040395846	907.75
654.047221641456	902.75
656.779499560176	909.25
659.510874801828	897
662.241348014642	905.75
664.97091984524	907
667.699590938606	893.25
670.427361938164	923.5
673.15423348573	905.25
675.880206221526	910.75
678.605280784206	920.25
681.329457810829	904.75
684.05273793692	909.5
686.775121796389	918.25
689.49661002163	907.75
692.217203243454	909.75
694.936902091144	911.25
697.655707192425	917
700.373619173493	908.5
703.09063865901	910.75
705.806766272093	907.5
708.522002634378	917
711.236348365946	907.25
713.94980408538	921
716.662370409762	912.25
719.374047954676	927.75
722.08483733419	918.5
724.794739160909	928.75
727.503754045949	914.25
730.21188259892	925.75
732.919125427998	923.5
735.625483139855	919.75
738.330956339723	922.75
741.035545631374	918
743.739251617106	911.5
746.44207489779	926.25
749.144016072852	929.25
751.845075740272	930.75
754.545254496603	934.75
757.244552936976	942.5
759.94297165508	935
762.640511243222	925.5
765.337172292249	927.75
768.032955391649	927
770.727861129482	913.75
773.421890092413	927
776.11504286572	929.5
778.807320033298	929.5
781.49872217765	939
784.18924987991	936.5
786.87890371984	934.25
789.567684275826	927.75
792.255592124908	918.5
794.94262784276	925
797.628792003703	930.5
800.314085180715	924.5
802.998507945427	935.25
805.682060868145	941.25
808.364744517821	928
811.046559462105	944.25
813.727506267311	921
816.407585498422	934.25
819.08679771913	932.25
821.765143491822	936
824.442623377563	924
827.119237936127	937
829.794987726003	931.5
832.469873304377	942.5
835.143895227167	943.25
837.817054048985	952.75
840.489350323205	940.25
843.160784601892	968.5
845.831357435894	964.75
848.501069374739	953.75
851.169920966753	940.75
853.837912758987	944.5
856.505045297232	952
859.171319126071	954.25
861.836734788823	942.25
864.501292827579	968.25
867.164993783208	957.25
869.827838195361	952.5
872.489826602454	960.75
875.150959541701	956.25
877.811237549104	945.5
880.470661159456	958
883.129230906357	967
885.786947322205	953.25
888.443810938206	960.25
891.099822284385	955.5
893.754981889586	959.25
896.409290281452	950
899.062747986485	935.75
901.715355529999	959
904.367113436154	954.75
907.01802222793	937.5
909.668082427172	955
912.317294554574	950.5
914.965659129659	943
917.613176670835	945.5
920.259847695364	945.75
922.90567271936	945
925.550652257825	952
928.194786824621	941
930.838076932512	941.25
933.480523093109	944.25
936.122125816953	941
938.762885613447	940.75
941.402802990899	935.75
944.041878456523	935
946.680112516428	944.5
949.31750567563	948.5
951.954058438081	953
954.589771306633	951.5
957.224644783048	955.5
959.858679368044	946.5
962.491875561238	940.75
965.12423386121	938.25
967.75575476545	938.25
970.386438770423	947
973.016286371501	946
975.645298063046	937
978.273474338355	951.75
980.900815689674	948.25
983.527322608243	939.75
986.152995584245	947.25
988.777835106834	930.25
991.401841664148	951
994.025015743307	958.25
996.647357830407	942.25
999.268868410534	943.25
1001.88954796777	960.25
1004.50939698518	950.75
1007.12841594484	951
1009.74660532783	954.5
1012.36396561423	966
1014.98049728314	963.5
1017.59620081267	957.25
1020.21107667995	973.75
1022.82512536112	955
1025.43834733138	961.75
1028.05074306493	964.75
1030.66231303501	977.25
1033.27305771392	955.75
1035.88297757299	977.5
1038.49207308257	964
1041.10034471211	969.25
1043.70779293008	971.5
1046.31441820402	984.25
1048.92022100052	988.25
1051.52520178525	1021
1054.12936102295	1039.75
1056.73269917742	1086.5
1059.33521671154	1159
1061.93691408729	1172.75
1064.53779176571	1157.75
1067.13785020694	1105.75
1069.73708987022	1048
1072.33551121386	1045.25
1074.93311469528	1019.75
1077.52990077103	1017
1080.12586989674	1007.75
1082.72102252714	1004.25
1085.31535911611	1012.25
1087.90888011663	1010.5
1090.50158598078	1004
1093.09347715979	1015.75
1095.68455410403	1020
1098.27481726296	983.75
1100.86426708523	986.75
1103.45290401857	986.75
1106.04072850991	998.25
1108.6277410053	999.75
1111.21394194993	993.75
1113.79933178816	1006.25
1116.3839109635	1040.25
1118.96767991862	1085.75
1121.55063909539	1129
1124.13278893477	1212.5
1126.71412987696	1323
1129.29466236132	1330.5
1131.87438682637	1250.25
1134.45330370982	1165.5
1137.03141344858	1086.75
1139.60871647872	1048.5
1142.18521323554	1033.5
1144.7609041535	1013.5
1147.33578966629	1018.75
1149.90987020676	1008.5
1152.48314620702	988.25
1155.05561809835	1001
1157.62728631125	987.75
1160.19815127545	989.5
1162.76821341988	989.75
1165.33747317271	984.75
1167.90593096133	993.5
1170.47358721235	985
1173.04044235163	977.5
1175.60649680425	976.5
1178.17175099454	986
1180.73620534607	987.75
1183.29986028165	963.5
1185.86271622336	992.75
1188.42477359249	979.5
1190.98603280964	982
1193.54649429462	966.75
1196.10615846653	965.5
1198.66502574372	988.5
1201.22309654385	980
1203.78037128378	983.5
1206.33685037971	959
1208.89253424709	961.5
1211.44742330063	988.25
1214.00151795438	993.25
1216.55481862163	979.5
1219.10732571497	987.5
1221.65903964631	980.25
1224.20996082683	981.75
1226.760089667	977
1229.30942657664	988.25
1231.85797196483	987.75
1234.40572623998	1001
1236.95268980981	1006.75
1239.49886308136	993.75
1242.04424646098	992.25
1244.58884035435	1015
1247.13264516647	1012.25
1249.67566130166	992.5
1252.21788916358	992
1254.75932915524	1020
1257.29998167896	1019
1259.83984713639	1031.5
1262.37892592857	1023.25
1264.91721845586	1037.5
1267.45472511795	1047
1269.9914463139	1034
1272.52738244213	1047
1275.0625339004	1050.25
1277.59690108587	1056.5
1280.130484395	1048
1282.66328422367	1061.75
1285.19530096712	1084.5
1287.72653501993	1126
1290.25698677608	1217.5
1292.78665662894	1377.75
1295.31554497125	1404.5
1297.8436521951	1329
1300.37097869203	1227.5
1302.89752485292	1165
1305.42329106805	1129.25
1307.94827772713	1127.25
1310.47248521921	1106
1312.99591393279	1119
1315.51856425575	1105.5
1318.04043657536	1102
1320.56153127836	1091.25
1323.08184875083	1082.75
1325.6013893783	1078.5
1328.12015354572	1079.25
1330.63814163744	1083.75
1333.15535403727	1097.75
1335.67179112839	1106
1338.18745329347	1083.5
1340.70234091454	1110.75
1343.21645437314	1100
1345.72979405019	1099.25
1348.24236032607	1121.25
1350.75415358059	1104
1353.26517419303	1114
1355.7754225421	1125
1358.28489900594	1130.5
1360.79360396218	1134.25
1363.30153778787	1156.5
1365.80870085955	1147.5
1368.31509355319	1162.25
1370.82071624424	1152.5
1373.32556930762	1157.75
1375.8296531177	1142.5
1378.33296804832	1151.5
1380.83551447282	1148.5
1383.33729276399	1140.25
1385.83830329408	1145.25
1388.33854643489	1148.25
1390.83802255762	1140.25
1393.33673203301	1159.5
1395.83467523128	1146.5
1398.33185252211	1160.5
1400.82826427471	1161
1403.32391085777	1176.25
1405.81879263947	1170
1408.31290998752	1184.25
1410.80626326908	1224.5
1413.29885285087	1255.5
1415.79067909909	1313.75
1418.28174237944	1351.5
1420.77204305717	1363.75
1423.26158149702	1325.5
1425.75035806323	1333.25
1428.2383731196	1366
1430.72562702942	1378
1433.21212015554	1416.25
1435.69785286028	1435.25
1438.18282550555	1447.75
1440.66703845275	1459.25
1443.15049206284	1441.25
1445.6331866963	1438
1448.11512271316	1429
1450.59630047298	1430.25
1453.07672033486	1436.75
1455.55638265748	1447.5
1458.03528779902	1447.5
1460.51343611725	1448
1462.99082796946	1455.75
1465.46746371252	1430.5
1467.94334370285	1411.75
1470.41846829642	1405
1472.89283784878	1406.25
1475.36645271503	1381.5
1477.83931324983	1384
1480.31141980743	1411
1482.78277274164	1412
1485.25337240583	1405.75
1487.72321915297	1400.5
1490.19231333557	1420.75
1492.66065530578	1429.75
1495.12824541525	1437.25
1497.5950840153	1443.75
1500.06117145678	1445
1502.52650809014	1453
1504.99109426543	1458
1507.45493033227	1465.75
1509.91801663992	1467.25
1512.38035353717	1482.75
1514.84194137248	1485
1517.30278049386	1502
1519.76287124894	1521.5
1522.22221398497	1527
1524.68080904876	1523.25
1527.13865678681	1529.5
1529.59575754514	1554.75
1532.05211166945	1566.5
1534.50771950503	1593.75
1536.96258139678	1581
1539.41669768924	1605.5
1541.87006872656	1607.75
1544.32269485252	1627.75
1546.77457641051	1628.75
1549.22571374357	1662
1551.67610719434	1673.25
1554.12575710513	1700
1556.57466381785	1702
1559.02282767408	1720.5
1561.47024901499	1728
1563.91692818144	1751.25
1566.3628655139	1748.25
1568.80806135249	1770
1571.252516037	1772.5
1573.6962299068	1803
1576.13920330099	1805.5
1578.58143655828	1830.25
1581.02293001704	1844.5
1583.46368401528	1841.75
1585.90369889071	1846.25
1588.34297498065	1879.75
1590.7815126221	1890.25
1593.21931215173	1879
1595.65637390588	1888.5
1598.09269822053	1897.5
1600.52828543135	1933.75
1602.96313587367	1930.25
1605.3972498825	1922.5
1607.83062779252	1922.25
1610.26326993808	1923.75
1612.69517665322	1953
1615.12634827165	1948.25
1617.55678512676	1945.5
1619.98648755163	1961.5
1622.41545587902	1946.75
1624.84369044138	1960
1627.27119157085	1986.75
1629.69795959924	2005
1632.12399485808	2005.25
1634.54929767859	2019.25
1636.97386839165	2007.75
1639.39770732789	2015.5
1641.8208148176	1981
1644.24319119078	2032.5
1646.66483677715	2019.25
1649.0857519061	2053
1651.50593690677	2048.25
1653.92539210795	2071.25
1656.3441178382	2051.25
1658.76211442575	2065.75
1661.17938219855	2065.5
1663.59592148428	2068.5
1666.01173261032	2102
1668.42681590377	2096.25
1670.84117169145	2116.25
1673.25480029991	2120.75
1675.66770205541	2121.5
1678.07987728393	2137.25
1680.49132631119	2162.5
1682.90204946263	2179.75
1685.31204706342	2162.75
1687.72131943846	2153.5
1690.1298669124	2163.75
1692.53768980957	2165.5
1694.94478845411	2191.5
1697.35116316982	2192.25
1699.75681428031	2175.25
1702.16174210887	2184.75
1704.56594697858	2183
1706.96942921222	2189
1709.37218913235	2212.25
1711.77422706125	2185.5
1714.17554332098	2179.5
1716.5761382333	2191.75
1718.97601211977	2170.75
1721.37516530169	2174
1723.77359810006	2188.25
1726.17131083572	2196.75
1728.56830382922	2175.5
1730.96457740087	2192.25
1733.36013187075	2169.25
1735.75496755868	2181.25
1738.14908478428	2158.75
1740.54248386689	2180.25
1742.93516512565	2179.25
1745.32712887946	2171.25
1747.71837544697	2146.5
1750.10890514662	2168.5
1752.49871829661	2181.75
1754.88781521492	2171
1757.27619621929	2198
1759.66386162726	2170.25
1762.05081175612	2162
1764.43704692297	2148.75
1766.82256744465	2181
1769.20737363782	2185.5
1771.59146581887	2166.25
1773.97484430405	2190.5
1776.35750940932	2206.5
1778.73946145048	2185.25
1781.12070074309	2191.75
1783.50122760249	2202.75
1785.88104234385	2215
1788.26014528209	2189.5
1790.63853673196	2199.25
1793.01621700796	2172.75
1795.39318642443	2217
1797.76944529549	2214.5
1800.14499393503	2182.25
1802.51983265681	2184.5
1804.8939617743	2236.5
1807.26738160085	2206.5
1809.64009244957	2187.5
1812.01209463339	2206.25
1814.38338846504	2188.25
1816.75397425706	2174
1819.12385232181	2189.75
1821.49302297142	2179
1823.86148651789	2161.5
1826.22924327299	2174.75
1828.59629354831	2197
1830.96263765526	2192.25
1833.32827590507	2148.75
1835.69320860877	2164.5
1838.05743607724	2175
1840.42095862113	2162.5
1842.78377655097	2146.5
1845.14589017707	2142.75
1847.50729980956	2142.25
1849.86800575843	2154
1852.22800833346	2141.25
1854.58730784427	2153
1856.94590460032	2178.25
1859.30379891087	2151
1861.66099108503	2142
1864.01748143175	2137.75
1866.37327025978	2173.5
1868.72835787773	2144.75
1871.08274459403	2143.75
1873.43643071697	2125.5
1875.78941655464	2167.5
1878.14170241498	2135.75
1880.4932886058	2170.75
1882.84417543469	2163.25
1885.19436320915	2159.5
1887.54385223646	2153
1889.89264282378	2152.5
1892.24073527809	2164.5
1894.58812990625	2165.5
1896.93482701493	2192.75
1899.28082691067	2176
1901.62612989984	2177.75
1903.97073628868	2189.75
1906.31464638326	2195.5
1908.6578604895	2189
1911.00037891321	2208.5
1913.34220196	2197.5
1915.68332993537	2203
1918.02376314468	2227
1920.36350189311	2221
1922.70254648573	2189
1925.04089722744	2236
1927.37855442303	2193.5
1929.71551837715	2169
1932.05178939426	2193
1934.38736777876	2191.75
1936.72225383484	2177.75
1939.0564478666	2216
1941.38995017799	2193.5
1943.72276107283	2190.5
1946.05488085479	2200.25
1948.38630982744	2159.75
1950.71704829419	2208.25
1953.04709655832	2173.25
1955.376454923	2206.75
1957.70512369126	2174
1960.03310316599	2191
1962.36039364999	2181.75
1964.68699544589	2176.5
1967.01290885622	2162.25
1969.33813418338	2164.5
1971.66267172965	2167.5
1973.98652179718	2179.5
1976.309684688	2170.25
1978.63216070402	2215.5
1980.95395014705	2219.5
1983.27505331873	2164.5
1985.59547052063	2175.5
1987.9152020542	2190
1990.23424822074	2199.25
1992.55260932146	2191.5
1994.87028565746	2177
1997.18727752968	2203
1999.503585239	2213
2001.81920908618	2201
2004.13414937184	2230.75
2006.44840639651	2219
2008.7619804606	2205.75
2011.07487186442	2202.5
2013.38708090815	2250.75
2015.6986078919	2221
2018.00945311564	2239
2020.31961687923	2222
2022.62909948246	2239
2024.93790122498	2244.75
2027.24602240636	2267.75
2029.55346332604	2260.25
2031.86022428337	2248.5
2034.16630557761	2268.25
2036.47170750791	2242
2038.77643037331	2259.5
2041.08047447275	2294.25
2043.38384010509	2262.75
2045.68652756907	2252.25
2047.98853716335	2257.5
2050.28986918648	2259
2052.59052393692	2281.25
2054.89050171302	2283
2057.18980281306	2276
2059.4884275352	2282.5
2061.78637617753	2277.5
2064.08364903802	2280.25
2066.38024641457	2311.75
2068.67616860497	2286.25
2070.97141590694	2307
2073.26598861809	2273.25
2075.55988703595	2267.25
2077.85311145796	2307.75
2080.14566218145	2310.5
2082.43753950371	2305.75
2084.72874372188	2320.75
2087.01927513307	2283.25
2089.30913403428	2307.25
2091.59832072241	2299
2093.88683549429	2273
2096.17467864666	2306
2098.46185047619	2303.5
2100.74835127944	2298.5
2103.03418135292	2301.25
2105.31934099303	2303.5
2107.6038304961	2322.25
2109.88765015838	2339.75
2112.17080027602	2307.25
2114.45328114513	2357.5
2116.7350930617	2344
2119.01623632165	2351.75
2121.29671122085	2335.75
2123.57651805505	2322.25
2125.85565711996	2325.25
2128.13412871117	2371.5
2130.41193312424	2349.5
2132.68907065462	2365.25
2134.96554159771	2390.75
2137.24134624881	2359.75
2139.51648490317	2389.75
2141.79095785593	2386.75
2144.0647654022	2406.5
2146.33790783698	2378.5
2148.61038545524	2389.25
2150.88219855182	2421.5
2153.15334742154	2407.25
2155.42383235911	2464.25
2157.6936536592	2457.5
2159.9628116164	2421.75
2162.23130652522	2449.5
2164.49913868011	2420.25
2166.76630837544	2439.25
2169.03281590552	2427.75
2171.2986615646	2420.5
2173.56384564685	2438.25
2175.82836844637	2431.5
2178.0922302572	2452
2180.35543137332	2460.25
2182.61797208862	2449.5
2184.87985269695	2451.5
2187.14107349208	2432
2189.40163476773	2433.5
2191.66153681753	2434
2193.92077993507	2421.75
2196.17936441386	2465.75
2198.43729054735	2466.75
2200.69455862894	2422.5
2202.95116895194	2454.5
2205.20712180962	2444.5
2207.46241749519	2436.25
2209.71705630179	2425.25
2211.97103852248	2416.75
2214.2243644503	2437.75
2216.47703437819	2453
2218.72904859905	2433.5
2220.98040740571	2457.75
2223.23111109095	2465
2225.4811599475	2418.25
2227.73055426799	2448
2229.97929434504	2446
2232.22738047118	2435.5
2234.47481293889	2435
2236.72159204058	2478.25
2238.96771806864	2448
2241.21319131536	2464.75
2243.458012073	2422
2245.70218063374	2448.75
2247.94569728973	2448
2250.18856233304	2438.75
2252.4307760557	2446.75
2254.67233874967	2423
2256.91325070687	2445
2259.15351221915	2421.5
2261.39312357831	2456.5
2263.63208507611	2430.75
2265.87039700422	2434
2268.1080596543	2449.75
2270.34507331792	2450.25
2272.5814382866	2418
2274.81715485183	2438.75
2277.05222330502	2416.25
2279.28664393755	2433.5
2281.52041704072	2439.75
2283.75354290581	2426.75
2285.98602182401	2465.75
2288.21785408648	2431
2290.44903998434	2421.5
2292.67957980862	2419.75
2294.90947385033	2441
2297.1387224004	2446.25
2299.36732574975	2445
2301.59528418921	2440.75
2303.82259800958	2420
2306.04926750158	2432.5
2308.27529295593	2428
2310.50067466325	2440.5
2312.72541291412	2438.25
2314.9495079991	2420.5
2317.17296020866	2426.75
2319.39576983323	2438.25
2321.61793716322	2398.5
2323.83946248894	2443
2326.06034610069	2431.75
2328.28058828871	2421.5
2330.50018934317	2447.5
2332.7191495542	2463.75
2334.93746921192	2430.25
2337.15514860633	2399.25
2339.37218802743	2412.75
2341.58858776516	2406.75
2343.80434810941	2401.75
2346.01946935001	2401.5
2348.23395177675	2396.25
2350.44779567939	2394
2352.66100134759	2371
2354.87356907101	2394.75
2357.08549913925	2366
2359.29679184185	2414.25
2361.50744746829	2409.25
2363.71746630804	2390.75
2365.92684865048	2339.25
2368.13559478499	2367.75
2370.34370500083	2358.25
2372.55117958727	2405.25
2374.75801883352	2356.25
2376.96422302874	2369.25
2379.16979246202	2365.75
2381.37472742243	2359.5
2383.57902819898	2370
2385.78269508063	2361.25
2387.98572835629	2331.5
2390.18812831482	2333.75
2392.38989524505	2348
2394.59102943573	2324
2396.79153117559	2330
2398.9914007533	2333.5
2401.19063845748	2355.25
2403.38924457672	2348.5
2405.58721939951	2321.75
2407.78456321435	2305.25
2409.98127630966	2317.5
2412.17735897382	2334.5
2414.37281149517	2339.25
2416.56763416198	2327.5
2418.76182726249	2303.75
2420.95539108487	2309
2423.14832591726	2298
2425.34063204776	2298.25
2427.53230976439	2267
2429.72335935513	2299
2431.91378110795	2323.25
2434.10357531071	2287.5
2436.29274225125	2282.25
2438.48128221739	2264.5
2440.66919549683	2268.75
2442.8564823773	2275.75
2445.04314314641	2287.5
2447.22917809176	2269.75
2449.4145875009	2260.75
2451.59937166131	2245
2453.78353086044	2253.75
2455.96706538568	2247.25
2458.14997552436	2239.5
2460.33226156379	2208.25
2462.51392379119	2229
2464.69496249376	2207
2466.87537795862	2204
2469.05517047288	2204.75
2471.23434032357	2212.25
2473.41288779767	2224.75
2475.59081318211	2180.25
2477.76811676378	2176
2479.9447988295	2187.25
2482.12085966605	2173.75
2484.29629956016	2163
2486.4711187985	2180
2488.64531766769	2186.75
2490.8188964543	2153
2492.99185544484	2139.75
2495.16419492579	2171.75
2497.33591518353	2180
2499.50701650444	2162.25
2501.67749917482	2159.75
2503.84736348091	2165.25
2506.01660970891	2157.25
2508.18523814496	2126
2510.35324907514	2145.25
2512.52064278551	2151.5
2514.68741956201	2147
2516.85357969058	2168.5
2519.01912345709	2150
2521.18405114735	2145.5
2523.34836304711	2147.5
2525.51205944208	2136.75
2527.6751406179	2116
2529.83760686016	2152.5
2531.99945845439	2136
2534.16069568606	2149
2536.3213188406	2148.75
2538.48132820336	2112.5
2540.64072405965	2122.25
2542.79950669471	2107.25
2544.95767639373	2112.5
2547.11523344184	2118.25
2549.27217812411	2118.5
2551.42851072555	2129.25
2553.58423153111	2103
2555.73934082569	2094.75
2557.89383889412	2107
2560.04772602118	2105.25
2562.20100249158	2099.5
2564.35366858996	2117
2566.50572460093	2080.5
2568.65717080901	2060
2570.80800749867	2083.75
2572.95823495433	2063.25
2575.10785346031	2084.25
2577.25686330093	2067.5
2579.40526476038	2034.75
2581.55305812282	2068.75
2583.70024367237	2046.75
2585.84682169303	2056.75
2587.99279246879	2033.25
2590.13815628354	2056.25
2592.28291342112	2045.25
2594.42706416531	2048.25
2596.5706087998	2024
2598.71354760826	2024.75
2600.85588087425	2040.25
2602.99760888127	2037.75
2605.13873191278	2034.5
2607.27925025214	2030.5
2609.41916418269	2008
2611.55847398764	2050.5
2613.69717995017	2025
2615.83528235339	2031
2617.97278148034	2029.25
2620.10967761398	2022
2622.2459710372	2038.5
2624.38166203284	2016.5
2626.51675088365	2034.25
2628.65123787231	1987.5
2630.78512328145	2004.5
2632.9184073936	2002.25
2635.05109049124	2006.75
2637.18317285676	2019
2639.31465477248	2003.5
2641.44553652067	2020.75
2643.5758183835	2021.25
2645.70550064309	1992.25
2647.83458358144	2019.75
2649.96306748053	2003
2652.09095262223	2028.5
2654.21823928836	1997.75
2656.34492776063	1983.75
2658.47101832071	2023.25
2660.59651125015	2024.25
2662.72140683047	1973.5
2664.84570534309	1998.75
2666.96940706934	1996.75
2669.0925122905	1979
2671.21502128773	2001.75
2673.33693434215	1995.75
2675.45825173479	2026.5
2677.57897374658	2016
2679.69910065839	2014.75
2681.818632751	2002.5
2683.93757030511	1996.5
2686.05591360133	1981.75
2688.17366292021	2025
2690.29081854218	2023.75
2692.40738074762	2013.75
2694.52334981681	2008.75
2696.63872602995	2017.25
2698.75350966713	1995.75
2700.86770100841	2011.25
2702.98130033371	2033
2705.09430792289	2016.25
2707.20672405571	2025
2709.31854901185	2040.5
2711.42978307091	2041.5
2713.54042651238	2040.25
2715.65047961567	2056.25
2717.7599426601	2053.25
2719.86881592491	2022.75
2721.97709968924	2050.75
2724.08479423213	2039.25
2726.19189983255	2060.75
2728.29841676934	2026.5
2730.4043453213	2060
2732.5096857671	2069.75
2734.61443838532	2044.75
2736.71860345444	2051.75
2738.82218125286	2044.75
2740.92517205889	2037.5
2743.02757615072	2026.25
2745.12939380646	2030
2747.23062530411	2013.25
2749.33127092159	2049
2751.4313309367	2047.5
2753.53080562716	2035.5
2755.62969527058	2019.75
2757.72800014448	2039.5
2759.82572052625	2040.75
2761.92285669323	2025.75
2764.0194089226	2055.25
2766.11537749147	2036
2768.21076267686	2028.25
2770.30556475566	1998.75
2772.39978400465	2034.5
2774.49342070054	2019.25
2776.58647511991	2044.25
2778.67894753923	2033.25
2780.77083823487	2031.5
2782.8621474831	2020.75
2784.95287556007	1997.5
2787.04302274184	2045
2789.13258930433	2053.5
2791.22157552338	2062.5
2793.30998167471	2048.75
2795.39780803392	2071.5
2797.4850548765	2066.75
2799.57172247786	2065
2801.65781111324	2081.5
2803.74332105781	2086
2805.82825258661	2078.75
2807.91260597457	2091.75
2809.9963814965	2088.75
2812.07957942711	2083.25
2814.16220004096	2092.75
2816.24424361252	2096.5
2818.32571041614	2117.5
2820.40660072604	2098.25
2822.48691481631	2138.25
2824.56665296098	2140.5
2826.64581543388	2167.75
2828.72440250876	2235
2830.80241445925	2262.5
2832.87985155885	2317.5
2834.95671408093	2414.5
2837.03300229875	2609.75
2839.10871648544	2794
2841.18385691399	3056.75
2843.25842385729	3384
2845.33241758808	3564
2847.40583837898	3731.25
2849.4786865025	3674
2851.550962231	3607.5
2853.6226658367	3494.25
2855.69379759173	3380.5
2857.76435776806	3297.75
2859.83434663753	3227
2861.90376447184	3170.5
2863.97261154259	3105.5
2866.0408881212	3088
2868.10859447901	3083
2870.17573088717	3101.75
2872.24229761673	3135.5
2874.30829493859	3180.25
2876.37372312352	3279.5
2878.43858244215	3459.75
2880.50287316496	3571.5
2882.56659556231	3565.25
2884.62974990439	3528.75
2886.69233646129	3396.5
2888.75435550293	3345.25
2890.81580729909	3350.25
2892.87669211941	3335.25
2894.93701023339	3298
2896.99676191039	3316.5
2899.05594741961	3292
2901.1145670301	3263.25
2903.1726210108	3212.5
2905.23010963045	3191
2907.28703315768	3136
2909.34339186096	3101.25
2911.39918600861	3080
2913.45441586879	3025.75
2915.50908170952	3030.25
2917.56318379867	3007.75
2919.61672240395	3022.5
2921.66969779291	3009.25
2923.72211023295	2969
2925.77395999134	3022
2927.82524733515	3034
2929.87597253132	2988.75
2931.92613584663	2956.75
2933.97573754769	2936.25
2936.02477790097	2882.75
2938.07325717276	2815.5
2940.1211756292	2746.25
2942.16853353626	2680.75
2944.21533115976	2616
2946.26156876536	2545.75
2948.30724661853	2510.75
2950.3523649846	2465.5
2952.39692412872	2458.25
2954.44092431587	2448.25
2956.48436581089	2463.75
2958.52724887843	2444
2960.56957378296	2437
2962.6113407888	2435.75
2964.65255016011	2420.5
2966.69320216083	2421.75
2968.73329705479	2430.75
2970.77283510559	2395.5
2972.81181657671	2388.75
2974.8502417314	2418.75
2976.88811083279	2393
2978.92542414378	2359.75
2980.96218192713	2389
2982.99838444541	2405.5
2985.034031961	2374.75
2987.06912473612	2415.5
2989.1036630328	2351.25
2991.13764711288	2395.75
2993.17107723804	2382
2995.20395366974	2400.5
2997.23627666931	2422.5
2999.26804649782	2389.75
3001.29926341624	2437
3003.32992768528	2404.25
3005.3600395655	2421
3007.38959931726	2435.5
3009.41860720076	2449.75
3011.44706347595	2450.25
3013.47496840263	2434
3015.50232224041	2454.25
3017.5291252487	2457
3019.5553776867	2466
3021.58107981344	2437.75
3023.60623188773	2467.5
3025.63083416822	2433.5
3027.65488691331	2478.75
3029.67839038125	2460.75
3031.70134483007	2479.5
3033.72375051759	2483
3035.74560770144	2456.5
3037.76691663907	2471.75
3039.78767758768	2493.75
3041.80789080431	2479
3043.82755654577	2493
3045.84667506867	2469.5
3047.8652466294	2472
3049.88327148418	2472.75
3051.90074988899	2485.5
3053.91768209961	2485.5
3055.9340683716	2473.75
3057.94990896033	2467.75
3059.96520412095	2498.5
3061.97995410838	2491.25
3063.99415917734	2461.5
3066.00781958234	2493.25
3068.02093557766	2474.75
3070.03350741738	2488.25
3072.04553535535	2481.75
3074.05701964521	2458.25
3076.06796054036	2492.75
3078.078358294	2452
3080.08821315912	2481.25
3082.09752538846	2482.5
3084.10629523454	2462.25
3086.11452294967	2470.25
3088.12220878592	2459
3090.12935299515	2509.75
3092.13595582898	2477.5
3094.1420175388	2472.75
3096.14753837579	2480.5
3098.15251859088	2462.25
3100.15695843477	2463.5
3102.16085815793	2474.5
3104.16421801061	2462.75
3106.16703824282	2438
3108.16931910432	2466.5
3110.17106084464	2458.5
3112.17226371308	2455.75
3114.17292795872	2441.75
3116.17305383034	2474.75
3118.17264157657	2449.25
3120.17169144571	2473.25
3122.17020368587	2435.5
3124.16817854492	2445.25
3126.16561627044	2457.5
3128.16251710982	2477.25
3130.15888131017	2461.25
3132.15470911837	2465.75
3134.15000078104	2477.5
3136.14475654455	2469.25
3138.13897665502	2475.5
3140.13266135835	2470.5
3142.12581090014	2449.5
3144.11842552577	2474.5
3146.11050548036	2478.25
3148.10205100875	2481.75
3150.09306235557	2462.75
3152.08353976515	2461.5
3154.07348348158	2457.75
3156.06289374869	2459.25
3158.05177081006	2414.5
3160.04011490899	2483
3162.02792628852	2480
3164.01520519145	2437.5
3166.00195186029	2457.25
3167.98816653728	2471.25
3169.97384946442	2469.25
3171.95900088344	2420.5
3173.94362103577	2463
3175.92771016259	2467.75
3177.91126850484	2419.5
3179.89429630312	2438.5
3181.87679379782	2438.25
3183.85876122903	2428.5
3185.84019883657	2460
3187.82110685997	2436.25
3189.80148553851	2428
3191.78133511116	2436.5
3193.76065581664	2450.25
3195.73944789337	2412.25
3197.7177115795	2469
3199.6954471129	2447.75
3201.67265473114	2427.5
3203.64933467153	2444.25
3205.62548717107	2427
3207.60111246648	2439.5
3209.57621079421	2436.5
3211.55078239041	2439.25
3213.52482749093	2419.5
3215.49834633133	2437
3217.4713391469	2453.25
3219.44380617262	2437.25
3221.41574764317	2453.75
3223.38716379296	2412.5
3225.35805485607	2418.5
3227.32842106631	2410.75
3229.29826265718	2449
3231.26757986187	2467.5
3233.2363729133	2431.75
3235.20464204405	2403.25
3237.17238748643	2452
3239.13960947243	2447.5
3241.10630823374	2437.75
3243.07248400174	2403.5
3245.03813700748	2477.25
3247.00326748177	2427.5
3248.96787565503	2423.25
3250.93196175742	2430.25
3252.89552601877	2458.25
3254.8585686686	2437.5
3256.82108993612	2457.5
3258.78309005022	2449.25
3260.74456923948	2448.75
3262.70552773215	2442
3264.66596575617	2443
3266.62588353916	2459
3268.58528130843	2435.75
3270.54415929094	2418.5
3272.50251771336	2427.5
3274.46035680201	2449.75
3276.4176767829	2424.5
3278.37447788171	2449.25
3280.33076032379	2465
3282.28652433416	2409.75
3284.24177013751	2446.5
3286.1964979582	2425.25
3288.15070802027	2458.5
3290.10440054741	2433.25
3292.05757576298	2414.25
3294.01023389001	2424.5
3295.96237515119	2447.25
3297.91399976887	2401.25
3299.86510796506	2410.25
3301.81569996142	2393.25
3303.76577597932	2428.5
3305.7153362397	2441.5
3307.66438096324	2438
3309.61291037024	2419
3311.56092468064	2416.25
3313.50842411404	2421.75
3315.45540888971	2417
3317.40187922656	2401.25
3319.34783534315	2425.25
3321.29327745768	2409.25
3323.23820578801	2375
3325.18262055164	2402
3327.1265219657	2386.25
3329.06991024699	2392.5
3331.01278561194	2398.75
3332.95514827662	2417.25
3334.89699845674	2415
3336.83833636766	2426.5
3338.77916222434	2364
3340.71947624143	2379.5
3342.65927863317	2394.5
3344.59856961346	2387
3346.53734939584	2380.75
3348.47561819344	2376
3350.41337621906	2372.5
3352.35062368513	2369
3354.28736080368	2374
3356.22358778637	2369.5
3358.15930484452	2379.75
3360.09451218904	2370.75
3362.02921003047	2395.5
3363.96339857898	2374.5
3365.89707804436	2401.75
3367.83024863602	2356
3369.76291056299	2379.75
3371.69506403389	2387.5
3373.62670925699	2374.75
3375.55784644016	2370.75
3377.4884757909	2363
3379.41859751629	2385.75
3381.34821182305	2387.25
3383.27731891749	2388
3385.20591900555	2396.25
3387.13401229276	2406.5
3389.06159898426	2403.75
3390.9886792848	2379.75
3392.91525339872	2387.5
3394.84132152998	2406.25
3396.76688388213	2387
3398.69194065833	2415.25
3400.61649206133	2376.5
3402.54053829348	2402.75
3404.46407955672	2414.5
3406.3871160526	2392.25
3408.30964798225	2397.5
3410.23167554639	2392.5
3412.15319894535	2415.5
3414.07421837904	2378.5
3415.99473404695	2392.25
3417.91474614817	2383.25
3419.83425488136	2377.75
3421.75326044479	2407.75
3423.67176303631	2368.75
3425.58976285332	2385.25
3427.50726009282	2372.5
3429.42425495143	2394.5
3431.34074762528	2386.75
3433.25673831012	2399.25
3435.17222720127	2401
3437.08721449362	2389.25
3439.00170038164	2363.25
3440.91568505936	2384.5
3442.82916872039	2376.5
3444.74215155791	2368.75
3446.65463376468	2402
3448.566615533	2369.5
3450.47809705476	2378
3452.3890785214	2349
3454.29956012393	2362.5
3456.20954205293	2360
3458.11902449853	2355.5
3460.02800765041	2338.5
3461.93649169784	2363.75
3463.84447682962	2341.75
3465.75196323412	2332.5
3467.65895109925	2377
3469.56544061249	2353.25
3471.47143196086	2366
3473.37692533093	2348.5
3475.28192090884	2316.25
3477.18641888026	2343.5
3479.09041943039	2341.5
3480.99392274402	2359.75
3482.89692900545	2357.5
3484.79943839853	2331
3486.70145110666	2341.5
3488.60296731277	2347
3490.50398719933	2333.5
3492.40451094836	2348
3494.30453874141	2348.25
3496.20407075956	2332
3498.10310718342	2319.25
3500.00164819315	2328.5