200.090469251518	819
202.974751419362	838
205.858021632263	827
208.740280737522	828
211.621529580443	824
214.501769004371	861
217.380999850626	815
220.25922295859	812
223.136439165646	857
226.012649307235	838
228.88785421682	847
231.762054725918	856
234.635251664113	854
237.507445859021	858
240.378638136346	883
243.248829319855	887
246.11802023137	927
248.986211690826	873
251.853404516227	916
254.719599523654	871
257.584797527335	869
260.44899933954	874
263.312205770682	853
266.174417629303	840
269.035635722015	859
271.895860853609	868
274.755093826978	850
277.613335443144	850
280.470586501309	859
283.326847798766	856
286.182120131019	847
289.036404291684	848
291.889701072574	838
294.742011263643	829
297.593335653048	836
300.443675027094	848
303.293030170295	848
306.141401865367	846
308.988790893174	846
311.835198032837	885
314.680624061635	863
317.525069755113	855
320.36853588697	875
323.211023229178	867
326.052532551923	860
328.893064623604	856
331.732620210885	842
334.57120007867	859
337.408804990093	863
340.245435706565	836
343.081092987733	849
345.915777591523	846
348.749490274145	864
351.582231790049	837
354.414002891997	836
357.244804331021	820
360.074636856443	865
362.903501215886	868
365.731398155265	850
368.558328418814	879
371.384292749062	856
374.209291886869	859
377.033326571407	865
379.85639754017	872
382.678505529009	882
385.499651272065	900
388.319835501872	920
391.139058949258	1007
393.957322343453	1052
396.774626412011	1113
399.590971880847	1101
402.406359474258	1059
405.220789914893	997
408.034263923801	940
410.8467822204	898
413.658345522483	875
416.468954546242	895
419.278610006277	885
422.087312615557	904
424.895063085503	902
427.701862125901	883
430.507710444981	874
433.312608749366	899
436.116557744146	914
438.919558132791	902
441.721610617238	925
444.522715897856	930
447.322874673457	954
450.122087641299	998
452.920355497092	992
455.717678935009	1016
458.514058647681	989
461.309495326219	977
464.103989660191	943
466.89754233765	921
469.690154045114	913
472.481825467625	876
475.272557288674	886
478.062350190281	892
480.851204852952	863
483.639121955683	885
486.426102176007	867
489.212146189955	888
491.997254672093	874
494.781428295471	887
497.564667731716	891
500.346973650958	890
503.128346721878	875
505.90878761169	916
508.688296986151	909
511.46687550957	906
514.244523844831	910
517.021242653354	930
519.797032595132	958
522.571894328732	960
525.345828511279	983
528.11883579849	980
530.890916844655	995
533.662072302668	961
536.432302823985	934
539.201609058684	918
541.96999165542	915
544.737451261473	898
547.503988522723	908
550.26960408366	904
553.034298587394	923
555.798072675669	905
558.560926988819	906
561.322862165849	912
564.083878844369	906
566.843977660654	900
569.603159249604	889
572.361424244769	914
575.118773278369	900
577.87520698124	917
580.630725982905	917
583.385330911566	902
586.139022394076	881
588.891801055954	907
591.643667521406	936
594.394622413318	921
597.144666353273	927
599.893799961512	906
602.64202385701	922
605.389338657413	920
608.135744979089	934
610.881243437092	915
613.625834645191	925
616.369519215881	942
619.112297760374	908
621.854170888604	916
624.595139209225	899
627.335203329614	928
630.074363855914	912
632.81262139299	933
635.549976544436	890
638.286429912612	901
641.021982098635	906
643.756633702364	934
646.49038532241	910
649.223237556176	915
651.955190999808	922
654.686246248224	927
657.416403895135	926
660.145664533011	913
662.874028753133	932
665.601497145537	922
668.328070299071	932
671.05374880138	918
673.778533238885	929
676.502424196839	933
679.225422259297	945
681.947528009099	933
684.668742027927	927
687.389064896281	920
690.108497193465	925
692.827039497621	948
695.544692385724	954
698.261456433585	931
700.977332215847	938
703.692320305981	964
706.406421276337	935
709.11963569808	956
711.831964141256	924
714.54340717474	910
717.253965366304	931
719.963639282552	953
722.672429488961	933
725.380336549904	936
728.087361028596	939
730.793503487166	943
733.498764486594	959
736.203144586758	964
738.906644346447	945
741.60926432331	969
744.311005073912	938
747.011867153727	956
749.711851117121	957
752.410957517375	951
755.109186906677	982
757.806539836132	980
760.503016855779	939
763.198618514551	959
765.893345360346	959
768.587197939964	967
771.28017679914	971
773.972282482566	967
776.663515533859	981
779.353876495581	963
782.043365909241	997
784.731984315327	972
787.419732253235	993
790.106610261366	985
792.792618877058	1006
795.477758636618	1044
798.162030075313	1062
800.845433727423	1205
803.52797012615	1400
806.209639803714	1609
808.890443291304	1700
811.570381119098	1524
814.249453816265	1318
816.927661910959	1130
819.60500593036	1090
822.281486400603	1057
824.957103846864	1082
827.631858793316	1100
830.305751763135	1101
832.978783278519	1144
835.650953860677	1149
838.322264029848	1196
840.992714305292	1235
843.662305205289	1202
846.331037247157	1129
848.998910947241	1047
851.665926820933	1054
854.332085382674	1044
856.997387145915	1051
859.661832623191	1032
862.325422326066	1014
864.988156765172	990
867.650036450181	1036
870.311061889846	998
872.971233591961	1022
875.630552063409	1010
878.28901781013	1013
880.946631337138	1022
883.603393148533	1032
886.259303747484	999
888.914363636246	1003
891.568573316155	1035
894.22193328767	1006
896.874444050281	1082
899.526106102625	1061
902.176919942416	1049
904.826886066483	1018
907.476004970747	1039
910.124277150255	1018
912.77170309913	1013
915.418283310642	1032
918.064018277175	1022
920.708908490222	1034
923.352954440405	1019
925.996156617486	1048
928.638515510334	1044
931.280031606966	1059
933.920705394521	1065
936.560537359303	1050
939.199527986737	1118
941.837677761392	1111
944.474987167006	1092
947.111456686438	1090
949.747086801734	1073
952.38187799407	1056
955.015830743792	1077
957.648945530418	1051
960.281222832633	1048
962.91266312826	1133
965.543266894336	1191
968.173034607058	1284
970.801966741779	1379
973.43006377307	1406
976.057326174661	1319
978.683754419471	1209
981.309348979623	1132
983.93411032642	1090
986.558038930361	1061
989.181135261144	1076
991.803399787692	1057
994.424832978086	1107
997.045435299653	1126
999.665207218906	1106
1002.2841492016	1095
1004.90226171266	1099
1007.51954521628	1064
1010.13600017584	1087
1012.75162705397	1081
1015.3664263125	1085
1017.9803984125	1059
1020.5935438143	1091
1023.20586297741	1084
1025.81735636063	1104
1028.42802442196	1104
1031.03786761869	1128
1033.64688640732	1154
1036.2550812436	1180
1038.86245258255	1169
1041.46900087844	1153
1044.07472658479	1161
1046.67963015438	1158
1049.28371203927	1106
1051.88697269075	1127
1054.48941255943	1103
1057.09103209513	1085
1059.691831747	1101
1062.29181196343	1131
1064.89097319211	1114
1067.48931587999	1091
1070.08684047333	1119
1072.68354741766	1110
1075.27943715779	1114
1077.87451013787	1094
1080.46876680127	1131
1083.06220759071	1114
1085.65483294822	1118
1088.24664331509	1152
1090.83763913194	1097
1093.42782083869	1101
1096.01718887459	1124
1098.60574367818	1112
1101.19348568732	1157
1103.78041533919	1130
1106.3665330703	1136
1108.95183931646	1141
1111.53633451284	1114
1114.12001909391	1127
1116.70289349349	1152
1119.2849581447	1135
1121.86621348005	1117
1124.44665993134	1151
1127.02629792973	1144
1129.60512790574	1148
1132.18315028919	1158
1134.76036550929	1157
1137.3367739946	1186
1139.912376173	1210
1142.48717247176	1245
1145.06116331748	1266
1147.63434913616	1345
1150.20673035312	1371
1152.77830739307	1356
1155.34908068007	1362
1157.91905063757	1438
1160.48821768838	1468
1163.05658225471	1514
1165.6241447581	1624
1168.19090561951	1627
1170.75686525927	1546
1173.32202409708	1469
1175.88638255206	1404
1178.44994104269	1360
1181.01269998684	1325
1183.57465980182	1263
1186.13582090427	1275
1188.69618371026	1254
1191.25574863529	1258
1193.8145160942	1243
1196.37248650129	1224
1198.92966027025	1227
1201.48603781416	1216
1204.04161954556	1224
1206.59640587635	1224
1209.15039721788	1229
1211.70359398092	1297
1214.25599657564	1295
1216.80760541166	1337
1219.35842089801	1335
1221.90844344314	1323
1224.45767345496	1269
1227.00611134077	1274
1229.55375750736	1247
1232.10061236092	1252
1234.64667630707	1294
1237.1919497509	1294
1239.73643309692	1269
1242.28012674912	1295
1244.82303111089	1262
1247.36514658511	1290
1249.9064735741	1341
1252.44701247964	1338
1254.98676370294	1348
1257.52572764469	1372
1260.06390470506	1313
1262.60129528365	1292
1265.13789977954	1314
1267.67371859128	1303
1270.20875211688	1287
1272.74300075384	1297
1275.2764648991	1305
1277.80914494911	1322
1280.34104129978	1319
1282.87215434652	1338
1285.40248448419	1353
1287.93203210715	1353
1290.46079760927	1377
1292.98878138385	1390
1295.51598382375	1410
1298.04240532127	1397
1300.56804626822	1444
1303.09290705593	1453
1305.6169880752	1409
1308.14028971632	1456
1310.66281236913	1430
1313.18455642292	1445
1315.70552226653	1439
1318.22571028829	1465
1320.74512087603	1494
1323.26375441711	1618
1325.7816112984	1711
1328.29869190629	1774
1330.81499662666	1746
1333.33052584497	1684
1335.84527994613	1598
1338.35925931464	1573
1340.87246433446	1584
1343.38489538916	1515
1345.89655286177	1501
1348.40743713487	1555
1350.91754859059	1577
1353.42688761059	1579
1355.93545457606	1654
1358.44324986772	1681
1360.95027386588	1664
1363.45652695032	1671
1365.96200950042	1589
1368.4667218951	1626
1370.97066451281	1589
1373.47383773156	1599
1375.97624192891	1630
1378.47787748199	1591
1380.97874476746	1563
1383.47884416157	1597
1385.97817604009	1583
1388.4767407784	1573
1390.9745387514	1541
1393.47157033358	1567
1395.96783589898	1624
1398.46333582124	1598
1400.95807047354	1601
1403.45204022864	1635
1405.94524545889	1602
1408.4376865362	1621
1410.92936383205	1667
1413.42027771752	1699
1415.91042856328	1698
1418.39981673955	1690
1420.88844261615	1729
1423.37630656249	1686
1425.86340894757	1757
1428.34975013999	1749
1430.83533050792	1840
1433.32015041912	1879
1435.80421024098	1970
1438.28751034045	1891
1440.77005108411	1869
1443.25183283812	1873
1445.73285596824	1933
1448.21312083984	1960
1450.69262781791	2077
1453.17137726702	2135
1455.64936955137	2232
1458.12660503477	2276
1460.60308408063	2245
1463.07880705197	2259
1465.55377431145	2092
1468.02798622133	1971
1470.50144314348	1995
1472.97414543941	1970
1475.44609347024	1945
1477.91728759673	1906
1480.38772817924	1933
1482.85741557777	1881
1485.32635015194	1866
1487.79453226103	1924
1490.26196226391	1981
1492.72864051911	1928
1495.1945673848	1944
1497.65974321874	1943
1500.1241683784	1919
1502.58784322083	1969
1505.05076810274	1971
1507.51294338049	1958
1509.97436941009	1959
1512.43504654717	2010
1514.89497514704	1977
1517.35415556462	1992
1519.81258815451	1971
1522.27027327095	1978
1524.72721126784	2039
1527.18340249874	2010
1529.63884731684	2074
1532.09354607502	2065
1534.5474991258	2022
1537.00070682136	2056
1539.45316951355	2024
1541.90488755388	2106
1544.35586129353	2100
1546.80609108336	2143
1549.25557727385	2106
1551.70432021519	2083
1554.15232025725	2147
1556.59957774953	2107
1559.04609304125	2154
1561.49186648127	2174
1563.93689841815	2141
1566.38118920011	2120
1568.82473917506	2197
1571.2675486906	2162
1573.70961809399	2222
1576.15094773219	2172
1578.59153795184	2217
1581.03138909928	2209
1583.47050152051	2236
1585.90887556123	2260
1588.34651156686	2318
1590.78340988246	2261
1593.21957085283	2343
1595.65499482245	2355
1598.08968213547	2417
1600.52363313578	2482
1602.95684816694	2545
1605.38932757224	2485
1607.82107169462	2423
1610.25208087677	2472
1612.68235546107	2474
1615.1118957896	2418
1617.54070220415	2402
1619.96877504621	2328
1622.39611465701	2325
1624.82272137746	2322
1627.24859554818	2329
1629.67373750953	2334
1632.09814760155	2352
1634.52182616404	2342
1636.94477353647	2392
1639.36699005806	2358
1641.78847606776	2369
1644.20923190418	2372
1646.62925790573	2353
1649.04855441048	2401
1651.46712175628	2373
1653.88496028066	2369
1656.3020703209	2401
1658.71845221401	2416
1661.13410629671	2448
1663.54903290547	2487
1665.96323237649	2461
1668.37670504571	2445
1670.78945124877	2456
1673.20147132109	2549
1675.61276559779	2585
1678.02333441377	2526
1680.43317810362	2529
1682.84229700171	2575
1685.25069144213	2579
1687.65836175872	2652
1690.06530828507	2666
1692.47153135451	2595
1694.87703130009	2684
1697.28180845467	2592
1699.6858631508	2661
1702.08919572081	2708
1704.49180649676	2677
1706.89369581049	2693
1709.29486399355	2651
1711.69531137731	2701
1714.09503829282	2690
1716.49404507095	2669
1718.89233204229	2673
1721.28989953721	2636
1723.68674788581	2712
1726.08287741798	2696
1728.47828846338	2684
1730.87298135139	2663
1733.26695641119	2686
1735.66021397173	2767
1738.05275436169	2720
1740.44457790954	2696
1742.83568494354	2738
1745.22607579168	2750
1747.61575078175	2658
1750.00471024128	2780
1752.39295449761	2780
1754.78048387783	2771
1757.16729870881	2778
1759.5533993172	2798
1761.93878602942	2782
1764.32345917168	2786
1766.70741906995	2839
1769.09066604999	2826
1771.47320043735	2877
1773.85502255735	2896
1776.2361327351	2881
1778.61653129548	2831
1780.99621856318	2891
1783.37519486264	2895
1785.75346051813	2978
1788.13101585368	2977
1790.5078611931	2970
1792.88399686002	2932
1795.25942317785	2931
1797.63414046977	2942
1800.00814905878	2989
1802.38144926766	2966
1804.75404141898	3032
1807.12592583514	3034
1809.49710283829	3042
1811.86757275039	2986
1814.23733589322	3071
1816.60639258834	3030
1818.97474315712	3107
1821.34238792073	3098
1823.70932720012	3058
1826.07556131608	3029
1828.44109058918	3076
1830.8059153398	3073
1833.17003588812	3130
1835.53345255413	2993
1837.89616565765	3076
1840.25817551827	3059
1842.61948245541	3101
1844.9800867883	3128
1847.33998883598	3066
1849.69918891729	3162
1852.05768735091	3231
1854.4154844553	3130
1856.77258054875	3089
1859.12897594938	3143
1861.4846709751	3128
1863.83966594366	3099
1866.19396117261	3154
1868.54755697932	3149
1870.90045368099	3198
1873.25265159463	3184
1875.60415103708	3265
1877.95495232501	3244
1880.30505577486	3212
1882.65446170299	3255
1885.00317042548	3307
1887.35118225832	3291
1889.69849751726	3307
1892.04511651792	3251
1894.39103957574	3213
1896.73626700596	3326
1899.08079912368	3363
1901.42463624384	3291
1903.76777868116	3344
1906.11022675025	3330
1908.4519807655	3353
1910.79304104117	3423
1913.13340789134	3364
1915.47308162992	3374
1917.81206257067	3365
1920.15035102718	3404
1922.48794731286	3356
1924.82485174096	3431
1927.16106462461	3463
1929.49658627672	3469
1931.83141701008	3448
1934.1655571373	3423
1936.49900697085	3464
1938.83176682301	3478
1941.16383700594	3473
1943.49521783161	3459
1945.82590961186	3442
1948.15591265835	3440
1950.48522728262	3481
1952.81385379602	3504
1955.14179250976	3443
1957.46904373489	3437
1959.79560778233	3470
1962.12148496284	3481
1964.44667558701	3454
1966.77117996529	3471
1969.09499840799	3505
1971.41813122527	3556
1973.74057872714	3534
1976.06234122345	3486
1978.38341902391	3480
1980.7038124381	3535
1983.02352177543	3571
1985.34254734518	3555
1987.66088945649	3689
1989.97854841833	3605
1992.29552453956	3568
1994.61181812887	3528
1996.92742949483	3608
1999.24235894586	3604
2001.55660679023	3595
2003.87017333608	3598
2006.18305889143	3616
2008.49526376413	3654
2010.80678826189	3636
2013.1176326923	3575
2015.42779736282	3597
2017.73728258075	3669
2020.04608865326	3689
2022.3542158874	3619
2024.66166459008	3650
2026.96843506807	3724
2029.274527628	3709
2031.57994257637	3718
2033.88468021957	3738
2036.18874086383	3705
2038.49212481526	3774
2040.79483237983	3767
2043.0968638634	3739
2045.39821957169	3743
2047.69889981028	3819
2049.99890488462	3716
2052.29823510006	3742
2054.59689076181	3783
2056.89487217492	3719
2059.19217964437	3683
2061.48881347497	3748
2063.7847739714	3756
2066.08006143826	3753
2068.37467618	3742
2070.66861850093	3690
2072.96188870527	3741
2075.25448709707	3734
2077.54641398031	3725
2079.83766965881	3766
2082.12825443629	3661
2084.41816861634	3730
2086.70741250242	3800
2088.99598639789	3702
2091.28389060597	3718
2093.57112542978	3704
2095.85769117232	3679
2098.14358813644	3723
2100.42881662491	3701
2102.71337694037	3747
2104.99726938532	3700
2107.28049426219	3665
2109.56305187325	3718
2111.84494252069	3739
2114.12616650655	3638
2116.40672413278	3745
2118.68661570121	3703
2120.96584151355	3772
2123.24440187138	3662
2125.52229707622	3753
2127.79952742943	3669
2130.07609323227	3754
2132.35199478588	3691
2134.62723239132	3723
2136.90180634949	3671
2139.17571696123	3723
2141.44896452723	3753
2143.72154934809	3752
2145.99347172429	3722
2148.26473195623	3761
2150.53533034415	3816
2152.80526718821	3728
2155.07454278848	3785
2157.3431574449	3728
2159.61111145728	3750
2161.87840512538	3717
2164.1450387488	3707
2166.41101262707	3696
2168.67632705959	3687
2170.94098234567	3678
2173.20497878451	3758
2175.46831667519	3693
2177.73099631672	3709
2179.99301800797	3733
2182.25438204772	3719
2184.51508873466	3704
2186.77513836735	3684
2189.03453124427	3685
2191.29326766378	3636
2193.55134792416	3685
2195.80877232355	3681
2198.06554116004	3642
2200.32165473157	3652
2202.577113336	3661
2204.83191727111	3660
2207.08606683453	3640
2209.33956232384	3687
2211.59240403648	3621
2213.84459226982	3575
2216.09612732112	3607
2218.34700948753	3550
2220.59723906612	3556
2222.84681635385	3556
2225.09574164758	3579
2227.34401524408	3571
2229.59163744002	3631
2231.83860853197	3569
2234.08492881639	3558
2236.33059858968	3507
2238.5756181481	3559
2240.81998778784	3543
2243.06370780499	3604
2245.30677849555	3556
2247.54920015539	3546
2249.79097308033	3544
2252.03209756607	3529
2254.27257390822	3515
2256.51240240228	3435
2258.75158334369	3457
2260.99011702777	3477
2263.22800374976	3430
2265.46524380477	3419
2267.70183748786	3417
2269.93778509399	3408
2272.17308691801	3429
2274.40774325467	3514
2276.64175439866	3383
2278.87512064454	3411
2281.10784228682	3446
2283.33991961987	3462
2285.571352938	3414
2287.80214253541	3438
2290.03228870623	3427
2292.26179174449	3344
2294.4906519441	3396
2296.71886959892	3484
2298.9464450027	3366
2301.1733784491	3397
2303.39967023169	3348
2305.62532064395	3352
2307.85032997926	3373
2310.07469853093	3413
2312.29842659216	3389
2314.52151445608	3391
2316.7439624157	3401
2318.96577076397	3285
2321.18693979374	3312
2323.40746979777	3312
2325.62736106873	3346
2327.8466138992	3374
2330.06522858166	3352
2332.28320540853	3336
2334.50054467212	3303
2336.71724666465	3293
2338.93331167827	3286
2341.14874000501	3343
2343.36353193685	3232
2345.57768776564	3291
2347.79120778319	3256
2350.00409228117	3324
2352.21634155121	3287
2354.42795588482	3286
2356.63893557342	3333
2358.84928090838	3257
2361.05899218094	3239
2363.26806968228	3230
2365.47651370347	3238
2367.68432453552	3253
2369.89150246933	3225
2372.09804779571	3207
2374.30396080541	3172
2376.50924178907	3156
2378.71389103725	3210
2380.91790884042	3171
2383.12129548897	3145
2385.3240512732	3183
2387.52617648332	3146
2389.72767140946	3139
2391.92853634165	3113
2394.12877156985	3178
2396.32837738392	3157
2398.52735407365	3136
2400.72570192873	3139
2402.92342123875	3118
2405.12051229325	3078
2407.31697538167	3094
2409.51281079333	3070
2411.70801881751	3080
2413.90259974339	2973
2416.09655386004	3079
2418.28988145648	3036
2420.48258282162	3072
2422.6746582443	3001
2424.86610801325	3082
2427.05693241713	3042
2429.24713174452	3018
2431.43670628389	3056
2433.62565632365	3017
2435.81398215212	2965
2438.00168405752	2997
2440.18876232799	2976
2442.37521725158	3023
2444.56104911628	2984
2446.74625820994	2943
2448.93084482038	2929
2451.1148092353	2966
2453.29815174233	2991
2455.480872629	2980
2457.66297218275	2920
2459.84445069097	2930
2462.02530844092	2889
2464.2055457198	2892
2466.38516281471	2890
2468.56416001267	2883
2470.74253760061	2863
2472.92029586537	2885
2475.09743509372	2877
2477.27395557232	2906
2479.44985758777	2874
2481.62514142655	2914
2483.79980737508	2863
2485.97385571969	2835
2488.14728674661	2883
2490.32010074198	2838
2492.49229799188	2873
2494.66387878228	2831
2496.83484339905	2815
2499.00519212802	2843
2501.17492525488	2842
2503.34404306528	2878
2505.51254584473	2834
2507.6804338787	2843
2509.84770745254	2866
2512.01436685153	2848
2514.18041236085	2812
2516.34584426561	2813
2518.51066285081	2881
2520.67486840138	2863
2522.83846120214	2820
2525.00144153784	2826
2527.16380969314	2803
2529.32556595261	2819
2531.48671060072	2785
2533.64724392186	2805
2535.80716620033	2821
2537.96647772034	2815
2540.12517876602	2749
2542.2832696214	2778
2544.44075057041	2766
2546.59762189691	2808
2548.75388388466	2844
2550.90953681735	2772
2553.06458097853	2776
2555.21901665172	2735
2557.37284412031	2748
2559.5260636676	2764
2561.67867557684	2814
2563.83068013113	2731
2565.98207761351	2763
2568.13286830695	2715
2570.28305249429	2724
2572.43263045829	2753
2574.58160248163	2734
2576.72996884689	2673
2578.87772983655	2751
2581.02488573303	2708
2583.1714368186	2697
2585.31738337549	2736
2587.46272568582	2703
2589.60746403161	2747
2591.75159869479	2769
2593.89512995722	2652
2596.03805810061	2672
2598.18038340665	2698
2600.32210615686	2654
2602.46322663274	2710
2604.60374511563	2679
2606.74366188683	2624
2608.88297722751	2659
2611.02169141875	2643
2613.15980474156	2690
2615.29731747681	2687
2617.43422990532	2663
2619.57054230779	2675
2621.70625496483	2663
2623.84136815694	2612
2625.97588216456	2682
2628.10979726799	2648
2630.24311374746	2676
2632.3758318831	2630
2634.50795195493	2696
2636.6394742429	2650
2638.77039902682	2671
2640.90072658645	2686
2643.0304572014	2683
2645.15959115123	2731
2647.28812871538	2706
2649.41607017319	2684
2651.5434158039	2680
2653.67016588665	2725
2655.79632070049	2712
2657.92188052436	2684
2660.04684563711	2704
2662.17121631749	2688
2664.29499284413	2694
2666.41817549558	2651
2668.54076455027	2666
2670.66276028656	2721
2672.78416298267	2660
2674.90497291675	2687
2677.02519036682	2725
2679.14481561082	2669
2681.26384892658	2683
2683.38229059182	2664
2685.50014088417	2686
2687.61740008114	2670
2689.73406846017	2724
2691.85014629854	2660
2693.96563387347	2736
2696.08053146206	2729
2698.1948393413	2710
2700.3085577881	2744
2702.42168707924	2776
2704.53422749139	2769
2706.64617930112	2723
2708.75754278492	2805
2710.86831821913	2790
2712.97850588002	2813
2715.08810604372	2839
2717.19711898628	2942
2719.30554498363	2936
2721.41338431158	2879
2723.52063724586	2921
2725.62730406206	2869
2727.73338503569	2843
2729.83888044213	2823
2731.94379055664	2817
2734.04811565441	2873
2736.15185601048	2854
2738.25501189979	2804
2740.35758359718	2761
2742.45957137738	2761
2744.56097551499	2750
2746.6617962845	2791
2748.7620339603	2734
2750.86168881666	2803
2752.96076112774	2742
2755.05925116758	2731
2757.15715921012	2810
2759.25448552917	2657
2761.35123039843	2696
2763.44739409148	2776
2765.5429768818	2739
2767.63797904275	2749
2769.73240084756	2763
2771.82624256934	2747
2773.91950448113	2789
2776.01218685579	2774
2778.10428996609	2830
2780.19581408469	2764
2782.28675948414	2770
2784.37712643683	2729
2786.46691521507	2716
2788.55612609104	2812
2790.64475933678	2797
2792.73281522425	2864
2794.82029402525	2747
2796.90719601149	2769
2798.99352145453	2768
2801.07927062583	2826
2803.16444379672	2803
2805.24904123841	2810
2807.33306322197	2840
2809.41651001838	2875
2811.49938189847	2823
2813.58167913296	2944
2815.66340199243	2938
2817.74455074734	2870
2819.82512566805	2973
2821.90512702475	2943
2823.98455508754	3020
2826.06341012637	3053
2828.14169241109	3102
2830.2194022114	3320
2832.29653979686	3534
2834.37310543694	3798
2836.44909940096	4113
2838.5245219581	4206
2840.59937337744	4191
2842.67365392791	3987
2844.74736387829	3793
2846.82050349727	3617
2848.8930730534	3532
2850.96507281506	3429
2853.03650305056	3366
2855.10736402802	3445
2857.17765601545	3544
2859.24737928074	3824
2861.31653409164	4108
2863.38512071574	4498
2865.45313942054	4837
2867.52059047335	4844
2869.58747414139	4869
2871.65379069173	4926
2873.7195403913	4957
2875.78472350688	5133
2877.84934030515	5334
2879.91339105262	5685
2881.97687601567	5772
2884.03979546053	5743
2886.10214965332	5480
2888.16393886	5326
2890.22516334639	5172
2892.28582337816	4948
2894.34591922087	4867
2896.40545113992	4827
2898.46441940054	4887
2900.52282426787	5044
2902.58066600687	5014
2904.63794488237	5254
2906.69466115906	5134
2908.75081510147	4953
2910.806406974	4744
2912.8614370409	4681
2914.91590556626	4641
2916.96981281404	4617
2919.02315904807	4602
2921.07594453199	4612
2923.12816952932	4615
2925.17983430343	4525
2927.23093911753	4497
2929.28148423469	4363
2931.33146991782	4147
2933.3808964297	3945
2935.42976403294	3881
2937.47807299	3771
2939.5258235632	3711
2941.57301601469	3824
2943.61965060648	3851
2945.66572760042	4068
2947.71124725823	4335
2949.75620984143	4576
2951.80061561143	4823
2953.84446482945	4928
2955.88775775656	5088
2957.9304946537	5494
2959.97267578162	5615
2962.01430140095	5548
2964.05537177211	5310
2966.09588715541	5081
2968.13584781097	4700
2970.17525399875	4387
2972.21410597859	4049
2974.25240401011	3849
2976.29014835283	3650
2978.32733926604	3574
2980.36397700892	3473
2982.40006184049	3400
2984.43559401955	3452
2986.4705738048	3327
2988.50500145473	3361
2990.53887722771	3272
2992.57220138189	3226
2994.6049741753	3315
2996.63719586576	3275
2998.66886671097	3169
3000.69998696843	3283
3002.73055689549	3306
3004.7605767493	3275
3006.79004678688	3330
3008.81896726505	3314
3010.84733844048	3272
3012.87516056966	3308
3014.9024339089	3294
3016.92915871433	3261
3018.95533524196	3269
3020.98096374756	3252
3023.00604448675	3299
3025.030577715	3308
3027.05456368757	3320
3029.07800265956	3312
3031.10089488589	3278
3033.12324062131	3323
3035.14504012038	3312
3037.16629363749	3331
3039.18700142685	3399
3041.20716374249	3284
3043.22678083826	3256
3045.24585296782	3294
3047.26438038468	3305
3049.28236334212	3295
3051.29980209329	3272
3053.31669689111	3230
3055.33304798835	3329
3057.34885563757	3371
3059.36412009117	3289
3061.37884160134	3271
3063.39302042011	3336
3065.40665679931	3332
3067.41975099058	3316
3069.43230324538	3350
3071.44431381495	3299
3073.45578295041	3359
3075.46671090261	3383
3077.47709792227	3305
3079.48694425989	3300
3081.49625016578	3347
3083.50501589008	3356
3085.5132416827	3340
3087.5209277934	3336
3089.52807447169	3394
3091.53468196695	3349
3093.54075052832	3370
3095.54628040476	3352
3097.55127184503	3386
3099.55572509769	3298
3101.55964041111	3369
3103.56301803346	3304
3105.5658582127	3361
3107.56816119661	3405
3109.56992723275	3358
3111.57115656849	3411
3113.571849451	3333
3115.57200612724	3403
3117.57162684397	3368
3119.57071184775	3332
3121.56926138493	3427
3123.56727570166	3400
3125.56475504389	3400
3127.56169965735	3443
3129.55810978757	3439
3131.55398567987	3472
3133.54932757937	3378
3135.54413573099	3470
3137.53841037939	3460
3139.53215176909	3441
3141.52536014435	3455
3143.51803574924	3409
3145.51017882762	3500
3147.50178962311	3482
3149.49286837916	3447
3151.48341533897	3445
3153.47343074553	3523
3155.46291484164	3483
3157.45186786985	3496
3159.44029007252	3563
3161.42818169179	3470
3163.41554296955	3485
3165.40237414753	3569
3167.38867546718	3474
3169.37444716975	3504
3171.35968949631	3593
3173.34440268764	3544
3175.32858698436	3566
3177.31224262682	3546
3179.29536985517	3546
3181.27796890934	3562
3183.26004002902	3501
3185.24158345368	3535
3187.22259942256	3487
3189.2030881747	3540
3191.18304994886	3608
3193.16248498363	3597
3195.14139351733	3541
3197.11977578807	3611
3199.09763203371	3567
3201.07496249191	3539
3203.05176740007	3502
3205.02804699537	3591
3207.00380151475	3577
3208.97903119493	3549
3210.95373627238	3552
3212.92791698335	3595
3214.90157356383	3578
3216.8747062496	3660
3218.84731527619	3644
3220.81940087889	3571
3222.79096329275	3673
3224.76200275259	3585
3226.73251949298	3688
3228.70251374825	3666
3230.67198575251	3614
3232.64093573959	3628
3234.6093639431	3772
3236.57727059641	3658
3238.54465593261	3643
3240.51152018461	3645
3242.47786358502	3713
3244.44368636621	3662
3246.40898876031	3682
3248.37377099923	3616
3250.33803331458	3638
3252.30177593775	3714
3254.26499909987	3657
3256.22770303184	3685
3258.18988796427	3664
3260.15155412755	3657
3262.1127017518	3720
3264.0733310669	3673
3266.03344230246	3785
3267.99303568784	3687
3269.95211145215	3672
3271.91066982422	3750
3273.86871103267	3707
3275.82623530581	3812
3277.7832428717	3773
3279.73973395818	3719
3281.69570879278	3722
3283.6511676028	3795
3285.60611061527	3730
3287.56053805694	3753
3289.51445015432	3759
3291.46784713364	3660
3293.42072922088	3732
3295.37309664173	3747
3297.32494962163	3728
3299.27628838575	3728
3301.227113159	3807
3303.17742416601	3734
3305.12722163114	3821
3307.07650577848	3745
3309.02527683185	3798
3310.9735350148	3770
3312.9212805506	3804
3314.86851366225	3820
3316.81523457249	3757
3318.76144350377	3807
3320.70714067825	3841
3322.65232631783	3785
3324.59700064415	3761
3326.54116387854	3802
3328.48481624207	3785
3330.42795795551	3758
3332.37058923938	3735
3334.31271031389	3708
3336.25432139898	3740
3338.19542271432	3810
3340.13601447927	3707
3342.07609691292	3826
3344.01567023407	3759
3345.95473466124	3744
3347.89329041266	3752
3349.83133770627	3747
3351.76887675973	3700
3353.70590779039	3781
3355.64243101534	3735
3357.57844665135	3690
3359.51395491492	3787
3361.44895602224	3720
3363.38345018922	3678
3365.31743763148	3787
3367.25091856432	3768
3369.18389320278	3681
3371.11636176156	3801
3373.0483244551	3732
3374.97978149754	3758
3376.91073310269	3757
3378.84117948409	3779
3380.77112085498	3760
3382.70055742826	3746
3384.62948941659	3780
3386.55791703227	3664
3388.48584048733	3803
3390.41325999348	3795
3392.34017576214	3831
3394.2665880044	3790
3396.19249693107	3807
3398.11790275263	3746
3400.04280567926	3804
3401.96720592084	3728
3403.89110368692	3748
3405.81449918675	3833
3407.73739262928	3758
3409.65978422311	3815
3411.58167417658	3831
3413.50306269768	3860
3415.42394999408	3780
3417.34433627316	3851
3419.26422174195	3737
3421.18360660721	3778
3423.10249107532	3797
3425.02087535239	3789
3426.93875964421	3775
3428.8561441562	3754
3430.77302909353	3748
3432.68941466097	3762
3434.60530106301	3700
3436.52068850383	3706
3438.43557718726	3806
3440.34996731681	3739
3442.26385909565	3654
3444.17725272664	3712
3446.09014841231	3736
3448.00254635486	3628
3449.91444675614	3668
3451.82584981771	3698
3453.73675574076	3694
3455.64716472616	3667
3457.55707697445	3559
3459.46649268584	3641
3461.37541206018	3717
3463.28383529703	3658
3465.19176259555	3661
3467.09919415464	3665
3469.00613017278	3673
3470.91257084817	3632
3472.81851637863	3660
3474.72396696168	3614
3476.62892279446	3606
3478.53338407379	3570
3480.43735099614	3530
3482.34082375764	3598
3484.24380255404	3564
3486.1462875808	3591
3488.048279033	3597
3489.94977710537	3564
3491.85078199231	3574
3493.75129388783	3543
3495.65131298566	3546
3497.5508394791	3576
3499.44987356115	3505