
200.475549058548	1686.5
203.359249075907	1680.75
206.241936533635	1680.25
209.123612299129	1688.5
212.004277237673	1706.25
214.883932212466	1689
217.762578084596	1706
220.640215713076	1673.5
223.516845954837	1684.5
226.392469664723	1698
229.26708769552	1712
232.14070089794	1707.5
235.013310120656	1737
237.884916210263	1721.5
240.755520011335	1701.75
243.625122366404	1707.25
246.493724115942	1715.75
249.361326098424	1725.25
252.227929150296	1725.25
255.093534105978	1748.5
257.958141797884	1747.5
260.821753056447	1740
263.684368710063	1743.5
266.545989585164	1721
269.406616506196	1721.25
272.266250295612	1719.25
275.124891773896	1745.5
277.982541759568	1707.75
280.839201069171	1724.5
283.69487051732	1719.5
286.549550916647	1734.5
289.403243077853	1725
292.255947809714	1722
295.10766591904	1716
297.958398210747	1715.25
300.808145487801	1735.75
303.656908551278	1741.25
306.504688200319	1746
309.351485232171	1735
312.197300442189	1722.75
315.042134623818	1730
317.885988568629	1742
320.72886306631	1744.5
323.570758904654	1719
326.411676869615	1729.25
329.251617745253	1721.25
332.09058231378	1738.75
334.928571355551	1726.5
337.765585649082	1737.5
340.601625971023	1751
343.436693096224	1735.25
346.270787797657	1735.75
349.103910846512	1745.5
351.936063012115	1756.5
354.767245062016	1744.75
357.597457761927	1757.5
360.426701875771	1756.75
363.25497816566	1752.5
366.082287391928	1787
368.908630313104	1769
371.734007685947	1750.5
374.558420265435	1790.5
377.381868804758	1775.25
380.204354055371	1753
383.02587676694	1757.25
385.846437687393	1773
388.666037562889	1758.75
391.484677137862	1782.25
394.302357154986	1776
397.119078355226	1780.25
399.934841477789	1767.75
402.749647260174	1783.5
405.563496438161	1801.25
408.376389745808	1790
411.188327915483	1763.75
413.999311677824	1791.5
416.809341761793	1762
419.61841889465	1796.75
422.426543801968	1775.5
425.233717207637	1784.5
428.039939833878	1800
430.845212401226	1818.75
433.64953562856	1814.5
436.452910233093	1813
439.255336930382	1818.25
442.056816434335	1782.5
444.857349457205	1790.5
447.65693670962	1819.5
450.455578900554	1818
453.253276737363	1789.5
456.050030925759	1796.25
458.84584216986	1789
461.640711172138	1792
464.434638633487	1802
467.227625253163	1796.75
470.019671728842	1793.25
472.810778756586	1788.25
475.600947030889	1788
478.390177244633	1784
481.178470089144	1776.25
483.965826254145	1766.25
486.752246427819	1809.5
489.537731296754	1787.75
492.322281545992	1799.75
495.105897859008	1812.25
497.888580917748	1813.25
500.670331402573	1812
503.451149992328	1815
506.231037364323	1796.25
509.009994194319	1820.75
511.788021156572	1792.75
514.565118923787	1824
517.341288167165	1826.75
520.116529556395	1832.25
522.890843759669	1797.25
525.664231443643	1822
528.436693273514	1816.5
531.208229912947	1830.5
533.978842024138	1804
536.7485302678	1809.75
539.517295303154	1827.25
542.285137787949	1777.25
545.052058378482	1780.25
547.818057729542	1807.5
550.583136494504	1798.75
553.347295325253	1785
556.110534872227	1800.75
558.872855784437	1790.5
561.63425870943	1814.25
564.39474429332	1817
567.154313180785	1798.75
569.912966015068	1815.75
572.67070343802	1811
575.427526090021	1809
578.183434610073	1822
580.938429635768	1834.75
583.692511803256	1866.5
586.445681747326	1875.25
589.197940101341	1890.5
591.949287497293	1896.5
594.699724565755	1903.5
597.449251935952	1906.75
600.197870235697	1858.5
602.945580091462	1846
605.692382128313	1816.5
608.43827696997	1843
611.183265238786	1826
613.92734755576	1812.75
616.670524540528	1790.5
619.412796811394	1792.75
622.154164985306	1821.75
624.894629677859	1798
627.634191503348	1791.75
630.372851074691	1819.5
633.110609003535	1801.25
635.847465900133	1797.5
638.5834223735	1784.25
641.31847903127	1780.25
644.052636479799	1782
646.78589532413	1791.75
649.518256168005	1806.5
652.249719613883	1804.5
654.9802862629	1805.75
657.709956714938	1801
660.438731568556	1825.75
663.166611421075	1803.5
665.893596868511	1813.5
668.619688505609	1795.75
671.344886925857	1818.75
674.06919272149	1842.75
676.792606483454	1911.75
679.515128801468	1969
682.236760263971	1966.25
684.95750145819	1931.5
687.677352970088	1908.5
690.396315384383	1888
693.114389284579	1859
695.831575252931	1866.25
698.547873870488	1856.5
701.26328571705	1833.5
703.977811371216	1814
706.691451410374	1790
709.404206410691	1819
712.116076947135	1801.25
714.827063593468	1831.25
717.537166922259	1828.25
720.246387504871	1819
722.954725911495	1795.25
725.662182711119	1819.25
728.368758471555	1810.25
731.074453759451	1807
733.779269140254	1812.25
736.483205178258	1802.75
739.186262436579	1819.25
741.888441477189	1836.25
744.589742860895	1858.75
747.290167147334	1895.75
749.989714895015	1911
752.688386661259	1861.5
755.386183002312	1850.5
758.083104473222	1850.25
760.779151627929	1814.25
763.474325019226	1821.5
766.168625198792	1829.25
768.86205271717	1809.5
771.554608123806	1839
774.246291966996	1842.5
776.937104793953	1820.25
779.627047150767	1830.25
782.316119582421	1816
785.004322632802	1847.75
787.691656844701	1813.5
790.378122759819	1825.25
793.063720918755	1807
795.74845186104	1812.5
798.432316125098	1805.75
801.115314248287	1823.75
803.797446766894	1817.5
806.478714216137	1808.75
809.159117130155	1817.75
811.838656042029	1841.5
814.517331483774	1848.25
817.19514398637	1815.75
819.872094079703	1807.25
822.548182292652	1815
825.223409153026	1830.75
827.897775187597	1847.25
830.571280922097	1868.75
833.243926881234	1845.5
835.915713588667	1882.75
838.586641567043	1898.5
841.256711337974	1876.25
843.925923422052	1867
846.594278338864	1877.5
849.261776606963	1874
851.928418743908	1858.5
854.594205266247	1842.75
857.259136689525	1855.5
859.923213528287	1851.25
862.586436296082	1851
865.24880550546	1847.75
867.910321667994	1842.75
870.570985294264	1823
873.230796893869	1848
875.88975697543	1852.75
878.5478660466	1850
881.205124614036	1835.75
883.861533183448	1823.5
886.517092259586	1847.5
889.171802346213	1827.5
891.825663946165	1829.25
894.478677561296	1835
897.130843692517	1831.5
899.782162839801	1833.5
902.432635502166	1825.75
905.082262177682	1809.25
907.73104336351	1797.25
910.378979555833	1849.25
913.026071249948	1824.5
915.672318940189	1818
918.317723119977	1859.75
920.96228428181	1842.25
923.606002917288	1846
926.248879517054	1841.5
928.890914570882	1831.5
931.532108567604	1843
934.172461995178	1829.25
936.811975340628	1825.5
939.450649090111	1849.5
942.088483728854	1843.5
944.725479741231	1827
947.361637610698	1849
949.996957819825	1867.75
952.63144085032	1847
955.26508718299	1886.75
957.897897297789	1833.25
960.529871673774	1861.25
963.161010789143	1830
965.791315121223	1841.25
968.420785146496	1845
971.049421340547	1838.5
973.677224178144	1832.25
976.304194133165	1826.5
978.930331678668	1834.25
981.555637286841	1822
984.180111429039	1841.5
986.803754575769	1833.5
989.426567196693	1825
992.048549760653	1819.75
994.669702735642	1824
997.290026588849	1819
999.909521786598	1834.75
1002.52818879443	1817
1005.14602807703	1849
1007.76304009828	1854.75
1010.37922532126	1860.75
1012.99458420824	1851.25
1015.60911722064	1828.5
1018.22282481911	1827.75
1020.8357074635	1829
1023.44776561284	1859.5
1026.05899972539	1862
1028.66941025859	1855.75
1031.27899766911	1847.5
1033.8877624128	1867.75
1036.49570494477	1896
1039.1028257193	1873
1041.70912518995	1898.75
1044.31460380945	1901
1046.91926202978	1862
1049.52310030213	1874.75
1052.12611907697	1869.25
1054.72831880395	1869.5
1057.329699932	1904.5
1059.93026290926	1925
1062.53000818313	1908.5
1065.12893620026	1920.75
1067.72704740654	1923
1070.32434224711	1884
1072.92082116639	1895
1075.51648460802	1882.5
1078.11133301493	1886.5
1080.70536682931	1901.75
1083.29858649259	1886.5
1085.89099244551	1873
1088.48258512806	1860
1091.07336497949	1856.25
1093.66333243836	1855.5
1096.2524879425	1851.5
1098.84083192899	1864.5
1101.42836483425	1860.75
1104.01508709395	1876
1106.60099914306	1852.25
1109.18610141586	1854.75
1111.77039434588	1876.25
1114.35387836603	1858.25
1116.93655390844	1880
1119.51842140458	1875.5
1122.09948128525	1927
1124.67973398051	1929
1127.25917991977	1935.25
1129.83781953174	1944
1132.41565324445	1918.75
1134.99268148526	1912.5
1137.56890468084	1948.25
1140.14432325718	2026.25
1142.71893763963	2094.5
1145.29274825285	2042.5
1147.86575552081	1984.75
1150.43795986686	1927.25
1153.00936171367	1932.25
1155.57996148323	1904.75
1158.14975959691	1895
1160.7187564754	1906
1163.28695253876	1901
1165.85434820638	1892
1168.42094389704	1879
1170.98674002881	1866.25
1173.55173701918	1872.75
1176.11593528499	1865.25
1178.67933524243	1862
1181.24193730705	1856.25
1183.8037418938	1859.5
1186.36474941697	1886.75
1188.92496029025	1877.75
1191.48437492668	1861
1194.0429937387	1874.5
1196.60081713811	1872.25
1199.15784553612	1849.25
1201.71407934332	1871.25
1204.26951896966	1823.5
1206.82416482453	1846.75
1209.37801731668	1854.5
1211.93107685425	1851.5
1214.4833438448	1848
1217.03481869529	1867.5
1219.58550181206	1848.5
1222.13539360089	1837.25
1224.68449446692	1870
1227.23280481476	1845
1229.78032504839	1837
1232.32705557121	1854
1234.87299678605	1846
1237.41814909516	1839.5
1239.96251290019	1843
1242.50608860226	1858.25
1245.04887660185	1838.5
1247.59087729894	1833.5
1250.13209109286	1868.75
1252.67251838247	1883
1255.21215956601	1879
1257.75101504113	1880
1260.28908520499	1868.25
1262.82637045415	1886.5
1265.36287118461	1886.25
1267.89858779184	1893.25
1270.43352067075	1931
1272.96767021569	1901.5
1275.5010368205	1900
1278.03362087842	1919
1280.56542278221	1912.5
1283.09644292403	1923.5
1285.62668169556	1944.75
1288.1561394879	1938
1290.68481669165	1979
1293.21271369685	1978.5
1295.73983089304	2027.5
1298.2661686692	2024.5
1300.79172741383	2042.25
1303.31650751487	2016
1305.84050935976	2014.25
1308.36373333541	1989
1310.88617982822	1965
1313.4078492241	2009.75
1315.92874190839	1976
1318.44885826599	1949.75
1320.96819868124	2005
1323.48676353801	2009.25
1326.00455321965	1990.25
1328.521568109	2026.5
1331.03780858842	2056
1333.55327503978	2143.25
1336.06796784442	2232.75
1338.58188738323	2330.5
1341.09503403658	2389.25
1343.60740818437	2391
1346.11901020598	2282
1348.62984048037	2161.25
1351.13989938596	2048.5
1353.6491873007	2034.75
1356.15770460209	2005
1358.66545166712	2016.75
1361.17242887233	2025
1363.67863659378	2029.5
1366.18407520705	2024
1368.68874508726	2025.25
1371.19264660907	2024.75
1373.69578014668	1980.5
1376.19814607381	1976.25
1378.69974476373	1973
1381.20057658924	1981.25
1383.7006419227	1977.25
1386.19994113603	1951.75
1388.69847460065	1940.25
1391.19624268756	1952.25
1393.69324576732	1924.5
1396.18948421004	1927.5
1398.68495838535	1933.5
1401.17966866248	1919
1403.6736154102	1934.5
1406.16679899686	1951.75
1408.65921979033	1936.5
1411.1508781581	1969.5
1413.64177446718	1952.25
1416.13190908416	1970.25
1418.62128237524	1968
1421.10989470614	1980
1423.59774644217	1985.25
1426.08483794823	1980.25
1428.57116958879	2037
1431.05674172789	2056.25
1433.54155472916	2108.5
1436.02560895582	2101.5
1438.50890477068	2146.5
1440.99144253608	2189.25
1443.47322261404	2177.5
1445.9542453661	2211
1448.43451115342	2288.5
1450.91402033676	2383
1453.39277327646	2382.5
1455.87077033246	2315.25
1458.34801186431	2195.25
1460.82449823115	2145.75
1463.30022979173	2107.75
1465.77520690441	2075.25
1468.24942992714	2098.75
1470.72289921748	2075.75
1473.19561513262	2060.75
1475.66757802934	2045
1478.13878826404	2064
1480.60924619276	2055
1483.0789521711	2062.25
1485.54790655434	2062.75
1488.01610969734	2016.25
1490.48356195459	1987.25
1492.95026368022	1978.75
1495.41621522796	1982.75
1497.88141695119	1987.75
1500.3458692029	1997.25
1502.80957233573	2014.25
1505.27252670192	2005.75
1507.7347326534	2006.75
1510.19619054165	2018
1512.65690071788	2052.25
1515.11686353289	2078.75
1517.5760793371	2155.25
1520.0345484806	2289.75
1522.49227131314	2583
1524.94924818408	2912.75
1527.40547944245	3081.5
1529.86096543691	2936
1532.31570651578	2669
1534.76970302704	2337.5
1537.2229553183	2225.25
1539.67546373685	2149.75
1542.1272286296	2091.5
1544.57825034318	2086.75
1547.0285292238	2037.75
1549.4780656174	2030.5
1551.92685986953	2019
1554.37491232545	2011
1556.82222333005	2030
1559.26879322789	2009.75
1561.71462236323	2053
1564.15971107996	2036.5
1566.60405972167	2021.75
1569.0476686316	2024.75
1571.49053815268	2016.75
1573.93266862751	2051.75
1576.37406039838	2030.5
1578.81471380725	2058.5
1581.25462919573	2047.5
1583.69380690517	2058.25
1586.13224727656	2037.5
1588.56995065059	2071
1591.00691736765	2081.75
1593.44314776777	2093.5
1595.87864219074	2071.25
1598.31340097597	2066.75
1600.74742446261	2073.25
1603.18071298948	2046.75
1605.61326689511	2044.5
1608.04508651771	2059
1610.47617219521	2031
1612.90652426521	2034.5
1615.33614306503	2016.75
1617.7650289317	2008.75
1620.19318220193	2003
1622.62060321214	2018.5
1625.04729229848	2005.75
1627.47324979677	2027
1629.89847604256	2017.75
1632.32297137112	2044.25
1634.74673611742	2050.75
1637.16977061614	2025.5
1639.59207520166	2058.25
1642.01365020812	2027.5
1644.43449596933	2038.5
1646.85461281884	2026.25
1649.27400108993	2002
1651.69266111558	2005.75
1654.11059322849	2004.5
1656.52779776111	2015.25
1658.9442750456	1993.25
1661.36002541383	1996.5
1663.77504919742	2031.75
1666.18934672772	2029.75
1668.60291833579	2028.5
1671.01576435243	2019
1673.42788510819	2017.25
1675.83928093333	2060.75
1678.24995215785	2069.75
1680.65989911149	2052.5
1683.06912212375	2047.5
1685.47762152383	2092.5
1687.88539764068	2056.5
1690.29245080301	2053.75
1692.69878133927	2053.5
1695.10438957763	2061
1697.50927584602	2083
1699.91344047213	2086.5
1702.31688378338	2062
1704.71960610694	2099.5
1707.12160776972	2076.25
1709.52288909843	2067.75
1711.92345041946	2063
1714.32329205902	2070.25
1716.72241434301	2085.5
1719.12081759716	2058.25
1721.51850214689	2101
1723.91546831742	2088.25
1726.31171643371	2071.5
1728.70724682049	2074.75
1731.10205980225	2073.75
1733.49615570323	2057.75
1735.88953484746	2061.5
1738.28219755871	2088.25
1740.67414416053	2075
1743.06537497623	2038
1745.4558903289	2074
1747.84569054139	2087.5
1750.23477593633	2070.5
1752.6231468361	2051.75
1755.01080356288	2077.5
1757.3977464386	2066.5
1759.783975785	2094.75
1762.16949192355	2073
1764.55429517554	2099
1766.93838586201	2069.5
1769.32176430379	2109.25
1771.70443082149	2078.25
1774.08638573552	2102
1776.46762936603	2100.5
1778.84816203299	2107
1781.22798405614	2121.5
1783.60709575502	2112.25
1785.98549744894	2154.75
1788.363189457	2150
1790.74017209811	2128.5
1793.11644569094	2133.5
1795.49201055396	2116.75
1797.86686700545	2132
1800.24101536348	2138.5
1802.61445594588	2128
1804.98718907032	2145.25
1807.35921505424	2133.75
1809.73053421488	2106.5
1812.10114686928	2160.75
1814.47105333431	2158.75
1816.84025392657	2147.5
1819.20874896252	2129.5
1821.57653875842	2143.5
1823.9436236303	2156.25
1826.31000389401	2163.75
1828.67567986522	2141.75
1831.0406518594	2148
1833.40492019179	2147.5
1835.7684851775	2122.5
1838.1313471314	2142.25
1840.49350636819	2138
1842.85496320238	2148.25
1845.21571794829	2153.75
1847.57577092004	2165
1849.9351224316	2176.25
1852.29377279671	2169.5
1854.65172232894	2181
1857.00897134171	2149.75
1859.36552014821	2154
1861.72136906146	2186.75
1864.07651839433	2162
1866.43096845946	2179.5
1868.78471956935	2200
1871.13777203631	2198.5
1873.49012617247	2186.5
1875.84178228977	2181.25
1878.19274070001	2188
1880.54300171478	2213
1882.89256564551	2204.75
1885.24143280346	2237.75
1887.58960349972	2242.5
1889.93707804519	2199.75
1892.28385675061	2234.25
1894.62993992657	2252.5
1896.97532788346	2261.5
1899.32002093153	2272
1901.66401938082	2248.25
1904.00732354126	2265.75
1906.34993372257	2244
1908.69185023433	2268
1911.03307338592	2273.75
1913.37360348663	2280.25
1915.7134408455	2291.75
1918.05258577147	2256.5
1920.3910385733	2292
1922.72879955958	2293
1925.06586903876	2269
1927.4022473191	2304.25
1929.73793470875	2305.5
1932.07293151565	2315
1934.40723804763	2308
1936.74085461234	2286
1939.07378151727	2290
1941.40601906977	2287.75
1943.73756757704	2309
1946.06842734612	2321.25
1948.39859868389	2315.5
1950.7280818971	2321.5
1953.05687729233	2330
1955.38498517601	2313.75
1957.71240585444	2302.25
1960.03913963377	2280
1962.36518681997	2313
1964.69054771891	2313
1967.01522263627	2302.75
1969.33921187762	2293
1971.66251574837	2291.25
1973.98513455379	2325.5
1976.30706859901	2343.5
1978.62831818899	2334
1980.94888362858	2340
1983.2687652225	2357.75
1985.58796327528	2355.5
1987.90647809136	2337
1990.224309975	2373.25
1992.54145923038	2362.75
1994.85792616145	2396.25
1997.17371107212	2389
1999.4888142661	2376.75
2001.80323604699	2392.5
2004.11697671825	2407.75
2006.4300365832	2394
2008.74241594504	2393
2011.05411510683	2426.25
2013.36513437149	2405.75
2015.6754740418	2437
2017.98513442044	2417.25
2020.29411580994	2442.25
2022.60241851269	2442.75
2024.91004283098	2412.5
2027.21698906692	2425
2029.52325752256	2478.5
2031.82884849977	2456
2034.1337623003	2481
2036.4379992258	2457
2038.74155957777	2462.25
2041.04444365759	2464.75
2043.34665176652	2484.25
2045.64818420569	2473.25
2047.9490412761	2491.25
2050.24922327865	2481
2052.54873051409	2490.75
2054.84756328307	2489.5
2057.14572188611	2487.75
2059.44320662359	2516.25
2061.74001779581	2502.25
2064.03615570292	2481.75
2066.33162064497	2473
2068.62641292185	2487.5
2070.9205328334	2490.25
2073.21398067927	2515.25
2075.50675675905	2527.25
2077.79886137218	2530
2080.090294818	2536.25
2082.38105739572	2521
2084.67114940445	2507
2086.96057114319	2535
2089.24932291079	2533
2091.53740500603	2518.75
2093.82481772755	2531.75
2096.11156137388	2510.75
2098.39763624345	2535.5
2100.68304263458	2545.5
2102.96778084545	2532
2105.25185117417	2557.75
2107.5352539187	2574.5
2109.81798937692	2547.5
2112.1000578466	2570
2114.38145962537	2609.75
2116.66219501079	2560.5
2118.94226430028	2585.25
2121.22166779118	2569.5
2123.50040578071	2603.75
2125.77847856598	2607.5
2128.05588644399	2614.75
2130.33262971165	2593
2132.60870866575	2632.25
2134.88412360298	2648
2137.15887481995	2627.5
2139.43296261311	2659.5
2141.70638727887	2661.75
2143.97914911348	2637.5
2146.25124841312	2685.25
2148.52268547387	2629.75
2150.79346059169	2658.25
2153.06357406245	2671.25
2155.33302618192	2676
2157.60181724576	2676.25
2159.86994754953	2684.5
2162.1374173887	2718
2164.40422705864	2702.25
2166.6703768546	2706
2168.93586707177	2733.25
2171.20069800519	2735.25
2173.46486994985	2723
2175.72838320061	2725.25
2177.99123805226	2739
2180.25343479946	2753.25
2182.5149737368	2783.75
2184.77585515876	2739.25
2187.03607935974	2753
2189.295646634	2757.5
2191.55455727578	2727
2193.81281157915	2740
2196.07040983813	2760.25
2198.32735234663	2756.25
2200.58363939848	2761.5
2202.83927128737	2776.75
2205.09424830697	2781.75
2207.34857075081	2785.5
2209.60223891231	2773.5
2211.85525308485	2798
2214.10761356169	2801.25
2216.35932063598	2804.75
2218.61037460082	2799.25
2220.86077574918	2800.25
2223.11052437395	2790.5
2225.35962076795	2791.75
2227.60806522389	2778.75
2229.85585803439	2806
2232.10299949198	2800.75
2234.34948988911	2811
2236.59532951813	2789
2238.84051867131	2812.75
2241.08505764082	2843.75
2243.32894671876	2842.75
2245.57218619713	2826.75
2247.81477636783	2837.75
2250.05671752269	2851
2252.29800995345	2849.25
2254.53865395175	2805
2256.77864980916	2847.75
2259.01799781714	2870.5
2261.2566982671	2860
2263.49475145035	2847.5
2265.73215765808	2876
2267.96891718143	2880
2270.20503031145	2867
2272.44049733909	2881.5
2274.67531855524	2891.75
2276.90949425067	2890
2279.1430247161	2899.5
2281.37591024214	2882.25
2283.60815111933	2895
2285.83974763813	2879.75
2288.07070008888	2892
2290.30100876189	2910.25
2292.53067394735	2902.75
2294.75969593537	2872.75
2296.98807501599	2887.5
2299.21581147916	2912.25
2301.44290561476	2905.25
2303.66935771254	2918
2305.89516806224	2914.75
2308.12033695344	2903.25
2310.34486467572	2924
2312.5687515185	2961.5
2314.79199777118	2919.25
2317.01460372303	2932.25
2319.23656966327	2938.75
2321.45789588102	2931.75
2323.67858266534	2955.5
2325.89863030519	2937
2328.11803908946	2909.25
2330.33680930694	2970.25
2332.55494124637	2961.25
2334.77243519638	2967.5
2336.98929144553	2965.75
2339.20551028232	2976.75
2341.42109199514	2959.25
2343.63603687231	2934.5
2345.85034520207	2953.75
2348.0640172726	2966.75
2350.27705337195	2971.25
2352.48945378815	2949.75
2354.70121880911	2977.25
2356.91234872269	2959
2359.12284381662	2981
2361.33270437861	2949.5
2363.54193069626	2960.5
2365.7505230571	2967.5
2367.95848174858	2994.75
2370.16580705805	2962.75
2372.37249927281	2989.75
2374.57855868008	2969.25
2376.78398556699	2970.75
2378.98878022058	3008.75
2381.19294292784	2964.25
2383.39647397565	2974.75
2385.59937365084	2968.75
2387.80164224015	2971.5
2390.00328003024	2941.25
2392.20428730769	2999
2394.40466435902	2958.5
2396.60441147062	2966.75
2398.80352892888	3027
2401.00201702004	3016.75
2403.19987603033	2958.75
2405.39710624582	3014
2407.59370795257	2985
2409.78968143654	3014.75
2411.9850269836	3014.75
2414.17974487957	2998.75
2416.37383541016	2965.25
2418.56729886102	2985
2420.76013551771	3000
2422.95234566575	3012
2425.14392959054	2984.25
2427.33488757741	3011.75
2429.52521991161	2982
2431.71492687834	3009.75
2433.90400876269	3006
2436.0924658497	3020.75
2438.2802984243	2984.75
2440.46750677137	2984.75
2442.6540911757	3000.5
2444.840051922	2995.5
2447.0253892949	2982
2449.21010357898	3016.75
2451.3941950587	2995.25
2453.57766401846	3040
2455.7605107426	2979.5
2457.94273551536	2981.25
2460.12433862091	3004
2462.30532034333	2973.25
2464.48568096665	2980.25
2466.66542077478	2987.25
2468.8445400516	2982.5
2471.02303908088	2983.25
2473.20091814631	2955.5
2475.37817753152	3007.5
2477.55481752005	2980.75
2479.73083839537	2993.25
2481.90624044087	2999.75
2484.08102393984	2996
2486.25518917552	2997.75
2488.42873643105	3007.75
2490.60166598952	2974.5
2492.77397813391	2988.75
2494.94567314713	2994.5
2497.11675131202	3021.75
2499.28721291133	3006.25
2501.45705822775	3016.75
2503.62628754386	3016
2505.7949011422	3022.5
2507.96289930518	3051.5
2510.13028231518	3025
2512.29705045447	2997.25
2514.46320400525	3047.75
2516.62874324964	3032.5
2518.79366846969	3034.25
2520.95797994734	3016.75
2523.12167796448	3064
2525.28476280291	3085.5
2527.44723474435	3082.25
2529.60909407043	3094.25
2531.77034106272	3077.5
2533.93097600269	3067
2536.09099917173	3090.5
2538.25041085116	3120
2540.40921132222	3114.75
2542.56740086606	3105
2544.72497976374	3088.75
2546.88194829626	3073
2549.03830674452	3067.25
2551.19405538936	3113.25
2553.34919451152	3076.5
2555.50372439165	3080
2557.65764531034	3083.25
2559.81095754807	3089.5
2561.96366138529	3103.25
2564.1157571023	3059.5
2566.26724497936	3036.5
2568.41812529664	3084.5
2570.56839833422	3104.5
2572.71806437208	3053
2574.86712369017	3059.75
2577.01557656829	3042.25
2579.16342328621	3059.5
2581.31066412358	3084.25
2583.45729936	3076.75
2585.60332927493	3074.75
2587.74875414781	3066.5
2589.89357425796	3037.75
2592.0377898846	3071
2594.18140130691	3083
2596.32440880395	3088.5
2598.4668126547	3106.25
2600.60861313806	3091.5
2602.74981053284	3081
2604.89040511778	3077.75
2607.0303971715	3091.5
2609.16978697256	3062
2611.30857479943	3078.75
2613.44676093048	3095.25
2615.584345644	3105.25
2617.72132921821	3112.5
2619.8577119312	3089.75
2621.99349406102	3109.75
2624.1286758856	3131.5
2626.2632576828	3105.25
2628.39723973037	3113
2630.53062230598	3106.75
2632.66340568723	3128.25
2634.7955901516	3136
2636.92717597651	3140.5
2639.05816343927	3130
2641.18855281709	3198
2643.31834438712	3138.25
2645.44753842641	3155.5
2647.5761352119	3164.25
2649.70413502044	3170.25
2651.83153812884	3190
2653.95834481374	3165.25
2656.08455535174	3158.75
2658.21017001934	3167
2660.33518909294	3171.25
2662.45961284885	3225.5
2664.58344156328	3208.5
2666.70667551235	3247.25
2668.82931497211	3202.75
2670.95136021848	3216
2673.0728115273	3189.5
2675.19366917432	3211.25
2677.31393343519	3176.25
2679.43360458548	3180.75
2681.55268290064	3254.5
2683.67116865603	3218.75
2685.78906212694	3207.75
2687.90636358854	3222.25
2690.02307331589	3232.5
2692.13919158398	3255.75
2694.2547186677	3237
2696.36965484184	3232.25
2698.48400038108	3256.25
2700.59775556002	3217
2702.71092065314	3229.5
2704.82349593485	3250.25
2706.93548167942	3267
2709.04687816108	3263
2711.1576856539	3254.5
2713.26790443188	3300.5
2715.37753476892	3286.5
2717.48657693883	3321.75
2719.59503121528	3251.75
2721.70289787187	3300
2723.8101771821	3316.25
2725.91686941936	3285.5
2728.02297485693	3283.5
2730.128493768	3279
2732.23342642565	3301
2734.33777310285	3300.25
2736.4415340725	3336
2738.54470960735	3310
2740.64729998007	3291.25
2742.74930546322	3242.75
2744.85072632927	3287
2746.95156285056	3279.25
2749.05181529934	3286
2751.15148394775	3272.5
2753.25056906782	3270.5
2755.34907093148	3274
2757.44698981056	3302.75
2759.54432597675	3299.5
2761.64107970166	3267.25
2763.7372512568	3284.25
2765.83284091354	3260
2767.92784894316	3302.5
2770.02227561683	3317.75
2772.11612120562	3323
2774.20938598047	3290.75
2776.3020702122	3289.25
2778.39417417156	3307.25
2780.48569812916	3310.5
2782.57664235549	3307.25
2784.66700712095	3324
2786.75679269582	3339
2788.84599935027	3329
2790.93462735434	3325.25
2793.02267697797	3344.75
2795.11014849098	3295.25
2797.19704216309	3344.75
2799.28335826389	3323.5
2801.36909706286	3312.5
2803.45425882935	3335.25
2805.53884383263	3327.75
2807.6228523418	3349.75
2809.7062846259	3377.75
2811.78914095381	3371
2813.87142159431	3405
2815.95312681606	3415.75
2818.0342568876	3389.25
2820.11481207734	3393.75
2822.19479265359	3424.5
2824.27419888454	3424.75
2826.35303103823	3438
2828.43128938261	3481.5
2830.5089741855	3528
2832.58608571459	3612.25
2834.66262423745	3608.5
2836.73859002154	3728
2838.81398333418	3908
2840.88880444257	4023.5
2842.96305361381	4187.5
2845.03673111483	4400
2847.10983721247	4536.25
2849.18237217344	4715.75
2851.2543362643	4790.5
2853.32572975152	4766
2855.39655290143	4685
2857.46680598021	4580.75
2859.53648925393	4565.75
2861.60560298855	4490.5
2863.67414744986	4463.75
2865.74212290356	4429.75
2867.80952961519	4472.5
2869.87636785019	4420
2871.94263787384	4454.75
2874.00833995131	4473.25
2876.07347434762	4521
2878.13804132768	4613.5
2880.20204115624	4767.5
2882.26547409795	4870.75
2884.32834041729	4825
2886.39064037865	4738.75
2888.45237424623	4648
2890.51354228415	4634.25
2892.57414475635	4618.25
2894.63418192667	4631
2896.69365405878	4670.75
2898.75256141625	4596.75
2900.81090426247	4673
2902.86868286072	4596.5
2904.92589747415	4618.5
2906.98254836574	4588.75
2909.03863579836	4480.5
2911.09416003471	4486.5
2913.14912133738	4442.25
2915.20351996879	4406.5
2917.25735619126	4456.75
2919.31063026691	4419.5
2921.36334245776	4453
2923.41549302568	4492.5
2925.46708223239	4472.75
2927.51811033945	4450
2929.56857760831	4456
2931.61848430026	4401
2933.66783067643	4389.25
2935.71661699781	4258.25
2937.76484352525	4233
2939.81251051946	4196.5
2941.85961824097	4096.5
2943.90616695021	3988.5
2945.95215690742	3933
2947.9975883727	3908.25
2950.04246160601	3912.75
2952.08677686716	3869.25
2954.13053441577	3835.75
2956.17373451138	3829.5
2958.21637741331	3825.75
2960.25846338077	3778
2962.29999267279	3787
2964.34096554826	3774.5
2966.3813822659	3756.5
2968.42124308432	3750
2970.46054826191	3785
2972.49929805694	3742.5
2974.53749272752	3694.5
2976.5751325316	3710.75
2978.61221772697	3711
2980.64874857127	3739.25
2982.68472532196	3725.5
2984.72014823637	3691.5
2986.75501757164	3731.25
2988.78933358476	3714.5
2990.82309653258	3664
2992.85630667175	3672.25
2994.88896425879	3727.25
2996.92106955003	3690.75
2998.95262280165	3720.25
3000.98362426967	3648.25
3003.01407420993	3751.25
3005.04397287812	3744.5
3007.07332052976	3771.5
3009.1021174202	3722.5
3011.13036380461	3744.75
3013.15805993802	3734.75
3015.18520607526	3784
3017.21180247102	3730.75
3019.23784937979	3804
3021.26334705593	3777
3023.28829575358	3833.5
3025.31269572676	3812.75
3027.33654722926	3812.5
3029.35985051475	3816
3031.38260583668	3781.75
3033.40481344838	3778
3035.42647360296	3793
3037.44758655337	3840.75
3039.46815255237	3872
3041.48817185258	3870.5
3043.50764470642	3881.25
3045.5265713661	3855.25
3047.54495208372	3899
3049.56278711114	3939.5
3051.58007670007	3910.5
3053.59682110204	3977.75
3055.61302056838	3896
3057.62867535025	3920
3059.64378569864	3924.25
3061.65835186434	3895
3063.67237409796	3835
3065.68585264993	3898.25
3067.69878777049	3882.25
3069.71117970969	3874.5
3071.72302871742	3883.25
3073.73433504334	3860.75
3075.74509893695	3875.75
3077.75532064757	3854
3079.76500042431	3828.25
3081.7741385161	3836.25
3083.78273517168	3918.5
3085.7907906396	3883.5
3087.79830516821	3873.5
3089.80527900568	3842.25
3091.81171239998	3863.5
3093.81760559889	3911.5
3095.82295884999	3898.25
3097.82777240067	3870.25
3099.83204649813	3903
3101.83578138937	3917.5
3103.83897732117	3902.25
3105.84163454016	3918.25
3107.84375329272	3896.5
3109.84533382508	3934.5
3111.84637638322	3904.5
3113.84688121298	3940.75
3115.84684855994	3931.75
3117.84627866951	3956
3119.84517178689	3951.5
3121.84352815709	3982.25
3123.84134802489	3939.75
3125.83863163489	3964
3127.83537923148	3939.25
3129.83159105884	4000
3131.82726736092	3983
3133.82240838151	3952
3135.81701436417	3978.5
3137.81108555224	4054
3139.80462218887	4029
3141.79762451699	4008.75
3143.79009277931	4019.5
3145.78202721835	3991
3147.77342807641	3991.5
3149.76429559556	4047.5
3151.75463001769	4065
3153.74443158445	4044.25
3155.73370053727	4050.5
3157.7224371174	4077.25
3159.71064156584	4063.5
3161.69831412337	4037.5
3163.68545503058	4041.5
3165.67206452784	4100.75
3167.65814285526	4094.25
3169.64369025279	4063.75
3171.6287069601	4071.25
3173.61319321668	4080.25
3175.59714926179	4076.5
3177.58057533446	4076.25
3179.56347167348	4106
3181.54583851746	4131.25
3183.52767610475	4110.75
3185.50898467348	4097.25
3187.48976446156	4134.75
3189.47001570668	4123.25
3191.44973864628	4104
3193.42893351758	4108.75
3195.40760055759	4167.75
3197.38574000308	4129.25
3199.36335209055	4132
3201.34043705634	4160.75
3203.3169951365	4198
3205.29302656687	4128.25
3207.26853158306	4174.75
3209.24351042042	4167
3211.21796331411	4160
3213.19189049901	4204.5
3215.16529220979	4181
3217.13816868087	4192
3219.11052014642	4220.75
3221.08234684042	4209.25
3223.05364899654	4253
3225.02442684826	4258.25
3226.99468062882	4229.5
3228.96441057117	4274.75
3230.93361690808	4287
3232.90229987202	4240.75
3234.87045969526	4256.5
3236.8380966098	4345.25
3238.8052108474	4321.75
3240.77180263957	4326.75
3242.73787221758	4333.5
3244.70341981245	4321.5
3246.66844565494	4309.5
3248.63294997559	4342.25
3250.59693300464	4348.25
3252.56039497213	4382
3254.52333610782	4403.5
3256.48575664121	4388
3258.44765680157	4418.75
3260.40903681791	4380.5
3262.36989691896	4389.75
3264.33023733323	4383.25
3266.29005828896	4391.75
3268.24936001411	4408.75
3270.20814273642	4382.25
3272.16640668333	4394
3274.12415208206	4445.5
3276.08137915954	4413.75
3278.03808814245	4450.75
3279.99427925722	4471.25
3281.94995272998	4481.5
3283.90510878664	4490.25
3285.85974765282	4485.75
3287.81386955387	4506
3289.7674747149	4529.5
3291.72056336072	4535.5
3293.6731357159	4500.75
3295.62519200472	4523.25
3297.57673245121	4538.5
3299.52775727911	4540.75
3301.4782667119	4515
3303.4282609728	4563.25
3305.37774028472	4603.75
3307.32670487034	4614.25
3309.27515495204	4532
3311.22309075193	4561.5
3313.17051249184	4580.25
3315.11742039334	4629.25
3317.06381467769	4584
3319.00969556592	4567.5
3320.95506327872	4617.5
3322.89991803656	4583.75
3324.84426005959	4548
3326.78808956769	4577.5
3328.73140678046	4566
3330.67421191721	4569.5
3332.61650519696	4577
3334.55828683848	4556.5
3336.4995570602	4563
3338.44031608032	4555.5
3340.3805641167	4566.5
3342.32030138695	4546.25
3344.25952810837	4538
3346.19824449799	4566.75
3348.13645077251	4508.25
3350.07414714839	4588.75
3352.01133384175	4600.75
3353.94801106845	4579
3355.88417904405	4547.5
3357.8198379838	4602
3359.75498810266	4583.75
3361.6896296153	4621.25
3363.62376273609	4583.5
3365.5573876791	4635.75
3367.4905046581	4621.5
3369.42311388656	4658
3371.35521557765	4581.25
3373.28680994422	4651.75
3375.21789719888	4698.25
3377.14847755385	4676.75
3379.07855122109	4670.75
3381.00811841228	4689.5
3382.93717933874	4687.25
3384.86573421152	4695.25
3386.79378324134	4689.75
3388.72132663863	4681.25
3390.64836461351	4698.5
3392.57489737576	4708.75
3394.50092513489	4772
3396.42644810007	4708
3398.35146648018	4707
3400.27598048375	4730.75
3402.19999031902	4714
3404.12349619393	4813.75
3406.04649831607	4747
3407.96899689273	4749
3409.89099213087	4808.25
3411.81248423716	4815
3413.73347341792	4854
3415.65395987914	4823.5
3417.57394382654	4848.75
3419.49342546547	4831.5
3421.41240500097	4819.25
3423.33088263775	4866
3425.24885858022	4808
3427.16633303244	4748
3429.08330619813	4848
3430.99977828072	4829.25
3432.91574948329	4777.5
3434.83122000859	4827
3436.74619005903	4845.75
3438.66065983671	4822.5
3440.57462954339	4867.5
3442.4880993805	4797
3444.40106954912	4818
3446.31354025	4848.75
3448.22551168358	4824.5
3450.13698404992	4855.5
3452.04795754877	4879.75
3453.95843237955	4832
3455.86840874132	4868
3457.7778868328	4846.5
3459.68686685238	4814.25
3461.5953489981	4829.75
3463.50333346766	4882.75
3465.41082045843	4884.5
3467.3178101674	4824
3469.22430279125	4851.75
3471.13029852629	4827.75
3473.0357975685	4867.75
3474.94080011349	4862
3476.84530635654	4856
3478.74931649257	4822
3480.65283071616	4875.25
3482.55584922151	4851.25
3484.45837220251	4892
3486.36039985266	4893
3488.26193236512	4913.5
3490.16296993268	4946.75
3492.0635127478	4844.5
3493.96356100256	4907.75
3495.86311488869	4885.25
3497.76217459756	4866.75
3499.66074032018	4872.25
