201.866871357051	903.5
204.754250281454	910
207.640596790938	905.75
210.525911876299	916.75
213.410196525689	911.75
216.293451724508	920.75
219.175678455485	920
222.056877698662	928.5
224.937050431388	922.75
227.816197628363	923
230.694320261602	917.5
233.571419300504	932.5
236.447495711764	922
239.322550459507	933.5
242.196584505182	925
245.069598807626	924
247.941594323078	941.75
250.812572005154	931.5
253.682532804884	940.5
256.551477670699	926.5
259.419407548456	932.5
262.286323381439	937.5
265.152226110364	938
268.017116673389	940
270.880996006115	945.5
273.743865041622	936.5
276.605724710436	937.25
279.466575940562	943
282.326419657496	945.5
285.1852567842	937.75
288.043088241157	953.75
290.899914946349	956
293.75573781526	946.25
296.610557760898	950.5
299.464375693817	941.5
302.317192522078	943.75
305.169009151297	952.5
308.019826484655	945.25
310.86964542287	951.25
313.718466864233	959.75
316.566291704614	950
319.413120837457	951.5
322.258955153804	959.75
325.103795542291	957.25
327.947642889128	959.25
330.79049807819	958.75
333.632361990927	966.5
336.473235506444	958
339.31311950145	965.5
342.152014850322	955.5
344.989922425062	975.25
347.826843095354	976.5
350.662777728528	975.75
353.497727189577	976.5
356.331692341195	972.25
359.164674043732	984
361.996673155267	977
364.827690531536	982
367.65772702602	981.5
370.486783489887	968.75
373.314860772047	989.75
376.14195971912	985.5
378.968081175466	979.75
381.793225983212	993.5
384.617394982201	993.75
387.44058901005	992.75
390.262808902131	984
393.08405549161	990.25
395.904329609395	990.25
398.723632084213	998.75
401.541963742569	1000
404.359325408779	998.25
407.175717904938	1009.25
409.991142050982	997.5
412.805598664665	1012.75
415.619088561551	1029
418.43161255505	1012.5
421.243171456415	1028.5
424.053766074758	1030.5
426.863397217017	1049
429.672065688024	1049.75
432.479772290455	1046.75
435.286517824879	1054
438.092303089736	1060.75
440.897128881359	1063.25
443.70099599399	1060.75
446.503905219761	1079.75
449.305857348711	1068
452.106853168796	1070.75
454.906893465919	1057.5
457.705979023885	1041.5
460.504110624439	1040.5
463.3012890473	1028.75
466.097515070087	1032.25
468.892789468424	1031
471.687113015869	1015
474.48048648395	1021
477.272910642198	1016.5
480.064386258109	1014.75
482.854914097159	1010.75
485.644494922839	1015
488.433129496636	1001.25
491.220818578047	1017.75
494.007562924584	1024.75
496.793363291785	1018
499.578220433217	1030
502.362135100473	1009
505.145108043209	1035.5
507.927140009098	1021
510.708231743909	1020.75
513.488383991433	1029.5
516.267597493556	1026.75
519.04587299022	1036.5
521.82321121946	1031.25
524.599612917398	1023
527.375078818233	1034.75
530.149609654287	1034.5
532.923206155967	1027.75
535.695869051804	1030.75
538.467599068448	1033.5
541.238396930665	1028.75
544.008263361364	1030.5
546.777199081578	1020
549.545204810493	1026.5
552.312281265436	1023
555.078429161898	1043
557.843649213533	1035.75
560.607942132156	1027.75
563.371308627753	1033.25
566.133749408495	1041.25
568.895265180756	1056
571.655856649064	1060.25
574.415524516189	1042.25
577.174269483075	1056.75
579.932092248884	1075.75
582.688993510994	1074
585.444973965023	1067.75
588.200034304795	1075.25
590.95417522237	1095.75
593.70739740807	1079.25
596.459701550433	1094.25
599.21108833628	1097
601.961558450668	1098
604.711112576933	1099.75
607.459751396673	1111.5
610.207475589748	1108
612.954285834338	1089.25
615.700182806879	1093.75
618.445167182101	1087.5
621.189239633055	1079.5
623.932400831087	1070.5
626.674651445839	1070.5
629.415992145303	1062.75
632.156423595745	1072.5
634.895946461813	1069.5
637.634561406449	1047.75
640.37226909096	1050.5
643.109070174978	1069.75
645.844965316508	1052.25
648.579955171888	1043
651.314040395846	1045.5
654.047221641456	1054
656.779499560176	1060.5
659.510874801828	1067
662.241348014642	1055.75
664.97091984524	1066
667.699590938606	1057.75
670.427361938164	1045.75
673.15423348573	1059.5
675.880206221526	1058.5
678.605280784206	1054.25
681.329457810829	1057.5
684.05273793692	1057.25
686.775121796389	1039
689.49661002163	1070.75
692.217203243454	1069.25
694.936902091144	1058.25
697.655707192425	1063.75
700.373619173493	1049.5
703.09063865901	1062
705.806766272093	1057.75
708.522002634378	1067
711.236348365946	1045
713.94980408538	1064.5
716.662370409762	1062.75
719.374047954676	1057.25
722.08483733419	1057.25
724.794739160909	1058.25
727.503754045949	1045
730.21188259892	1067
732.919125427998	1060
735.625483139855	1064.75
738.330956339723	1067.25
741.035545631374	1082
743.739251617106	1064.5
746.44207489779	1073.75
749.144016072852	1071.25
751.845075740272	1059.5
754.545254496603	1064.75
757.244552936976	1067.25
759.94297165508	1063.5
762.640511243222	1061.75
765.337172292249	1066.75
768.032955391649	1063.25
770.727861129482	1075
773.421890092413	1087
776.11504286572	1065.75
778.807320033298	1075.5
781.49872217765	1072
784.18924987991	1079.25
786.87890371984	1083.75
789.567684275826	1066.75
792.255592124908	1070.25
794.94262784276	1078.75
797.628792003703	1078
800.314085180715	1071
802.998507945427	1080.25
805.682060868145	1076
808.364744517821	1072.25
811.046559462105	1072.75
813.727506267311	1065.5
816.407585498422	1074.5
819.08679771913	1073.75
821.765143491822	1083.25
824.442623377563	1087.5
827.119237936127	1091.75
829.794987726003	1080.75
832.469873304377	1086.25
835.143895227167	1079.5
837.817054048985	1081.25
840.489350323205	1085
843.160784601892	1100.25
845.831357435894	1097.75
848.501069374739	1099.5
851.169920966753	1086
853.837912758987	1097
856.505045297232	1097
859.171319126071	1109
861.836734788823	1097
864.501292827579	1106
867.164993783208	1111.75
869.827838195361	1103.5
872.489826602454	1111.5
875.150959541701	1117.5
877.811237549104	1105.5
880.470661159456	1099.5
883.129230906357	1100
885.786947322205	1094.5
888.443810938206	1100.25
891.099822284385	1128
893.754981889586	1095.5
896.409290281452	1103.5
899.062747986485	1108.75
901.715355529999	1114.5
904.367113436154	1107.5
907.01802222793	1115
909.668082427172	1105
912.317294554574	1106
914.965659129659	1127
917.613176670835	1127
920.259847695364	1113
922.90567271936	1118.5
925.550652257825	1114.75
928.194786824621	1101.25
930.838076932512	1119.5
933.480523093109	1131.5
936.122125816953	1123.75
938.762885613447	1133.75
941.402802990899	1123.5
944.041878456523	1123
946.680112516428	1131
949.31750567563	1135.5
951.954058438081	1132.5
954.589771306633	1140.75
957.224644783048	1140.5
959.858679368044	1128.25
962.491875561238	1130.75
965.12423386121	1133.25
967.75575476545	1147
970.386438770423	1143.25
973.016286371501	1148.25
975.645298063046	1150.75
978.273474338355	1138.25
980.900815689674	1141
983.527322608243	1137.25
986.152995584245	1135.5
988.777835106834	1143.5
991.401841664148	1151.75
994.025015743307	1143
996.647357830407	1153
999.268868410534	1144.25
1001.88954796777	1145.25
1004.50939698518	1163
1007.12841594484	1173.5
1009.74660532783	1159.5
1012.36396561423	1156.5
1014.98049728314	1155.5
1017.59620081267	1172
1020.21107667995	1180.75
1022.82512536112	1159.5
1025.43834733138	1164.25
1028.05074306493	1177.25
1030.66231303501	1179.5
1033.27305771392	1187.75
1035.88297757299	1181
1038.49207308257	1181.25
1041.10034471211	1187.5
1043.70779293008	1201.5
1046.31441820402	1189.25
1048.92022100052	1198.25
1051.52520178525	1223.5
1054.12936102295	1213.5
1056.73269917742	1214.25
1059.33521671154	1245.75
1061.93691408729	1230
1064.53779176571	1227.5
1067.13785020694	1220
1069.73708987022	1211
1072.33551121386	1213
1074.93311469528	1212.5
1077.52990077103	1208.5
1080.12586989674	1205.75
1082.72102252714	1225.5
1085.31535911611	1230
1087.90888011663	1214.5
1090.50158598078	1211.25
1093.09347715979	1212
1095.68455410403	1215.75
1098.27481726296	1217.5
1100.86426708523	1225.5
1103.45290401857	1217
1106.04072850991	1225.25
1108.6277410053	1216.5
1111.21394194993	1241
1113.79933178816	1238.25
1116.3839109635	1248.5
1118.96767991862	1239
1121.55063909539	1265.5
1124.13278893477	1258
1126.71412987696	1275.5
1129.29466236132	1299.25
1131.87438682637	1259.5
1134.45330370982	1271.5
1137.03141344858	1255.25
1139.60871647872	1264.5
1142.18521323554	1250.5
1144.7609041535	1254
1147.33578966629	1278.75
1149.90987020676	1266.5
1152.48314620702	1274
1155.05561809835	1277.25
1157.62728631125	1280
1160.19815127545	1284.5
1162.76821341988	1286.25
1165.33747317271	1300.5
1167.90593096133	1274.5
1170.47358721235	1279.75
1173.04044235163	1286
1175.60649680425	1269.75
1178.17175099454	1283.75
1180.73620534607	1291.25
1183.29986028165	1285
1185.86271622336	1299.5
1188.42477359249	1291.5
1190.98603280964	1286.25
1193.54649429462	1307
1196.10615846653	1304
1198.66502574372	1279.75
1201.22309654385	1297.25
1203.78037128378	1304.25
1206.33685037971	1297.25
1208.89253424709	1314.25
1211.44742330063	1296
1214.00151795438	1310.75
1216.55481862163	1307.25
1219.10732571497	1303.75
1221.65903964631	1322.75
1224.20996082683	1313.5
1226.760089667	1326.25
1229.30942657664	1328.5
1231.85797196483	1334.25
1234.40572623998	1329.25
1236.95268980981	1344
1239.49886308136	1358.5
1242.04424646098	1367.5
1244.58884035435	1348.5
1247.13264516647	1366.5
1249.67566130166	1362.25
1252.21788916358	1355
1254.75932915524	1391
1257.29998167896	1390
1259.83984713639	1415.25
1262.37892592857	1399.5
1264.91721845586	1407
1267.45472511795	1418.5
1269.9914463139	1410
1272.52738244213	1399.25
1275.0625339004	1423.5
1277.59690108587	1422.5
1280.130484395	1440.5
1282.66328422367	1430.75
1285.19530096712	1467.5
1287.72653501993	1456.25
1290.25698677608	1484.5
1292.78665662894	1508
1295.31554497125	1513
1297.8436521951	1524.5
1300.37097869203	1506.25
1302.89752485292	1503
1305.42329106805	1471.5
1307.94827772713	1510
1310.47248521921	1511.5
1312.99591393279	1507.75
1315.51856425575	1521.25
1318.04043657536	1528.75
1320.56153127836	1544.75
1323.08184875083	1542
1325.6013893783	1528
1328.12015354572	1566
1330.63814163744	1566
1333.15535403727	1577.5
1335.67179112839	1588
1338.18745329347	1587.5
1340.70234091454	1590.25
1343.21645437314	1608.5
1345.72979405019	1605.75
1348.24236032607	1634.25
1350.75415358059	1643.25
1353.26517419303	1647.75
1355.7754225421	1665.5
1358.28489900594	1683.25
1360.79360396218	1677.5
1363.30153778787	1690
1365.80870085955	1699.25
1368.31509355319	1730.25
1370.82071624424	1704.25
1373.32556930762	1714.75
1375.8296531177	1744.25
1378.33296804832	1743
1380.83551447282	1763
1383.33729276399	1755.75
1385.83830329408	1747.25
1388.33854643489	1764.75
1390.83802255762	1772.5
1393.33673203301	1772.5
1395.83467523128	1802.75
1398.33185252211	1774.5
1400.82826427471	1793.5
1403.32391085777	1809
1405.81879263947	1838.25
1408.31290998752	1831.5
1410.80626326908	1851.25
1413.29885285087	1870.75
1415.79067909909	1882.25
1418.28174237944	1918.75
1420.77204305717	1913.5
1423.26158149702	1930.75
1425.75035806323	1961
1428.2383731196	1952
1430.72562702942	1966.5
1433.21212015554	2016
1435.69785286028	2035.5
1438.18282550555	2088.25
1440.66703845275	2090.75
1443.15049206284	2085.25
1445.6331866963	2102.5
1448.11512271316	2124.25
1450.59630047298	2155.25
1453.07672033486	2146.25
1455.55638265748	2182
1458.03528779902	2189.75
1460.51343611725	2236.25
1462.99082796946	2227.5
1465.46746371252	2261.5
1467.94334370285	2249.25
1470.41846829642	2276
1472.89283784878	2273.25
1475.36645271503	2305.5
1477.83931324983	2312
1480.31141980743	2357.75
1482.78277274164	2363.5
1485.25337240583	2364.75
1487.72321915297	2380
1490.19231333557	2417.5
1492.66065530578	2425.5
1495.12824541525	2429.25
1497.5950840153	2488.25
1500.06117145678	2496.5
1502.52650809014	2503.5
1504.99109426543	2538.75
1507.45493033227	2537
1509.91801663992	2561.25
1512.38035353717	2586.25
1514.84194137248	2617.75
1517.30278049386	2639
1519.76287124894	2676.75
1522.22221398497	2694.75
1524.68080904876	2741.25
1527.13865678681	2732.25
1529.59575754514	2759.25
1532.05211166945	2800.5
1534.50771950503	2781.75
1536.96258139678	2857.75
1539.41669768924	2870
1541.87006872656	2918
1544.32269485252	2892.75
1546.77457641051	2949.25
1549.22571374357	3006.5
1551.67610719434	3009.25
1554.12575710513	3075
1556.57466381785	3068
1559.02282767408	3068.5
1561.47024901499	3136
1563.91692818144	3161.5
1566.3628655139	3183.5
1568.80806135249	3221
1571.252516037	3257.75
1573.6962299068	3277.75
1576.13920330099	3279.25
1578.58143655828	3320.25
1581.02293001704	3371.25
1583.46368401528	3377.25
1585.90369889071	3372.75
1588.34297498065	3443.75
1590.7815126221	3430.25
1593.21931215173	3469.25
1595.65637390588	3475.5
1598.09269822053	3498.25
1600.52828543135	3495.5
1602.96313587367	3500.75
1605.3972498825	3533.5
1607.83062779252	3537.5
1610.26326993808	3580.5
1612.69517665322	3630.5
1615.12634827165	3590.75
1617.55678512676	3603.5
1619.98648755163	3670.5
1622.41545587902	3614
1624.84369044138	3653.5
1627.27119157085	3687
1629.69795959924	3678
1632.12399485808	3721
1634.54929767859	3758.75
1636.97386839165	3741.5
1639.39770732789	3772.75
1641.8208148176	3771
1644.24319119078	3849
1646.66483677715	3836.75
1649.0857519061	3866
1651.50593690677	3881
1653.92539210795	3944.5
1656.3441178382	3904.25
1658.76211442575	3974.25
1661.17938219855	3996.5
1663.59592148428	3996.5
1666.01173261032	4027.75
1668.42681590377	4074
1670.84117169145	4121.5
1673.25480029991	4119.75
1675.66770205541	4151.75
1678.07987728393	4194.75
1680.49132631119	4194.75
1682.90204946263	4221.5
1685.31204706342	4246.5
1687.72131943846	4311.25
1690.1298669124	4258.75
1692.53768980957	4324
1694.94478845411	4345
1697.35116316982	4340
1699.75681428031	4353.25
1702.16174210887	4350.75
1704.56594697858	4335.75
1706.96942921222	4446
1709.37218913235	4438.25
1711.77422706125	4432.75
1714.17554332098	4447.75
1716.5761382333	4488.5
1718.97601211977	4451.5
1721.37516530169	4494.5
1723.77359810006	4522.25
1726.17131083572	4531
1728.56830382922	4575.5
1730.96457740087	4532.75
1733.36013187075	4528.25
1735.75496755868	4584
1738.14908478428	4578.25
1740.54248386689	4590.75
1742.93516512565	4639.25
1745.32712887946	4640.5
1747.71837544697	4664.75
1750.10890514662	4693.25
1752.49871829661	4648
1754.88781521492	4715
1757.27619621929	4762
1759.66386162726	4779
1762.05081175612	4745.25
1764.43704692297	4799.25
1766.82256744465	4803.5
1769.20737363782	4838.5
1771.59146581887	4818.25
1773.97484430405	4916
1776.35750940932	4939.5
1778.73946145048	4943
1781.12070074309	4961.5
1783.50122760249	4996.5
1785.88104234385	5042.75
1788.26014528209	5085
1790.63853673196	5113.5
1793.01621700796	5105.75
1795.39318642443	5144
1797.76944529549	5157
1800.14499393503	5220.25
1802.51983265681	5204.25
1804.8939617743	5185.25
1807.26738160085	5244.75
1809.64009244957	5294.25
1812.01209463339	5280.5
1814.38338846504	5330.5
1816.75397425706	5338.5
1819.12385232181	5343.5
1821.49302297142	5393.5
1823.86148651789	5371.5
1826.22924327299	5407.5
1828.59629354831	5442
1830.96263765526	5411.25
1833.32827590507	5480.5
1835.69320860877	5461.5
1838.05743607724	5557
1840.42095862113	5544.5
1842.78377655097	5552.25
1845.14589017707	5546
1847.50729980956	5559.5
1849.86800575843	5643.5
1852.22800833346	5624.25
1854.58730784427	5630.5
1856.94590460032	5668
1859.30379891087	5705
1861.66099108503	5762.75
1864.01748143175	5767
1866.37327025978	5812
1868.72835787773	5805
1871.08274459403	5813.25
1873.43643071697	5844.5
1875.78941655464	5917.25
1878.14170241498	5844
1880.4932886058	5954
1882.84417543469	5960.25
1885.19436320915	6004.5
1887.54385223646	6041
1889.89264282378	6045.25
1892.24073527809	6074.75
1894.58812990625	6124.5
1896.93482701493	6175.75
1899.28082691067	6193.75
1901.62612989984	6265.25
1903.97073628868	6217
1906.31464638326	6282
1908.6578604895	6286.25
1911.00037891321	6344.5
1913.34220196	6366.25
1915.68332993537	6353.5
1918.02376314468	6411.25
1920.36350189311	6437.75
1922.70254648573	6443.5
1925.04089722744	6419
1927.37855442303	6475.25
1929.71551837715	6483.75
1932.05178939426	6457
1934.38736777876	6520.5
1936.72225383484	6523.5
1939.0564478666	6640.25
1941.38995017799	6564.5
1943.72276107283	6576.75
1946.05488085479	6590.5
1948.38630982744	6587.25
1950.71704829419	6621
1953.04709655832	6606.25
1955.376454923	6632
1957.70512369126	6658
1960.03310316599	6658.25
1962.36039364999	6642.75
1964.68699544589	6691.25
1967.01290885622	6718.5
1969.33813418338	6745.25
1971.66267172965	6781.75
1973.98652179718	6823.5
1976.309684688	6836
1978.63216070402	6821.25
1980.95395014705	6931.5
1983.27505331873	6885
1985.59547052063	6985.5
1987.9152020542	6947.75
1990.23424822074	6953
1992.55260932146	6947.5
1994.87028565746	6973
1997.18727752968	7055
1999.503585239	7144.25
2001.81920908618	7080.5
2004.13414937184	7157.5
2006.44840639651	7234.5
2008.7619804606	7286.5
2011.07487186442	7293.5
2013.38708090815	7346.5
2015.6986078919	7304.25
2018.00945311564	7412.25
2020.31961687923	7409.75
2022.62909948246	7485.75
2024.93790122498	7511
2027.24602240636	7610.25
2029.55346332604	7580.25
2031.86022428337	7634.25
2034.16630557761	7742.75
2036.47170750791	7783.5
2038.77643037331	7726.5
2041.08047447275	7850.25
2043.38384010509	7774
2045.68652756907	7873
2047.98853716335	7891.5
2050.28986918648	7883.75
2052.59052393692	7967.25
2054.89050171302	8059
2057.18980281306	8047.5
2059.4884275352	8024.25
2061.78637617753	8035.5
2064.08364903802	8058.5
2066.38024641457	8090.75
2068.67616860497	8136.75
2070.97141590694	8125
2073.26598861809	8167.25
2075.55988703595	8063.5
2077.85311145796	8176.75
2080.14566218145	8237
2082.43753950371	8303.5
2084.72874372188	8242.5
2087.01927513307	8284.25
2089.30913403428	8290
2091.59832072241	8341.5
2093.88683549429	8347.25
2096.17467864666	8376.75
2098.46185047619	8378.75
2100.74835127944	8403.75
2103.03418135292	8507
2105.31934099303	8424.25
2107.6038304961	8525.5
2109.88765015838	8523.25
2112.17080027602	8508.25
2114.45328114513	8571.5
2116.7350930617	8641.25
2119.01623632165	8658
2121.29671122085	8587
2123.57651805505	8622
2125.85565711996	8684.5
2128.13412871117	8697.25
2130.41193312424	8707
2132.68907065462	8738.75
2134.96554159771	8754.5
2137.24134624881	8745.25
2139.51648490317	8795
2141.79095785593	8777.5
2144.0647654022	8875.25
2146.33790783698	8843.75
2148.61038545524	8803
2150.88219855182	8955
2153.15334742154	8899.5
2155.42383235911	8939.25
2157.6936536592	8925
2159.9628116164	8851.5
2162.23130652522	8953.5
2164.49913868011	8941.75
2166.76630837544	8933.5
2169.03281590552	8969.25
2171.2986615646	8936.75
2173.56384564685	8885.25
2175.82836844637	8910.5
2178.0922302572	8945.5
2180.35543137332	8854
2182.61797208862	8880.5
2184.87985269695	8839.5
2187.14107349208	8796.5
2189.40163476773	8922.5
2191.66153681753	8786.25
2193.92077993507	8757
2196.17936441386	8780.5
2198.43729054735	8744
2200.69455862894	8719.5
2202.95116895194	8737.25
2205.20712180962	8723
2207.46241749519	8672.5
2209.71705630179	8657.75
2211.97103852248	8655.5
2214.2243644503	8606.5
2216.47703437819	8610.5
2218.72904859905	8575.5
2220.98040740571	8592.5
2223.23111109095	8570.5
2225.4811599475	8486
2227.73055426799	8464.5
2229.97929434504	8441.75
2232.22738047118	8421
2234.47481293889	8419.75
2236.72159204058	8414.5
2238.96771806864	8386.25
2241.21319131536	8295.5
2243.458012073	8218
2245.70218063374	8287.5
2247.94569728973	8320.25
2250.18856233304	8195.5
2252.4307760557	8160.75
2254.67233874967	8119.75
2256.91325070687	8142.75
2259.15351221915	8082.25
2261.39312357831	8019.25
2263.63208507611	8043.25
2265.87039700422	7969.75
2268.1080596543	8028.25
2270.34507331792	7991.5
2272.5814382866	7846.25
2274.81715485183	7912
2277.05222330502	7892.25
2279.28664393755	7861.5
2281.52041704072	7782
2283.75354290581	7780.25
2285.98602182401	7775.5
2288.21785408648	7675.75
2290.44903998434	7705.5
2292.67957980862	7704.25
2294.90947385033	7606.75
2297.1387224004	7633.25
2299.36732574975	7567.75
2301.59528418921	7598.75
2303.82259800958	7541.75
2306.04926750158	7511.25
2308.27529295593	7416
2310.50067466325	7408
2312.72541291412	7472
2314.9495079991	7387.25
2317.17296020866	7371.25
2319.39576983323	7430
2321.61793716322	7322.75
2323.83946248894	7291
2326.06034610069	7318
2328.28058828871	7230.5
2330.50018934317	7197.25
2332.7191495542	7150.25
2334.93746921192	7118.5
2337.15514860633	7125.75
2339.37218802743	7074.75
2341.58858776516	7043.75
2343.80434810941	7012.5
2346.01946935001	6986
2348.23395177675	6931.75
2350.44779567939	6958.25
2352.66100134759	6871
2354.87356907101	6887
2357.08549913925	6863.25
2359.29679184185	6831.25
2361.50744746829	6837.25
2363.71746630804	6744.5
2365.92684865048	6741.25
2368.13559478499	6738
2370.34370500083	6678.75
2372.55117958727	6705.5
2374.75801883352	6682.75
2376.96422302874	6608.25
2379.16979246202	6628.75
2381.37472742243	6528.5
2383.57902819898	6527.25
2385.78269508063	6481.25
2387.98572835629	6513.5
2390.18812831482	6468.75
2392.38989524505	6453.25
2394.59102943573	6431.75
2396.79153117559	6392.5
2398.9914007533	6360.5
2401.19063845748	6358.75
2403.38924457672	6296
2405.58721939951	6327.25
2407.78456321435	6300.25
2409.98127630966	6242
2412.17735897382	6256.75
2414.37281149517	6253
2416.56763416198	6204.5
2418.76182726249	6226
2420.95539108487	6162
2423.14832591726	6086
2425.34063204776	6174.5
2427.53230976439	6021
2429.72335935513	6074.5
2431.91378110795	6078.25
2434.10357531071	6040.5
2436.29274225125	6074.25
2438.48128221739	5977.75
2440.66919549683	5978.25
2442.8564823773	5975.5
2445.04314314641	5971
2447.22917809176	5900.5
2449.4145875009	5921.5
2451.59937166131	5909.25
2453.78353086044	5855.75
2455.96706538568	5873.75
2458.14997552436	5810.75
2460.33226156379	5741
2462.51392379119	5778.75
2464.69496249376	5745.5
2466.87537795862	5697.5
2469.05517047288	5687.75
2471.23434032357	5701.75
2473.41288779767	5713.75
2475.59081318211	5625.5
2477.76811676378	5632.75
2479.9447988295	5607.5
2482.12085966605	5608.25
2484.29629956016	5565.75
2486.4711187985	5548.25
2488.64531766769	5575
2490.8188964543	5577.5
2492.99185544484	5509
2495.16419492579	5479.25
2497.33591518353	5512.5
2499.50701650444	5456
2501.67749917482	5510.25
2503.84736348091	5489.5
2506.01660970891	5414.5
2508.18523814496	5423
2510.35324907514	5388
2512.52064278551	5392.25
2514.68741956201	5404.25
2516.85357969058	5419.5
2519.01912345709	5361
2521.18405114735	5341
2523.34836304711	5340
2525.51205944208	5355.75
2527.6751406179	5351.25
2529.83760686016	5316.25
2531.99945845439	5300.5
2534.16069568606	5304.5
2536.3213188406	5337
2538.48132820336	5207.5
2540.64072405965	5270.75
2542.79950669471	5244.5
2544.95767639373	5277
2547.11523344184	5237
2549.27217812411	5191.25
2551.42851072555	5176.5
2553.58423153111	5172.75
2555.73934082569	5126
2557.89383889412	5116.25
2560.04772602118	5166.25
2562.20100249158	5067.25
2564.35366858996	5051.5
2566.50572460093	5046.75
2568.65717080901	5069.75
2570.80800749867	5045
2572.95823495433	4986
2575.10785346031	4964.25
2577.25686330093	4991
2579.40526476038	4911.25
2581.55305812282	4909.75
2583.70024367237	4886.75
2585.84682169303	4849.5
2587.99279246879	4871.5
2590.13815628354	4865.25
2592.28291342112	4812.75
2594.42706416531	4844
2596.5706087998	4796
2598.71354760826	4799
2600.85588087425	4794.25
2602.99760888127	4734.25
2605.13873191278	4751.25
2607.27925025214	4750.75
2609.41916418269	4772.25
2611.55847398764	4739.5
2613.69717995017	4750.75
2615.83528235339	4784.75
2617.97278148034	4731.75
2620.10967761398	4746.5
2622.2459710372	4715.5
2624.38166203284	4696
2626.51675088365	4705.5
2628.65123787231	4672
2630.78512328145	4659.25
2632.9184073936	4636.25
2635.05109049124	4688.5
2637.18317285676	4666.75
2639.31465477248	4691.25
2641.44553652067	4674.75
2643.5758183835	4602.25
2645.70550064309	4616
2647.83458358144	4617
2649.96306748053	4640.75
2652.09095262223	4648.75
2654.21823928836	4661.5
2656.34492776063	4617.25
2658.47101832071	4596
2660.59651125015	4624.75
2662.72140683047	4590.5
2664.84570534309	4619.5
2666.96940706934	4601.5
2669.0925122905	4542.25
2671.21502128773	4551.25
2673.33693434215	4591.25
2675.45825173479	4557.25
2677.57897374658	4578
2679.69910065839	4555.75
2681.818632751	4520.75
2683.93757030511	4538.5
2686.05591360133	4555
2688.17366292021	4550.5
2690.29081854218	4539.25
2692.40738074762	4483.5
2694.52334981681	4517.25
2696.63872602995	4515.5
2698.75350966713	4544.5
2700.86770100841	4503.75
2702.98130033371	4507.75
2705.09430792289	4507
2707.20672405571	4499.5
2709.31854901185	4514.5
2711.42978307091	4487.25
2713.54042651238	4509.25
2715.65047961567	4522.75
2717.7599426601	4530.25
2719.86881592491	4519.25
2721.97709968924	4519.5
2724.08479423213	4535.25
2726.19189983255	4514.5
2728.29841676934	4502.75
2730.4043453213	4556.25
2732.5096857671	4531.5
2734.61443838532	4501
2736.71860345444	4464
2738.82218125286	4486.75
2740.92517205889	4517
2743.02757615072	4491.75
2745.12939380646	4466.75
2747.23062530411	4451.25
2749.33127092159	4531.25
2751.4313309367	4482.75
2753.53080562716	4471.75
2755.62969527058	4541
2757.72800014448	4485.5
2759.82572052625	4488.75
2761.92285669323	4469
2764.0194089226	4511.75
2766.11537749147	4468
2768.21076267686	4531.25
2770.30556475566	4488.25
2772.39978400465	4499.5
2774.49342070054	4475.5
2776.58647511991	4481.75
2778.67894753923	4490.75
2780.77083823487	4463.5
2782.8621474831	4428
2784.95287556007	4455.25
2787.04302274184	4445.75
2789.13258930433	4469
2791.22157552338	4448.5
2793.30998167471	4476
2795.39780803392	4497.25
2797.4850548765	4482
2799.57172247786	4458.5
2801.65781111324	4474.75
2803.74332105781	4445
2805.82825258661	4450.75
2807.91260597457	4481.75
2809.9963814965	4451.5
2812.07957942711	4503
2814.16220004096	4443.25
2816.24424361252	4445.25
2818.32571041614	4488.25
2820.40660072604	4484
2822.48691481631	4506.5
2824.56665296098	4487.5
2826.64581543388	4489.75
2828.72440250876	4532.25
2830.80241445925	4518.25
2832.87985155885	4531.5
2834.95671408093	4582.25
2837.03300229875	4690
2839.10871648544	4759.75
2841.18385691399	4861.5
2843.25842385729	4937
2845.33241758808	4940.5
2847.40583837898	4956.75
2849.4786865025	5011.5
2851.550962231	5000.25
2853.6226658367	4975.5
2855.69379759173	4873.75
2857.76435776806	4944
2859.83434663753	4850.75
2861.90376447184	4854.75
2863.97261154259	4838.5
2866.0408881212	4875.25
2868.10859447901	4849.25
2870.17573088717	4860.5
2872.24229761673	4850.5
2874.30829493859	4921.5
2876.37372312352	5018.75
2878.43858244215	5115.5
2880.50287316496	5203.75
2882.56659556231	5202.25
2884.62974990439	5068.5
2886.69233646129	4990
2888.75435550293	4967.75
2890.81580729909	5004.5
2892.87669211941	4960.25
2894.93701023339	4985.25
2896.99676191039	4951
2899.05594741961	5026
2901.1145670301	4976.25
2903.1726210108	4930
2905.23010963045	4947.5
2907.28703315768	4942.5
2909.34339186096	4965
2911.39918600861	4948.5
2913.45441586879	4875.25
2915.50908170952	4920.5
2917.56318379867	4918
2919.61672240395	4934
2921.66969779291	4943.5
2923.72211023295	4963
2925.77395999134	4930
2927.82524733515	5005
2929.87597253132	4979.75
2931.92613584663	4941.5
2933.97573754769	4936.75
2936.02477790097	4884.5
2938.07325717276	4899.5
2940.1211756292	4889
2942.16853353626	4903.5
2944.21533115976	4879.25
2946.26156876536	4829.75
2948.30724661853	4837.25
2950.3523649846	4880.25
2952.39692412872	4841.25
2954.44092431587	4846.75
2956.48436581089	4838.25
2958.52724887843	4850
2960.56957378296	4887
2962.6113407888	4879.25
2964.65255016011	4887
2966.69320216083	4953
2968.73329705479	4900.5
2970.77283510559	4894
2972.81181657671	4884.25
2974.8502417314	4874
2976.88811083279	4920.25
2978.92542414378	4936
2980.96218192713	4915
2982.99838444541	5004.25
2985.034031961	4964.25
2987.06912473612	4992.25
2989.1036630328	4960
2991.13764711288	5002.5
2993.17107723804	5039.75
2995.20395366974	5028
2997.23627666931	5085.25
2999.26804649782	5054.25
3001.29926341624	5091.25
3003.32992768528	5060.25
3005.3600395655	5122.25
3007.38959931726	5098
3009.41860720076	5160.75
3011.44706347595	5212
3013.47496840263	5146.75
3015.50232224041	5218.25
3017.5291252487	5181.25
3019.5553776867	5199.25
3021.58107981344	5254.75
3023.60623188773	5258.5
3025.63083416822	5314
3027.65488691331	5326.75
3029.67839038125	5292
3031.70134483007	5233.5
3033.72375051759	5322.5
3035.74560770144	5305
3037.76691663907	5350.25
3039.78767758768	5363.75
3041.80789080431	5325.75
3043.82755654577	5371.25
3045.84667506867	5404.75
3047.8652466294	5456.25
3049.88327148418	5417.5
3051.90074988899	5365.5
3053.91768209961	5408.75
3055.9340683716	5363.25
3057.94990896033	5405.75
3059.96520412095	5421.5
3061.97995410838	5429.5
3063.99415917734	5458
3066.00781958234	5451
3068.02093557766	5451.5
3070.03350741738	5399.25
3072.04553535535	5472
3074.05701964521	5464.5
3076.06796054036	5473.75
3078.078358294	5414.25
3080.08821315912	5486.75
3082.09752538846	5517.25
3084.10629523454	5444.75
3086.11452294967	5456.25
3088.12220878592	5480.25
3090.12935299515	5502.5
3092.13595582898	5463.25
3094.1420175388	5508
3096.14753837579	5531
3098.15251859088	5542.25
3100.15695843477	5508
3102.16085815793	5572
3104.16421801061	5539.5
3106.16703824282	5505.5
3108.16931910432	5600
3110.17106084464	5558.75
3112.17226371308	5555.75
3114.17292795872	5587.25
3116.17305383034	5643.75
3118.17264157657	5587
3120.17169144571	5638.25
3122.17020368587	5623.75
3124.16817854492	5646.5
3126.16561627044	5641.5
3128.16251710982	5707.5
3130.15888131017	5705.75
3132.15470911837	5711.75
3134.15000078104	5755.75
3136.14475654455	5792.5
3138.13897665502	5782.25
3140.13266135835	5743.75
3142.12581090014	5730.5
3144.11842552577	5794.5
3146.11050548036	5827.25
3148.10205100875	5818.75
3150.09306235557	5844.75
3152.08353976515	5817.5
3154.07348348158	5764.75
3156.06289374869	5846
3158.05177081006	5792.25
3160.04011490899	5873.25
3162.02792628852	5901.5
3164.01520519145	5812.5
3166.00195186029	5857.5
3167.98816653728	5932.75
3169.97384946442	5905.75
3171.95900088344	5879.5
3173.94362103577	5946.5
3175.92771016259	5885.25
3177.91126850484	5934.75
3179.89429630312	5962.75
3181.87679379782	5904
3183.85876122903	5981
3185.84019883657	5970
3187.82110685997	5999.5
3189.80148553851	5989.75
3191.78133511116	6024.5
3193.76065581664	6031.25
3195.73944789337	6010.5
3197.7177115795	6082.75
3199.6954471129	6001
3201.67265473114	6047.75
3203.64933467153	6043.75
3205.62548717107	6084.75
3207.60111246648	6152
3209.57621079421	6080
3211.55078239041	6111.75
3213.52482749093	6112.75
3215.49834633133	6151
3217.4713391469	6166
3219.44380617262	6169.25
3221.41574764317	6199.5
3223.38716379296	6171.75
3225.35805485607	6229.75
3227.32842106631	6261.25
3229.29826265718	6321.75
3231.26757986187	6301.5
3233.2363729133	6309.25
3235.20464204405	6312
3237.17238748643	6295.5
3239.13960947243	6392.25
3241.10630823374	6368.25
3243.07248400174	6345.5
3245.03813700748	6426.25
3247.00326748177	6420
3248.96787565503	6421.5
3250.93196175742	6420.25
3252.89552601877	6438.5
3254.8585686686	6426.75
3256.82108993612	6502.25
3258.78309005022	6494
3260.74456923948	6503.5
3262.70552773215	6476
3264.66596575617	6560
3266.62588353916	6555
3268.58528130843	6489.25
3270.54415929094	6491.25
3272.50251771336	6499.5
3274.46035680201	6568.25
3276.4176767829	6555.75
3278.37447788171	6537.5
3280.33076032379	6623.75
3282.28652433416	6563.75
3284.24177013751	6557.75
3286.1964979582	6621.75
3288.15070802027	6621.75
3290.10440054741	6571.25
3292.05757576298	6605.5
3294.01023389001	6626
3295.96237515119	6652.5
3297.91399976887	6662.5
3299.86510796506	6653.25
3301.81569996142	6617
3303.76577597932	6622
3305.7153362397	6725.75
3307.66438096324	6620.5
3309.61291037024	6617.5
3311.56092468064	6659.25
3313.50842411404	6679
3315.45540888971	6722.25
3317.40187922656	6614
3319.34783534315	6673.75
3321.29327745768	6703.75
3323.23820578801	6616.75
3325.18262055164	6672.25
3327.1265219657	6633.75
3329.06991024699	6636.25
3331.01278561194	6716.5
3332.95514827662	6634
3334.89699845674	6750.75
3336.83833636766	6706
3338.77916222434	6650.25
3340.71947624143	6679.5
3342.65927863317	6705.5
3344.59856961346	6649.75
3346.53734939584	6703
3348.47561819344	6734.25
3350.41337621906	6657.5
3352.35062368513	6719.5
3354.28736080368	6684.25
3356.22358778637	6791
3358.15930484452	6716
3360.09451218904	6754.25
3362.02921003047	6724.25
3363.96339857898	6757.25
3365.89707804436	6725.5
3367.83024863602	6726.75
3369.76291056299	6729.5
3371.69506403389	6730.25
3373.62670925699	6793
3375.55784644016	6772.5
3377.4884757909	6775
3379.41859751629	6823.5
3381.34821182305	6818.5
3383.27731891749	6811.75
3385.20591900555	6813.75
3387.13401229276	6839
3389.06159898426	6837.25
3390.9886792848	6859.5
3392.91525339872	6903.5
3394.84132152998	6891
3396.76688388213	6888
3398.69194065833	6867.75
3400.61649206133	6898.75
3402.54053829348	6940.5
3404.46407955672	6915.25
3406.3871160526	6915.5
3408.30964798225	6913
3410.23167554639	6905.75
3412.15319894535	6984.5
3414.07421837904	6939.5
3415.99473404695	7006
3417.91474614817	7012.25
3419.83425488136	7047.75
3421.75326044479	6958.25
3423.67176303631	6979.75
3425.58976285332	6993
3427.50726009282	7017
3429.42425495143	6962
3431.34074762528	7021.25
3433.25673831012	6929.75
3435.17222720127	7008
3437.08721449362	7040.5
3439.00170038164	6988.25
3440.91568505936	7057.5
3442.82916872039	6952.5
3444.74215155791	6991.25
3446.65463376468	7010
3448.566615533	6963.25
3450.47809705476	6997.75
3452.3890785214	6929.75
3454.29956012393	7044.5
3456.20954205293	7025
3458.11902449853	6973
3460.02800765041	6980
3461.93649169784	6975.25
3463.84447682962	6969.5
3465.75196323412	6996
3467.65895109925	6918.75
3469.56544061249	7017.25
3471.47143196086	7030.25
3473.37692533093	7001.75
3475.28192090884	6947.25
3477.18641888026	7027.5
3479.09041943039	7036.5
3480.99392274402	6930.75
3482.89692900545	6999.25
3484.79943839853	7008
3486.70145110666	7068.75
3488.60296731277	7007
3490.50398719933	6965
3492.40451094836	6953.75
3494.30453874141	6985
3496.20407075956	7007
3498.10310718342	7009.5
3500.00164819315	6993