201.866871357051	641.5
204.754250281454	639.25
207.640596790938	637.75
210.525911876299	641.75
213.410196525689	637.25
216.293451724508	638
219.175678455485	639.5
222.056877698662	639.5
224.937050431388	634
227.816197628363	637.75
230.694320261602	638
233.571419300504	642.75
236.447495711764	634.5
239.322550459507	637
242.196584505182	637.75
245.069598807626	633.5
247.941594323078	634.25
250.812572005154	641
253.682532804884	638
256.551477670699	638.25
259.419407548456	634.5
262.286323381439	633.75
265.152226110364	632.25
268.017116673389	635
270.880996006115	637
273.743865041622	640.5
276.605724710436	634.25
279.466575940562	638.75
282.326419657496	637.25
285.1852567842	641.5
288.043088241157	635.5
290.899914946349	642.5
293.75573781526	646
296.610557760898	645.5
299.464375693817	644.5
302.317192522078	647.75
305.169009151297	639.25
308.019826484655	642
310.86964542287	640
313.718466864233	641
316.566291704614	637.5
319.413120837457	638.5
322.258955153804	644.75
325.103795542291	634.25
327.947642889128	639.25
330.79049807819	642.5
333.632361990927	644.75
336.473235506444	644
339.31311950145	645
342.152014850322	642.5
344.989922425062	639.25
347.826843095354	639.75
350.662777728528	646.75
353.497727189577	644.75
356.331692341195	650.25
359.164674043732	648.75
361.996673155267	653.75
364.827690531536	650.5
367.65772702602	648.5
370.486783489887	646.75
373.314860772047	645.5
376.14195971912	651
378.968081175466	656.25
381.793225983212	648
384.617394982201	642.75
387.44058901005	649.25
390.262808902131	646.5
393.08405549161	646.5
395.904329609395	654.25
398.723632084213	645.75
401.541963742569	648.25
404.359325408779	652.5
407.175717904938	649.75
409.991142050982	655
412.805598664665	648
415.619088561551	658.5
418.43161255505	649.25
421.243171456415	652
424.053766074758	658.5
426.863397217017	654
429.672065688024	646
432.479772290455	650.5
435.286517824879	652
438.092303089736	653
440.897128881359	654.5
443.70099599399	652.5
446.503905219761	654.25
449.305857348711	656.5
452.106853168796	648
454.906893465919	654.5
457.705979023885	648.5
460.504110624439	644.25
463.3012890473	646.75
466.097515070087	653.5
468.892789468424	647.25
471.687113015869	651.25
474.48048648395	650
477.272910642198	655
480.064386258109	645.25
482.854914097159	654
485.644494922839	659
488.433129496636	651.75
491.220818578047	657.75
494.007562924584	660.75
496.793363291785	653.5
499.578220433217	658
502.362135100473	657
505.145108043209	657
507.927140009098	658.75
510.708231743909	657
513.488383991433	661.75
516.267597493556	660.5
519.04587299022	656.75
521.82321121946	661.75
524.599612917398	661.25
527.375078818233	658.5
530.149609654287	661
532.923206155967	658.25
535.695869051804	653.25
538.467599068448	657.75
541.238396930665	660.75
544.008263361364	659.25
546.777199081578	662.75
549.545204810493	659.75
552.312281265436	656.5
555.078429161898	656.25
557.843649213533	657.75
560.607942132156	660.75
563.371308627753	664.25
566.133749408495	658.25
568.895265180756	658.25
571.655856649064	660.75
574.415524516189	662.75
577.174269483075	662.25
579.932092248884	663.25
582.688993510994	664.75
585.444973965023	658
588.200034304795	651
590.95417522237	666.75
593.70739740807	664
596.459701550433	667.25
599.21108833628	657.25
601.961558450668	656.25
604.711112576933	661.5
607.459751396673	661.5
610.207475589748	660.5
612.954285834338	667.75
615.700182806879	662.75
618.445167182101	654.5
621.189239633055	661.25
623.932400831087	660.75
626.674651445839	657.75
629.415992145303	659.25
632.156423595745	661
634.895946461813	665.5
637.634561406449	665.5
640.37226909096	664.75
643.109070174978	665
645.844965316508	661.5
648.579955171888	663.5
651.314040395846	664.5
654.047221641456	662.5
656.779499560176	663.75
659.510874801828	663
662.241348014642	666.25
664.97091984524	663.75
667.699590938606	662.25
670.427361938164	663.5
673.15423348573	664.75
675.880206221526	660.25
678.605280784206	667.75
681.329457810829	669.25
684.05273793692	659
686.775121796389	663.25
689.49661002163	667.5
692.217203243454	667.5
694.936902091144	663.5
697.655707192425	658.25
700.373619173493	670.25
703.09063865901	659.75
705.806766272093	663.25
708.522002634378	673.25
711.236348365946	660.25
713.94980408538	670.25
716.662370409762	665.75
719.374047954676	668.25
722.08483733419	674
724.794739160909	668
727.503754045949	675.75
730.21188259892	669.25
732.919125427998	664.5
735.625483139855	671
738.330956339723	668
741.035545631374	667
743.739251617106	675.25
746.44207489779	670.75
749.144016072852	675.25
751.845075740272	673.75
754.545254496603	674.75
757.244552936976	680
759.94297165508	674.25
762.640511243222	676
765.337172292249	673.25
768.032955391649	672
770.727861129482	669.75
773.421890092413	676.75
776.11504286572	671.5
778.807320033298	680
781.49872217765	678
784.18924987991	677.25
786.87890371984	676
789.567684275826	674.5
792.255592124908	670.75
794.94262784276	678.75
797.628792003703	675.25
800.314085180715	669.75
802.998507945427	676.25
805.682060868145	682.75
808.364744517821	676
811.046559462105	671.5
813.727506267311	680.25
816.407585498422	676.5
819.08679771913	673.5
821.765143491822	678.5
824.442623377563	677.75
827.119237936127	674.75
829.794987726003	679.75
832.469873304377	677.75
835.143895227167	678
837.817054048985	681.75
840.489350323205	686
843.160784601892	683.5
845.831357435894	682
848.501069374739	686.5
851.169920966753	678.25
853.837912758987	685.75
856.505045297232	686.25
859.171319126071	682.5
861.836734788823	679.75
864.501292827579	688.75
867.164993783208	682.25
869.827838195361	691.5
872.489826602454	693.75
875.150959541701	687.25
877.811237549104	684.25
880.470661159456	689
883.129230906357	683.5
885.786947322205	683.5
888.443810938206	687.5
891.099822284385	685.25
893.754981889586	688.5
896.409290281452	684.75
899.062747986485	689.75
901.715355529999	689.25
904.367113436154	695.75
907.01802222793	692.5
909.668082427172	686.5
912.317294554574	690.25
914.965659129659	688.75
917.613176670835	684
920.259847695364	688.25
922.90567271936	691.75
925.550652257825	683.25
928.194786824621	683.25
930.838076932512	689.25
933.480523093109	683.5
936.122125816953	693.5
938.762885613447	690.25
941.402802990899	681.5
944.041878456523	683.25
946.680112516428	692.5
949.31750567563	685.25
951.954058438081	683.25
954.589771306633	691.5
957.224644783048	691
959.858679368044	690
962.491875561238	686.5
965.12423386121	681.75
967.75575476545	691.5
970.386438770423	682.5
973.016286371501	685
975.645298063046	684
978.273474338355	690.5
980.900815689674	687.75
983.527322608243	686
986.152995584245	690.75
988.777835106834	691.75
991.401841664148	690.75
994.025015743307	690.25
996.647357830407	690.25
999.268868410534	695
1001.88954796777	681
1004.50939698518	698
1007.12841594484	700
1009.74660532783	686
1012.36396561423	689
1014.98049728314	697.75
1017.59620081267	695
1020.21107667995	696.25
1022.82512536112	697.75
1025.43834733138	697.25
1028.05074306493	701
1030.66231303501	701.75
1033.27305771392	702.25
1035.88297757299	691.25
1038.49207308257	691.5
1041.10034471211	704.75
1043.70779293008	697.75
1046.31441820402	700
1048.92022100052	710.5
1051.52520178525	717.25
1054.12936102295	722.5
1056.73269917742	744.75
1059.33521671154	768.75
1061.93691408729	789
1064.53779176571	778
1067.13785020694	753.25
1069.73708987022	733.75
1072.33551121386	719.75
1074.93311469528	718.25
1077.52990077103	720.5
1080.12586989674	719.5
1082.72102252714	706.75
1085.31535911611	712.25
1087.90888011663	704.75
1090.50158598078	716
1093.09347715979	715.5
1095.68455410403	702.75
1098.27481726296	707.5
1100.86426708523	704
1103.45290401857	709.75
1106.04072850991	709.5
1108.6277410053	707.25
1111.21394194993	707.25
1113.79933178816	713.75
1116.3839109635	712
1118.96767991862	727.25
1121.55063909539	733
1124.13278893477	763.5
1126.71412987696	794.5
1129.29466236132	793.5
1131.87438682637	769.5
1134.45330370982	748.5
1137.03141344858	716.75
1139.60871647872	714.25
1142.18521323554	706.75
1144.7609041535	705.75
1147.33578966629	706.5
1149.90987020676	713.75
1152.48314620702	715
1155.05561809835	706.75
1157.62728631125	706.25
1160.19815127545	703.5
1162.76821341988	708.75
1165.33747317271	704
1167.90593096133	714
1170.47358721235	716.75
1173.04044235163	706.75
1175.60649680425	706.25
1178.17175099454	691.5
1180.73620534607	702.25
1183.29986028165	696.5
1185.86271622336	696
1188.42477359249	697
1190.98603280964	698.75
1193.54649429462	694.25
1196.10615846653	696
1198.66502574372	702.5
1201.22309654385	702.25
1203.78037128378	697.75
1206.33685037971	698.25
1208.89253424709	698.75
1211.44742330063	701.75
1214.00151795438	696.25
1216.55481862163	688.75
1219.10732571497	696.75
1221.65903964631	699.25
1224.20996082683	697.5
1226.760089667	701
1229.30942657664	700.25
1231.85797196483	697.5
1234.40572623998	695.25
1236.95268980981	700.25
1239.49886308136	707
1242.04424646098	697.75
1244.58884035435	697.5
1247.13264516647	712.25
1249.67566130166	708.25
1252.21788916358	701.75
1254.75932915524	701.75
1257.29998167896	718.25
1259.83984713639	709.25
1262.37892592857	705
1264.91721845586	708.5
1267.45472511795	716.25
1269.9914463139	712.25
1272.52738244213	719.25
1275.0625339004	719.5
1277.59690108587	717.75
1280.130484395	721
1282.66328422367	717.5
1285.19530096712	726
1287.72653501993	753.5
1290.25698677608	789.25
1292.78665662894	854.5
1295.31554497125	848
1297.8436521951	811.25
1300.37097869203	775
1302.89752485292	753.25
1305.42329106805	736.5
1307.94827772713	738.25
1310.47248521921	742.25
1312.99591393279	728.25
1315.51856425575	725.25
1318.04043657536	725.75
1320.56153127836	723.75
1323.08184875083	715.75
1325.6013893783	725.25
1328.12015354572	722.75
1330.63814163744	725
1333.15535403727	718.5
1335.67179112839	721.25
1338.18745329347	722
1340.70234091454	727.5
1343.21645437314	715.75
1345.72979405019	720.25
1348.24236032607	729
1350.75415358059	723
1353.26517419303	728.5
1355.7754225421	728.25
1358.28489900594	721.75
1360.79360396218	732.75
1363.30153778787	737.25
1365.80870085955	733.5
1368.31509355319	728.5
1370.82071624424	731.5
1373.32556930762	736.5
1375.8296531177	726
1378.33296804832	735
1380.83551447282	721.25
1383.33729276399	730.75
1385.83830329408	728.25
1388.33854643489	727.75
1390.83802255762	724.75
1393.33673203301	727
1395.83467523128	728
1398.33185252211	728
1400.82826427471	723.25
1403.32391085777	725
1405.81879263947	728
1408.31290998752	739.25
1410.80626326908	743.25
1413.29885285087	765.25
1415.79067909909	772.5
1418.28174237944	779.75
1420.77204305717	766.25
1423.26158149702	773.25
1425.75035806323	781
1428.2383731196	782.75
1430.72562702942	792
1433.21212015554	812.75
1435.69785286028	838
1438.18282550555	876
1440.66703845275	857.75
1443.15049206284	855.5
1445.6331866963	841.75
1448.11512271316	817.75
1450.59630047298	813.75
1453.07672033486	817.5
1455.55638265748	823.5
1458.03528779902	817.25
1460.51343611725	825.25
1462.99082796946	821.5
1465.46746371252	805.5
1467.94334370285	800
1470.41846829642	791.75
1472.89283784878	781.5
1475.36645271503	781.5
1477.83931324983	765
1480.31141980743	767.75
1482.78277274164	768.25
1485.25337240583	757.5
1487.72321915297	768.25
1490.19231333557	751.75
1492.66065530578	764
1495.12824541525	765.25
1497.5950840153	752
1500.06117145678	755.25
1502.52650809014	758.75
1504.99109426543	760
1507.45493033227	755.75
1509.91801663992	756.75
1512.38035353717	763.25
1514.84194137248	759.5
1517.30278049386	765.75
1519.76287124894	769.25
1522.22221398497	768.75
1524.68080904876	765.5
1527.13865678681	765.75
1529.59575754514	769.75
1532.05211166945	769.5
1534.50771950503	768
1536.96258139678	765
1539.41669768924	770.5
1541.87006872656	771.25
1544.32269485252	769.5
1546.77457641051	785.5
1549.22571374357	777
1551.67610719434	781.5
1554.12575710513	781.5
1556.57466381785	781.25
1559.02282767408	779.5
1561.47024901499	789
1563.91692818144	793
1566.3628655139	789.75
1568.80806135249	786
1571.252516037	794.5
1573.6962299068	793.25
1576.13920330099	793.25
1578.58143655828	805
1581.02293001704	804.75
1583.46368401528	797.5
1585.90369889071	808.5
1588.34297498065	805.75
1590.7815126221	794.5
1593.21931215173	809.5
1595.65637390588	792.25
1598.09269822053	799
1600.52828543135	808.75
1602.96313587367	810
1605.3972498825	794.5
1607.83062779252	809.5
1610.26326993808	808.5
1612.69517665322	801.25
1615.12634827165	807.5
1617.55678512676	803.75
1619.98648755163	799.5
1622.41545587902	804.75
1624.84369044138	814
1627.27119157085	812
1629.69795959924	817.75
1632.12399485808	806.5
1634.54929767859	818.75
1636.97386839165	821
1639.39770732789	820.5
1641.8208148176	807.25
1644.24319119078	806.75
1646.66483677715	813.75
1649.0857519061	826.5
1651.50593690677	812.25
1653.92539210795	826.75
1656.3441178382	818.75
1658.76211442575	824.5
1661.17938219855	830.5
1663.59592148428	822.75
1666.01173261032	827.75
1668.42681590377	836
1670.84117169145	830.5
1673.25480029991	824.5
1675.66770205541	840.5
1678.07987728393	839.75
1680.49132631119	849.5
1682.90204946263	850.25
1685.31204706342	834.75
1687.72131943846	854.5
1690.1298669124	840.75
1692.53768980957	855.5
1694.94478845411	855.5
1697.35116316982	834.75
1699.75681428031	859.25
1702.16174210887	845
1704.56594697858	859.5
1706.96942921222	848.75
1709.37218913235	846
1711.77422706125	849.5
1714.17554332098	839
1716.5761382333	859.5
1718.97601211977	849.75
1721.37516530169	851.75
1723.77359810006	848.5
1726.17131083572	847
1728.56830382922	861
1730.96457740087	861
1733.36013187075	853.75
1735.75496755868	864.75
1738.14908478428	853.75
1740.54248386689	857.5
1742.93516512565	853.75
1745.32712887946	863.5
1747.71837544697	858.25
1750.10890514662	872.5
1752.49871829661	860.5
1754.88781521492	871.25
1757.27619621929	849.25
1759.66386162726	862
1762.05081175612	857.25
1764.43704692297	858.5
1766.82256744465	863.5
1769.20737363782	858.5
1771.59146581887	876
1773.97484430405	866.75
1776.35750940932	873.75
1778.73946145048	868.5
1781.12070074309	872.5
1783.50122760249	881
1785.88104234385	869
1788.26014528209	881
1790.63853673196	871.25
1793.01621700796	886
1795.39318642443	880.25
1797.76944529549	880.5
1800.14499393503	880.5
1802.51983265681	884
1804.8939617743	890.25
1807.26738160085	882.5
1809.64009244957	874.5
1812.01209463339	888.5
1814.38338846504	888.25
1816.75397425706	896.5
1819.12385232181	893.5
1821.49302297142	889
1823.86148651789	899.25
1826.22924327299	892.75
1828.59629354831	887.75
1830.96263765526	896.75
1833.32827590507	895.25
1835.69320860877	900.75
1838.05743607724	905.25
1840.42095862113	907
1842.78377655097	902.25
1845.14589017707	895.5
1847.50729980956	900
1849.86800575843	908.25
1852.22800833346	909.25
1854.58730784427	903.75
1856.94590460032	919
1859.30379891087	907.5
1861.66099108503	900.75
1864.01748143175	924
1866.37327025978	922.75
1868.72835787773	919
1871.08274459403	922.5
1873.43643071697	915.75
1875.78941655464	937.75
1878.14170241498	913.75
1880.4932886058	939.25
1882.84417543469	929
1885.19436320915	924.75
1887.54385223646	935.25
1889.89264282378	921
1892.24073527809	931.25
1894.58812990625	939
1896.93482701493	941.5
1899.28082691067	942.5
1901.62612989984	942
1903.97073628868	955
1906.31464638326	962.5
1908.6578604895	949.25
1911.00037891321	955.25
1913.34220196	961
1915.68332993537	948.5
1918.02376314468	966
1920.36350189311	944.5
1922.70254648573	949
1925.04089722744	958.5
1927.37855442303	963.25
1929.71551837715	955.75
1932.05178939426	964
1934.38736777876	956
1936.72225383484	952.5
1939.0564478666	964.75
1941.38995017799	964
1943.72276107283	973.25
1946.05488085479	971.25
1948.38630982744	965
1950.71704829419	965.5
1953.04709655832	966.75
1955.376454923	967.5
1957.70512369126	970.75
1960.03310316599	974.5
1962.36039364999	965.5
1964.68699544589	964.25
1967.01290885622	978.75
1969.33813418338	967.75
1971.66267172965	953.5
1973.98652179718	975.25
1976.309684688	981.25
1978.63216070402	984
1980.95395014705	993.5
1983.27505331873	981.25
1985.59547052063	983.25
1987.9152020542	979
1990.23424822074	990.75
1992.55260932146	989.5
1994.87028565746	969.75
1997.18727752968	998
1999.503585239	997.75
2001.81920908618	994.75
2004.13414937184	1003
2006.44840639651	997.25
2008.7619804606	995.75
2011.07487186442	1018
2013.38708090815	1014
2015.6986078919	1002
2018.00945311564	1007.5
2020.31961687923	1020
2022.62909948246	1014
2024.93790122498	1025
2027.24602240636	1014.25
2029.55346332604	1021.75
2031.86022428337	1025.5
2034.16630557761	1041
2036.47170750791	1018.75
2038.77643037331	1031.5
2041.08047447275	1035
2043.38384010509	1036.5
2045.68652756907	1038.25
2047.98853716335	1034.75
2050.28986918648	1040.25
2052.59052393692	1041
2054.89050171302	1050.75
2057.18980281306	1045.25
2059.4884275352	1061.5
2061.78637617753	1045
2064.08364903802	1036.5
2066.38024641457	1039.75
2068.67616860497	1049.25
2070.97141590694	1049.25
2073.26598861809	1055.75
2075.55988703595	1050.25
2077.85311145796	1051.5
2080.14566218145	1060.5
2082.43753950371	1054
2084.72874372188	1064
2087.01927513307	1070.5
2089.30913403428	1054.75
2091.59832072241	1057
2093.88683549429	1071.25
2096.17467864666	1074.75
2098.46185047619	1073.75
2100.74835127944	1071.5
2103.03418135292	1088.5
2105.31934099303	1082
2107.6038304961	1079.5
2109.88765015838	1086
2112.17080027602	1082.5
2114.45328114513	1083.5
2116.7350930617	1077.25
2119.01623632165	1077.5
2121.29671122085	1081
2123.57651805505	1091.25
2125.85565711996	1101.25
2128.13412871117	1099.25
2130.41193312424	1107.25
2132.68907065462	1103.5
2134.96554159771	1111
2137.24134624881	1123.25
2139.51648490317	1110.5
2141.79095785593	1110
2144.0647654022	1105.25
2146.33790783698	1118.25
2148.61038545524	1105.25
2150.88219855182	1118.5
2153.15334742154	1147.5
2155.42383235911	1122
2157.6936536592	1110.25
2159.9628116164	1136
2162.23130652522	1118.75
2164.49913868011	1126.5
2166.76630837544	1132.5
2169.03281590552	1126.75
2171.2986615646	1123
2173.56384564685	1133.75
2175.82836844637	1121.75
2178.0922302572	1128
2180.35543137332	1133.25
2182.61797208862	1129.75
2184.87985269695	1123.25
2187.14107349208	1126
2189.40163476773	1150
2191.66153681753	1124
2193.92077993507	1139
2196.17936441386	1128.25
2198.43729054735	1131.75
2200.69455862894	1105.5
2202.95116895194	1133
2205.20712180962	1141.25
2207.46241749519	1127.75
2209.71705630179	1130
2211.97103852248	1124.25
2214.2243644503	1125.25
2216.47703437819	1124.5
2218.72904859905	1117.25
2220.98040740571	1119
2223.23111109095	1124.25
2225.4811599475	1111.75
2227.73055426799	1114.5
2229.97929434504	1119
2232.22738047118	1108.25
2234.47481293889	1114.5
2236.72159204058	1110.5
2238.96771806864	1111.75
2241.21319131536	1131
2243.458012073	1106.5
2245.70218063374	1117.5
2247.94569728973	1106.5
2250.18856233304	1106.75
2252.4307760557	1102.75
2254.67233874967	1090
2256.91325070687	1104.75
2259.15351221915	1111.5
2261.39312357831	1103
2263.63208507611	1097.5
2265.87039700422	1095.75
2268.1080596543	1103.5
2270.34507331792	1084.5
2272.5814382866	1096.25
2274.81715485183	1088.25
2277.05222330502	1083.75
2279.28664393755	1080.25
2281.52041704072	1103.75
2283.75354290581	1093.25
2285.98602182401	1085.25
2288.21785408648	1086.75
2290.44903998434	1082.25
2292.67957980862	1088.5
2294.90947385033	1066.25
2297.1387224004	1076.75
2299.36732574975	1082.5
2301.59528418921	1089
2303.82259800958	1070
2306.04926750158	1070.75
2308.27529295593	1077.5
2310.50067466325	1059.25
2312.72541291412	1057.5
2314.9495079991	1058.5
2317.17296020866	1055.5
2319.39576983323	1080.5
2321.61793716322	1062.5
2323.83946248894	1068.5
2326.06034610069	1065.5
2328.28058828871	1069.75
2330.50018934317	1050.25
2332.7191495542	1053
2334.93746921192	1063.25
2337.15514860633	1061.25
2339.37218802743	1066.25
2341.58858776516	1050.5
2343.80434810941	1052.25
2346.01946935001	1051.5
2348.23395177675	1053.75
2350.44779567939	1064.5
2352.66100134759	1042
2354.87356907101	1059.5
2357.08549913925	1057
2359.29679184185	1039.25
2361.50744746829	1045.75
2363.71746630804	1049.5
2365.92684865048	1040.75
2368.13559478499	1048
2370.34370500083	1037.75
2372.55117958727	1033.75
2374.75801883352	1034.5
2376.96422302874	1037
2379.16979246202	1042.25
2381.37472742243	1033.25
2383.57902819898	1039
2385.78269508063	1040
2387.98572835629	1037.75
2390.18812831482	1034
2392.38989524505	1037.75
2394.59102943573	1022
2396.79153117559	1030.5
2398.9914007533	1031.25
2401.19063845748	1026.75
2403.38924457672	1024.75
2405.58721939951	1025.5
2407.78456321435	1037.75
2409.98127630966	1021.75
2412.17735897382	1016
2414.37281149517	1029
2416.56763416198	1026
2418.76182726249	1035.5
2420.95539108487	1014.5
2423.14832591726	1034.25
2425.34063204776	1007.75
2427.53230976439	1036
2429.72335935513	1018
2431.91378110795	1025.5
2434.10357531071	1021.25
2436.29274225125	1028.75
2438.48128221739	1006.25
2440.66919549683	1017.75
2442.8564823773	1009.75
2445.04314314641	1013
2447.22917809176	1005.5
2449.4145875009	1013.5
2451.59937166131	1010.75
2453.78353086044	1004.5
2455.96706538568	1000.75
2458.14997552436	1002.75
2460.33226156379	1005.5
2462.51392379119	1005.5
2464.69496249376	1000.5
2466.87537795862	996.75
2469.05517047288	987
2471.23434032357	1000.5
2473.41288779767	1002.5
2475.59081318211	999
2477.76811676378	998.75
2479.9447988295	1005.5
2482.12085966605	991.75
2484.29629956016	993
2486.4711187985	1003
2488.64531766769	1013.25
2490.8188964543	1003.5
2492.99185544484	989.5
2495.16419492579	991.25
2497.33591518353	987.75
2499.50701650444	986.5
2501.67749917482	986.25
2503.84736348091	973
2506.01660970891	976.75
2508.18523814496	982.25
2510.35324907514	989.5
2512.52064278551	985.5
2514.68741956201	973.25
2516.85357969058	993.5
2519.01912345709	986
2521.18405114735	985
2523.34836304711	983.5
2525.51205944208	980
2527.6751406179	976.5
2529.83760686016	984.25
2531.99945845439	975.75
2534.16069568606	982.75
2536.3213188406	975
2538.48132820336	975
2540.64072405965	969.25
2542.79950669471	974
2544.95767639373	974.75
2547.11523344184	967.25
2549.27217812411	966.5
2551.42851072555	973.75
2553.58423153111	969.5
2555.73934082569	967.5
2557.89383889412	984.75
2560.04772602118	961
2562.20100249158	964.5
2564.35366858996	961.5
2566.50572460093	974
2568.65717080901	952.5
2570.80800749867	954.75
2572.95823495433	969.75
2575.10785346031	962.5
2577.25686330093	951.75
2579.40526476038	944
2581.55305812282	952
2583.70024367237	945.5
2585.84682169303	962.75
2587.99279246879	955
2590.13815628354	955.75
2592.28291342112	948.75
2594.42706416531	944.5
2596.5706087998	968
2598.71354760826	962
2600.85588087425	969
2602.99760888127	949.5
2605.13873191278	959.5
2607.27925025214	964.75
2609.41916418269	965.75
2611.55847398764	952.75
2613.69717995017	932.25
2615.83528235339	950
2617.97278148034	952
2620.10967761398	952
2622.2459710372	955.75
2624.38166203284	943.5
2626.51675088365	961.75
2628.65123787231	949.25
2630.78512328145	939.5
2632.9184073936	945.75
2635.05109049124	951.5
2637.18317285676	945.5
2639.31465477248	952.75
2641.44553652067	953.75
2643.5758183835	947.5
2645.70550064309	951.25
2647.83458358144	941.25
2649.96306748053	965.75
2652.09095262223	943.5
2654.21823928836	948.25
2656.34492776063	953.5
2658.47101832071	942.5
2660.59651125015	949.75
2662.72140683047	955.25
2664.84570534309	949.25
2666.96940706934	946.25
2669.0925122905	947
2671.21502128773	951.75
2673.33693434215	954.5
2675.45825173479	943.5
2677.57897374658	955.75
2679.69910065839	943
2681.818632751	953.25
2683.93757030511	943
2686.05591360133	941.25
2688.17366292021	954
2690.29081854218	955.75
2692.40738074762	946.25
2694.52334981681	947.75
2696.63872602995	965.25
2698.75350966713	957.75
2700.86770100841	965.5
2702.98130033371	963
2705.09430792289	965.75
2707.20672405571	993.75
2709.31854901185	978.25
2711.42978307091	984.25
2713.54042651238	995
2715.65047961567	1000.75
2717.7599426601	1001
2719.86881592491	1004.5
2721.97709968924	1002.75
2724.08479423213	1000.25
2726.19189983255	990.25
2728.29841676934	991.75
2730.4043453213	985.25
2732.5096857671	975.75
2734.61443838532	969.5
2736.71860345444	953.5
2738.82218125286	962.75
2740.92517205889	954.75
2743.02757615072	955.5
2745.12939380646	960
2747.23062530411	952.75
2749.33127092159	944.75
2751.4313309367	951
2753.53080562716	935.5
2755.62969527058	948.5
2757.72800014448	932.5
2759.82572052625	936.25
2761.92285669323	939.25
2764.0194089226	932.75
2766.11537749147	943.75
2768.21076267686	945
2770.30556475566	931
2772.39978400465	931.75
2774.49342070054	935.75
2776.58647511991	936.5
2778.67894753923	937.75
2780.77083823487	930
2782.8621474831	944
2784.95287556007	934.25
2787.04302274184	923.25
2789.13258930433	945.25
2791.22157552338	938
2793.30998167471	944
2795.39780803392	943
2797.4850548765	946.75
2799.57172247786	946
2801.65781111324	946
2803.74332105781	939.75
2805.82825258661	941.25
2807.91260597457	945
2809.9963814965	969.25
2812.07957942711	958.5
2814.16220004096	961.25
2816.24424361252	958.5
2818.32571041614	965.75
2820.40660072604	977.75
2822.48691481631	988.75
2824.56665296098	1015.5
2826.64581543388	1010.25
2828.72440250876	1050.25
2830.80241445925	1090
2832.87985155885	1157.5
2834.95671408093	1241.25
2837.03300229875	1361.25
2839.10871648544	1520
2841.18385691399	1715.25
2843.25842385729	1900.5
2845.33241758808	2012.75
2847.40583837898	2091.75
2849.4786865025	2051
2851.550962231	1938.5
2853.6226658367	1854.75
2855.69379759173	1749.25
2857.76435776806	1696
2859.83434663753	1648.75
2861.90376447184	1614.5
2863.97261154259	1574.5
2866.0408881212	1539.75
2868.10859447901	1532.5
2870.17573088717	1579
2872.24229761673	1603
2874.30829493859	1694.75
2876.37372312352	1862.25
2878.43858244215	2155.25
2880.50287316496	2362
2882.56659556231	2317.75
2884.62974990439	2057.25
2886.69233646129	1873
2888.75435550293	1754
2890.81580729909	1704
2892.87669211941	1678
2894.93701023339	1648.5
2896.99676191039	1626.5
2899.05594741961	1625.5
2901.1145670301	1588.25
2903.1726210108	1533.5
2905.23010963045	1524.75
2907.28703315768	1485
2909.34339186096	1448.75
2911.39918600861	1423.25
2913.45441586879	1389.5
2915.50908170952	1391
2917.56318379867	1361
2919.61672240395	1379.25
2921.66969779291	1370.25
2923.72211023295	1364.5
2925.77395999134	1362.25
2927.82524733515	1353
2929.87597253132	1333.5
2931.92613584663	1320.25
2933.97573754769	1300
2936.02477790097	1258.75
2938.07325717276	1228.5
2940.1211756292	1189.25
2942.16853353626	1148.5
2944.21533115976	1113
2946.26156876536	1086.25
2948.30724661853	1048.5
2950.3523649846	1015
2952.39692412872	1032
2954.44092431587	1016.25
2956.48436581089	1004.75
2958.52724887843	997
2960.56957378296	989.5
2962.6113407888	997
2964.65255016011	967.5
2966.69320216083	979.25
2968.73329705479	974.25
2970.77283510559	967.5
2972.81181657671	948.5
2974.8502417314	948.75
2976.88811083279	951
2978.92542414378	955.25
2980.96218192713	943.25
2982.99838444541	951.75
2985.034031961	945
2987.06912473612	937
2989.1036630328	949
2991.13764711288	928.25
2993.17107723804	955
2995.20395366974	935.5
2997.23627666931	931.5
2999.26804649782	956.5
3001.29926341624	951
3003.32992768528	938.25
3005.3600395655	952.25
3007.38959931726	942.5
3009.41860720076	950.25
3011.44706347595	939.5
3013.47496840263	943.25
3015.50232224041	949
3017.5291252487	935.75
3019.5553776867	943.5
3021.58107981344	943.75
3023.60623188773	946.5
3025.63083416822	940.25
3027.65488691331	938.75
3029.67839038125	953.25
3031.70134483007	947
3033.72375051759	947
3035.74560770144	952.5
3037.76691663907	946
3039.78767758768	944.5
3041.80789080431	939
3043.82755654577	944.75
3045.84667506867	948.75
3047.8652466294	948.5
3049.88327148418	951
3051.90074988899	933.5
3053.91768209961	945
3055.9340683716	945
3057.94990896033	942.5
3059.96520412095	949.25
3061.97995410838	938.5
3063.99415917734	934.25
3066.00781958234	944
3068.02093557766	946.75
3070.03350741738	954.25
3072.04553535535	950.75
3074.05701964521	946.5
3076.06796054036	947
3078.078358294	925.25
3080.08821315912	949.5
3082.09752538846	952
3084.10629523454	947.5
3086.11452294967	947.5
3088.12220878592	950.5
3090.12935299515	938.25
3092.13595582898	935.5
3094.1420175388	941
3096.14753837579	945
3098.15251859088	937.75
3100.15695843477	943.75
3102.16085815793	948
3104.16421801061	939.25
3106.16703824282	940.25
3108.16931910432	960.75
3110.17106084464	933.5
3112.17226371308	955.5
3114.17292795872	941.25
3116.17305383034	927.75
3118.17264157657	945.75
3120.17169144571	958.75
3122.17020368587	945.5
3124.16817854492	943
3126.16561627044	947.5
3128.16251710982	940.5
3130.15888131017	956
3132.15470911837	952.75
3134.15000078104	963.75
3136.14475654455	954.75
3138.13897665502	955
3140.13266135835	949.75
3142.12581090014	947.25
3144.11842552577	956.25
3146.11050548036	955.75
3148.10205100875	957.75
3150.09306235557	955.25
3152.08353976515	945.25
3154.07348348158	946.25
3156.06289374869	950.5
3158.05177081006	966
3160.04011490899	952
3162.02792628852	956
3164.01520519145	961.5
3166.00195186029	939
3167.98816653728	952
3169.97384946442	956.75
3171.95900088344	956
3173.94362103577	963.25
3175.92771016259	950.5
3177.91126850484	960
3179.89429630312	956
3181.87679379782	958
3183.85876122903	959.25
3185.84019883657	958.25
3187.82110685997	964.25
3189.80148553851	953.25
3191.78133511116	953.5
3193.76065581664	956.5
3195.73944789337	953
3197.7177115795	953.75
3199.6954471129	962.75
3201.67265473114	965.25
3203.64933467153	967
3205.62548717107	957.5
3207.60111246648	967
3209.57621079421	969.5
3211.55078239041	967.25
3213.52482749093	953.5
3215.49834633133	967.5
3217.4713391469	970.25
3219.44380617262	979
3221.41574764317	952.5
3223.38716379296	960.5
3225.35805485607	966.5
3227.32842106631	978.25
3229.29826265718	983
3231.26757986187	971.25
3233.2363729133	989
3235.20464204405	976.75
3237.17238748643	976.75
3239.13960947243	990.25
3241.10630823374	987
3243.07248400174	982.25
3245.03813700748	984.25
3247.00326748177	975.25
3248.96787565503	990.25
3250.93196175742	997.5
3252.89552601877	978.25
3254.8585686686	986.75
3256.82108993612	994.75
3258.78309005022	969.5
3260.74456923948	986.5
3262.70552773215	991.5
3264.66596575617	983.25
3266.62588353916	976.75
3268.58528130843	1002
3270.54415929094	999.75
3272.50251771336	992.75
3274.46035680201	1000.5
3276.4176767829	998.25
3278.37447788171	987.5
3280.33076032379	995.5
3282.28652433416	987.25
3284.24177013751	997
3286.1964979582	999.5
3288.15070802027	1010.25
3290.10440054741	987.75
3292.05757576298	985.5
3294.01023389001	996.25
3295.96237515119	999
3297.91399976887	998.75
3299.86510796506	991.5
3301.81569996142	998
3303.76577597932	987.5
3305.7153362397	1008.25
3307.66438096324	1000.5
3309.61291037024	1004.5
3311.56092468064	1009.5
3313.50842411404	985.25
3315.45540888971	987.25
3317.40187922656	994.25
3319.34783534315	996
3321.29327745768	997.75
3323.23820578801	997.5
3325.18262055164	1006.5
3327.1265219657	992.5
3329.06991024699	996
3331.01278561194	990.75
3332.95514827662	987.25
3334.89699845674	996
3336.83833636766	1001.75
3338.77916222434	994.75
3340.71947624143	986
3342.65927863317	991.75
3344.59856961346	993
3346.53734939584	995.75
3348.47561819344	989.25
3350.41337621906	995.25
3352.35062368513	988.5
3354.28736080368	1006.75
3356.22358778637	985.5
3358.15930484452	994.5
3360.09451218904	988
3362.02921003047	994.75
3363.96339857898	998.5
3365.89707804436	999
3367.83024863602	992
3369.76291056299	984.5
3371.69506403389	989.75
3373.62670925699	992.5
3375.55784644016	1006
3377.4884757909	979.75
3379.41859751629	997.25
3381.34821182305	1003.75
3383.27731891749	987.25
3385.20591900555	1008.25
3387.13401229276	996.5
3389.06159898426	1003
3390.9886792848	1005.75
3392.91525339872	1000.25
3394.84132152998	998.25
3396.76688388213	996.5
3398.69194065833	1010.5
3400.61649206133	995
3402.54053829348	998.75
3404.46407955672	1006
3406.3871160526	999.5
3408.30964798225	998.5
3410.23167554639	1000.75
3412.15319894535	1010.75
3414.07421837904	1003.5
3415.99473404695	995.25
3417.91474614817	994.5
3419.83425488136	1010
3421.75326044479	996.75
3423.67176303631	998.75
3425.58976285332	1007.5
3427.50726009282	1009.5
3429.42425495143	1000.5
3431.34074762528	1017
3433.25673831012	1001.25
3435.17222720127	1005.5
3437.08721449362	1016.5
3439.00170038164	1016.75
3440.91568505936	997.75
3442.82916872039	1004.75
3444.74215155791	1006.25
3446.65463376468	1008.75
3448.566615533	1015.5
3450.47809705476	999.25
3452.3890785214	998
3454.29956012393	1003.75
3456.20954205293	1010.25
3458.11902449853	998.25
3460.02800765041	1000.75
3461.93649169784	1016
3463.84447682962	997.5
3465.75196323412	1011
3467.65895109925	998.25
3469.56544061249	1007.75
3471.47143196086	1009.75
3473.37692533093	1001.5
3475.28192090884	1018
3477.18641888026	999
3479.09041943039	1003.75
3480.99392274402	1000.75
3482.89692900545	1011
3484.79943839853	996.25
3486.70145110666	1000.5
3488.60296731277	997.75
3490.50398719933	999.5
3492.40451094836	1001.75
3494.30453874141	1018
3496.20407075956	999.25
3498.10310718342	1004.25
3500.00164819315	1012.25