201.866871357051	13265.75
204.754250281454	13391
207.640596790938	13472.75
210.525911876299	13348.5
213.410196525689	13390.5
216.293451724508	13420
219.175678455485	13496
222.056877698662	13524.75
224.937050431388	13411
227.816197628363	13565.25
230.694320261602	13565.5
233.571419300504	13592
236.447495711764	13684.25
239.322550459507	13636.5
242.196584505182	13810.25
245.069598807626	13761.75
247.941594323078	13774.5
250.812572005154	13842.75
253.682532804884	13772.25
256.551477670699	13889.25
259.419407548456	13837.75
262.286323381439	13856.75
265.152226110364	13958.75
268.017116673389	13946.25
270.880996006115	13914.5
273.743865041622	13853
276.605724710436	13918.75
279.466575940562	13929.25
282.326419657496	14013.75
285.1852567842	13951.25
288.043088241157	13985.25
290.899914946349	13979.5
293.75573781526	14048.5
296.610557760898	14102.5
299.464375693817	14017
302.317192522078	13995.25
305.169009151297	13981.5
308.019826484655	13965.75
310.86964542287	13987
313.718466864233	13916.75
316.566291704614	13994
319.413120837457	13930.5
322.258955153804	13960.5
325.103795542291	13958.75
327.947642889128	13925.25
330.79049807819	13930
333.632361990927	13935.5
336.473235506444	13834.5
339.31311950145	14007
342.152014850322	13927.25
344.989922425062	14089.25
347.826843095354	14124.5
350.662777728528	14208.5
353.497727189577	14135.75
356.331692341195	14169.5
359.164674043732	14249.75
361.996673155267	14288.25
364.827690531536	14349.25
367.65772702602	14417
370.486783489887	14400
373.314860772047	14444.5
376.14195971912	14338.25
378.968081175466	14488.75
381.793225983212	14278.75
384.617394982201	14399
387.44058901005	14467.75
390.262808902131	14286
393.08405549161	14292
395.904329609395	14349.5
398.723632084213	14388
401.541963742569	14318.25
404.359325408779	14439.25
407.175717904938	14458.25
409.991142050982	14492.5
412.805598664665	14511.25
415.619088561551	14535.5
418.43161255505	14632.25
421.243171456415	14642.25
424.053766074758	14687.5
426.863397217017	14770
429.672065688024	14658.25
432.479772290455	14841
435.286517824879	14793
438.092303089736	14787
440.897128881359	14851.5
443.70099599399	14838.25
446.503905219761	14824.5
449.305857348711	14732
452.106853168796	14716.75
454.906893465919	14657.25
457.705979023885	14703
460.504110624439	14662.75
463.3012890473	14544.75
466.097515070087	14524.25
468.892789468424	14530.25
471.687113015869	14539
474.48048648395	14521
477.272910642198	14450
480.064386258109	14443.75
482.854914097159	14472.25
485.644494922839	14583.75
488.433129496636	14571.5
491.220818578047	14609.75
494.007562924584	14601.75
496.793363291785	14771
499.578220433217	14699.75
502.362135100473	14776.75
505.145108043209	14859
507.927140009098	14826
510.708231743909	14780.75
513.488383991433	14889.5
516.267597493556	14879.5
519.04587299022	14855.75
521.82321121946	14760.75
524.599612917398	14882.5
527.375078818233	14897.25
530.149609654287	14780.5
532.923206155967	14768
535.695869051804	14744.75
538.467599068448	14879.5
541.238396930665	14737
544.008263361364	14710.5
546.777199081578	14580.5
549.545204810493	14645.5
552.312281265436	14621.25
555.078429161898	14700
557.843649213533	14748.75
560.607942132156	14659.5
563.371308627753	14685.75
566.133749408495	14811
568.895265180756	15003.25
571.655856649064	14840.5
574.415524516189	14918.75
577.174269483075	14984
579.932092248884	15044.5
582.688993510994	15028.25
585.444973965023	15056.25
588.200034304795	15108.75
590.95417522237	15122.25
593.70739740807	15196
596.459701550433	15191.75
599.21108833628	15079
601.961558450668	15044.25
604.711112576933	15069
607.459751396673	15084.25
610.207475589748	14981
612.954285834338	15036
615.700182806879	14955
618.445167182101	14962.5
621.189239633055	14864.75
623.932400831087	14717
626.674651445839	14791
629.415992145303	14691.75
632.156423595745	14768.75
634.895946461813	14615.5
637.634561406449	14635.5
640.37226909096	14626.75
643.109070174978	14660.75
645.844965316508	14713.25
648.579955171888	14673.75
651.314040395846	14646
654.047221641456	14613.75
656.779499560176	14661.5
659.510874801828	14717.5
662.241348014642	14674
664.97091984524	14779.5
667.699590938606	14812.5
670.427361938164	14689.75
673.15423348573	14708
675.880206221526	14878.25
678.605280784206	14883.25
681.329457810829	14829.75
684.05273793692	14738
686.775121796389	14763.75
689.49661002163	14695
692.217203243454	14717
694.936902091144	14632.25
697.655707192425	14609.25
700.373619173493	14573.75
703.09063865901	14499.25
705.806766272093	14562
708.522002634378	14646.5
711.236348365946	14601.25
713.94980408538	14441.5
716.662370409762	14481.75
719.374047954676	14551.5
722.08483733419	14426.75
724.794739160909	14493
727.503754045949	14563.25
730.21188259892	14528.5
732.919125427998	14573
735.625483139855	14499.5
738.330956339723	14570.25
741.035545631374	14575.5
743.739251617106	14668.5
746.44207489779	14629.5
749.144016072852	14760.25
751.845075740272	14719.75
754.545254496603	14673
757.244552936976	14712.25
759.94297165508	14669.25
762.640511243222	14618.75
765.337172292249	14677.25
768.032955391649	14637
770.727861129482	14651.5
773.421890092413	14634.25
776.11504286572	14641.25
778.807320033298	14628
781.49872217765	14518.5
784.18924987991	14443.75
786.87890371984	14491.5
789.567684275826	14414
792.255592124908	14452.75
794.94262784276	14409
797.628792003703	14382.5
800.314085180715	14326.25
802.998507945427	14416.25
805.682060868145	14361.25
808.364744517821	14501.5
811.046559462105	14504.25
813.727506267311	14435.25
816.407585498422	14408.5
819.08679771913	14489.25
821.765143491822	14350.5
824.442623377563	14486
827.119237936127	14498.75
829.794987726003	14449.25
832.469873304377	14528.25
835.143895227167	14487.5
837.817054048985	14555
840.489350323205	14601.75
843.160784601892	14630.25
845.831357435894	14618.75
848.501069374739	14650.25
851.169920966753	14598
853.837912758987	14603
856.505045297232	14715.5
859.171319126071	14607.25
861.836734788823	14563.25
864.501292827579	14703.75
867.164993783208	14544.75
869.827838195361	14494.75
872.489826602454	14542.75
875.150959541701	14624.25
877.811237549104	14458.5
880.470661159456	14496.5
883.129230906357	14453.25
885.786947322205	14393.25
888.443810938206	14503
891.099822284385	14407
893.754981889586	14476.25
896.409290281452	14410
899.062747986485	14586
901.715355529999	14567.25
904.367113436154	14504.5
907.01802222793	14596.5
909.668082427172	14438.25
912.317294554574	14539.25
914.965659129659	14567.75
917.613176670835	14590.5
920.259847695364	14618.25
922.90567271936	14604.25
925.550652257825	14641.75
928.194786824621	14646.5
930.838076932512	14662
933.480523093109	14665.75
936.122125816953	14603.75
938.762885613447	14717
941.402802990899	14776.75
944.041878456523	14796.25
946.680112516428	14621.75
949.31750567563	14673.5
951.954058438081	14816
954.589771306633	14792
957.224644783048	14758.75
959.858679368044	14723
962.491875561238	14614
965.12423386121	14681.25
967.75575476545	14676.75
970.386438770423	14736.25
973.016286371501	14698.5
975.645298063046	14549.25
978.273474338355	14632.25
980.900815689674	14654
983.527322608243	14550.75
986.152995584245	14735.75
988.777835106834	14733.5
991.401841664148	14613.75
994.025015743307	14689.5
996.647357830407	14589.25
999.268868410534	14640.5
1001.88954796777	14650.25
1004.50939698518	14715.5
1007.12841594484	14712.25
1009.74660532783	14713.75
1012.36396561423	14850
1014.98049728314	14681.25
1017.59620081267	14736
1020.21107667995	14700.5
1022.82512536112	14856.25
1025.43834733138	14825
1028.05074306493	14979.5
1030.66231303501	14841.75
1033.27305771392	14963.5
1035.88297757299	14889.25
1038.49207308257	14833
1041.10034471211	14810
1043.70779293008	14924.5
1046.31441820402	14906
1048.92022100052	14906
1051.52520178525	15021.75
1054.12936102295	15018.5
1056.73269917742	15011
1059.33521671154	15044.25
1061.93691408729	15026.75
1064.53779176571	14972.25
1067.13785020694	14944
1069.73708987022	14913
1072.33551121386	15002
1074.93311469528	14855
1077.52990077103	14962.5
1080.12586989674	14778.75
1082.72102252714	14888.25
1085.31535911611	14936
1087.90888011663	14882.25
1090.50158598078	14945.25
1093.09347715979	14944.5
1095.68455410403	14882
1098.27481726296	14929.75
1100.86426708523	15023.5
1103.45290401857	14998.75
1106.04072850991	15026.5
1108.6277410053	15037.5
1111.21394194993	14902.25
1113.79933178816	15046.5
1116.3839109635	15088.75
1118.96767991862	15177.25
1121.55063909539	15152.75
1124.13278893477	15239.25
1126.71412987696	15165.25
1129.29466236132	15231.75
1131.87438682637	15186.5
1134.45330370982	15266.25
1137.03141344858	15302.25
1139.60871647872	15258.25
1142.18521323554	15284.75
1144.7609041535	15256.5
1147.33578966629	15328
1149.90987020676	15409.5
1152.48314620702	15364
1155.05561809835	15299.5
1157.62728631125	15301
1160.19815127545	15322.75
1162.76821341988	15327.5
1165.33747317271	15293.5
1167.90593096133	15350
1170.47358721235	15263
1173.04044235163	15310
1175.60649680425	15258.75
1178.17175099454	15310.75
1180.73620534607	15267
1183.29986028165	15160
1185.86271622336	15179
1188.42477359249	15180
1190.98603280964	15218.75
1193.54649429462	15094
1196.10615846653	15184.25
1198.66502574372	15115.25
1201.22309654385	15127.25
1203.78037128378	15188
1206.33685037971	15157.75
1208.89253424709	15125.5
1211.44742330063	15016
1214.00151795438	14995.25
1216.55481862163	15072
1219.10732571497	15117.25
1221.65903964631	15171.5
1224.20996082683	15110.5
1226.760089667	15065.5
1229.30942657664	15166
1231.85797196483	15248.5
1234.40572623998	15277.25
1236.95268980981	15310.25
1239.49886308136	15306.75
1242.04424646098	15358.25
1244.58884035435	15332
1247.13264516647	15479
1249.67566130166	15435
1252.21788916358	15213.25
1254.75932915524	15522.5
1257.29998167896	15500.5
1259.83984713639	15513.25
1262.37892592857	15571.25
1264.91721845586	15549.25
1267.45472511795	15578.5
1269.9914463139	15625
1272.52738244213	15657.5
1275.0625339004	15515
1277.59690108587	15794.25
1280.130484395	15737
1282.66328422367	15756.5
1285.19530096712	15645.25
1287.72653501993	15831.75
1290.25698677608	15731.5
1292.78665662894	15827
1295.31554497125	15722
1297.8436521951	15825.5
1300.37097869203	15811.5
1302.89752485292	15814.5
1305.42329106805	15822
1307.94827772713	15872.25
1310.47248521921	15829
1312.99591393279	16016.5
1315.51856425575	15910
1318.04043657536	15907.75
1320.56153127836	15965.75
1323.08184875083	16027
1325.6013893783	15992.75
1328.12015354572	16198.75
1330.63814163744	16274
1333.15535403727	16274.75
1335.67179112839	16459.75
1338.18745329347	16407.25
1340.70234091454	16469.5
1343.21645437314	16339.75
1345.72979405019	16462.75
1348.24236032607	16437
1350.75415358059	16543
1353.26517419303	16551.75
1355.7754225421	16511
1358.28489900594	16668.75
1360.79360396218	16644.75
1363.30153778787	16640.25
1365.80870085955	16550.25
1368.31509355319	16514.75
1370.82071624424	16660
1373.32556930762	16560.25
1375.8296531177	16498.25
1378.33296804832	16465
1380.83551447282	16398.25
1383.33729276399	16264.25
1385.83830329408	16320.25
1388.33854643489	16274.25
1390.83802255762	16212
1393.33673203301	16190.25
1395.83467523128	16147.25
1398.33185252211	16074.75
1400.82826427471	16115.25
1403.32391085777	15962.25
1405.81879263947	16108.5
1408.31290998752	16146.75
1410.80626326908	15976.75
1413.29885285087	16034
1415.79067909909	16069.5
1418.28174237944	16070
1420.77204305717	16138
1423.26158149702	16182.75
1425.75035806323	16207.5
1428.2383731196	16115.5
1430.72562702942	16183.5
1433.21212015554	16316.25
1435.69785286028	16347.75
1438.18282550555	16690
1440.66703845275	16608.75
1443.15049206284	16747.25
1445.6331866963	16702.5
1448.11512271316	16709.5
1450.59630047298	16898
1453.07672033486	16800.5
1455.55638265748	16805.25
1458.03528779902	16769.5
1460.51343611725	16869.25
1462.99082796946	16819.25
1465.46746371252	16849.75
1467.94334370285	16953
1470.41846829642	16717
1472.89283784878	16856.25
1475.36645271503	16957.5
1477.83931324983	16938.25
1480.31141980743	16817.5
1482.78277274164	16885
1485.25337240583	16683.5
1487.72321915297	16632.5
1490.19231333557	16596.5
1492.66065530578	16645
1495.12824541525	16562.25
1497.5950840153	16685
1500.06117145678	16623
1502.52650809014	16734.75
1504.99109426543	16541.75
1507.45493033227	16602.5
1509.91801663992	16570.75
1512.38035353717	16666.25
1514.84194137248	16623
1517.30278049386	16679.75
1519.76287124894	16757
1522.22221398497	16813
1524.68080904876	16785.25
1527.13865678681	16734.25
1529.59575754514	16809.75
1532.05211166945	16934
1534.50771950503	16771.5
1536.96258139678	16875.25
1539.41669768924	16925.5
1541.87006872656	16940.5
1544.32269485252	16994
1546.77457641051	16965.25
1549.22571374357	17218.5
1551.67610719434	17152
1554.12575710513	17222.5
1556.57466381785	17146.25
1559.02282767408	17147.75
1561.47024901499	17308.25
1563.91692818144	17214.25
1566.3628655139	17395.75
1568.80806135249	17394.25
1571.252516037	17363
1573.6962299068	17515
1576.13920330099	17424.25
1578.58143655828	17593.5
1581.02293001704	17650.5
1583.46368401528	17621.75
1585.90369889071	17681.75
1588.34297498065	17686.5
1590.7815126221	17616.75
1593.21931215173	17652.5
1595.65637390588	17603.25
1598.09269822053	17575.25
1600.52828543135	17668.25
1602.96313587367	17683.25
1605.3972498825	17594.25
1607.83062779252	17488.25
1610.26326993808	17554.5
1612.69517665322	17598
1615.12634827165	17613.75
1617.55678512676	17482.25
1619.98648755163	17370.5
1622.41545587902	17463.5
1624.84369044138	17436
1627.27119157085	17480.5
1629.69795959924	17577.5
1632.12399485808	17490.25
1634.54929767859	17552.25
1636.97386839165	17632.5
1639.39770732789	17517
1641.8208148176	17470.75
1644.24319119078	17492.25
1646.66483677715	17608.5
1649.0857519061	17623.75
1651.50593690677	17639
1653.92539210795	17787
1656.3441178382	17580.75
1658.76211442575	17633.75
1661.17938219855	17799.5
1663.59592148428	17928.75
1666.01173261032	17897
1668.42681590377	18026.75
1670.84117169145	18036
1673.25480029991	17926
1675.66770205541	18074.25
1678.07987728393	18107.25
1680.49132631119	18267.75
1682.90204946263	18175
1685.31204706342	18249.75
1687.72131943846	18359
1690.1298669124	18309.5
1692.53768980957	18455.75
1694.94478845411	18356.75
1697.35116316982	18343.5
1699.75681428031	18358.25
1702.16174210887	18449.75
1704.56594697858	18372.5
1706.96942921222	18610
1709.37218913235	18495.75
1711.77422706125	18358.75
1714.17554332098	18330.75
1716.5761382333	18483
1718.97601211977	18252.5
1721.37516530169	18333
1723.77359810006	18323.5
1726.17131083572	18312.25
1728.56830382922	18383
1730.96457740087	18331
1733.36013187075	18226.5
1735.75496755868	18272
1738.14908478428	18330.75
1740.54248386689	18326.25
1742.93516512565	18200.25
1745.32712887946	18313
1747.71837544697	18293.25
1750.10890514662	18319.75
1752.49871829661	18321
1754.88781521492	18330.75
1757.27619621929	18395.5
1759.66386162726	18369.25
1762.05081175612	18449.75
1764.43704692297	18485.75
1766.82256744465	18401
1769.20737363782	18481.5
1771.59146581887	18409.25
1773.97484430405	18536.5
1776.35750940932	18582.75
1778.73946145048	18655.5
1781.12070074309	18587.75
1783.50122760249	18784.75
1785.88104234385	18816.25
1788.26014528209	18803
1790.63853673196	18797.5
1793.01621700796	18872.25
1795.39318642443	19026.75
1797.76944529549	19001.5
1800.14499393503	19012.75
1802.51983265681	18961.25
1804.8939617743	19129
1807.26738160085	19145
1809.64009244957	19098
1812.01209463339	18986.25
1814.38338846504	19272.75
1816.75397425706	19112.5
1819.12385232181	19169.5
1821.49302297142	19157.25
1823.86148651789	19087.25
1826.22924327299	18960
1828.59629354831	19302.75
1830.96263765526	19143.75
1833.32827590507	19050
1835.69320860877	19309.25
1838.05743607724	19214.75
1840.42095862113	19146.5
1842.78377655097	19126.25
1845.14589017707	19133.5
1847.50729980956	19195.25
1849.86800575843	19184.5
1852.22800833346	19114.5
1854.58730784427	19232.5
1856.94590460032	19353
1859.30379891087	19308.75
1861.66099108503	19394.5
1864.01748143175	19471.5
1866.37327025978	19510.5
1868.72835787773	19392.25
1871.08274459403	19554
1873.43643071697	19478.5
1875.78941655464	19728.5
1878.14170241498	19489.25
1880.4932886058	19759.75
1882.84417543469	19849.25
1885.19436320915	19722.5
1887.54385223646	19804.5
1889.89264282378	19869.25
1892.24073527809	19987.75
1894.58812990625	20073
1896.93482701493	20279.75
1899.28082691067	20242
1901.62612989984	20338.75
1903.97073628868	20344.5
1906.31464638326	20443.75
1908.6578604895	20455.75
1911.00037891321	20665.75
1913.34220196	20731
1915.68332993537	20569.25
1918.02376314468	20747.5
1920.36350189311	20645
1922.70254648573	20653
1925.04089722744	20653
1927.37855442303	20642.75
1929.71551837715	20733.5
1932.05178939426	20674.25
1934.38736777876	20848
1936.72225383484	20642.25
1939.0564478666	21013.75
1941.38995017799	20756.75
1943.72276107283	20911.25
1946.05488085479	20774.75
1948.38630982744	20658
1950.71704829419	20855
1953.04709655832	20752.75
1955.376454923	20680
1957.70512369126	20772.75
1960.03310316599	20854
1962.36039364999	20759
1964.68699544589	20768.75
1967.01290885622	20893.25
1969.33813418338	20931.5
1971.66267172965	20909.25
1973.98652179718	20897
1976.309684688	21106
1978.63216070402	21099.25
1980.95395014705	21388.25
1983.27505331873	20981.25
1985.59547052063	21265.5
1987.9152020542	21280.25
1990.23424822074	21151
1992.55260932146	21237
1994.87028565746	21392.75
1997.18727752968	21345
1999.503585239	21547.75
2001.81920908618	21490.25
2004.13414937184	21539.75
2006.44840639651	21850.25
2008.7619804606	21878.75
2011.07487186442	21925.25
2013.38708090815	22108.5
2015.6986078919	22068.25
2018.00945311564	22159.75
2020.31961687923	22111.25
2022.62909948246	22367.5
2024.93790122498	22307
2027.24602240636	22444
2029.55346332604	22467.25
2031.86022428337	22573.25
2034.16630557761	22639.25
2036.47170750791	22652.75
2038.77643037331	22736.25
2041.08047447275	22676.75
2043.38384010509	22511.75
2045.68652756907	22735
2047.98853716335	22787.75
2050.28986918648	22782.75
2052.59052393692	22945.75
2054.89050171302	22850.25
2057.18980281306	22858
2059.4884275352	23072.25
2061.78637617753	22766.5
2064.08364903802	22859.75
2066.38024641457	22845.5
2068.67616860497	23010.25
2070.97141590694	22885.5
2073.26598861809	23003.25
2075.55988703595	22897
2077.85311145796	22942.25
2080.14566218145	23010.5
2082.43753950371	23133
2084.72874372188	22966.75
2087.01927513307	22920
2089.30913403428	23053.25
2091.59832072241	23203.5
2093.88683549429	23009.75
2096.17467864666	23172.5
2098.46185047619	23214.5
2100.74835127944	23348.5
2103.03418135292	23490
2105.31934099303	23211.25
2107.6038304961	23329.75
2109.88765015838	23503
2112.17080027602	23450
2114.45328114513	23601
2116.7350930617	23644.75
2119.01623632165	23695.75
2121.29671122085	23541.75
2123.57651805505	23726.75
2125.85565711996	23879
2128.13412871117	23965.25
2130.41193312424	24045
2132.68907065462	24034
2134.96554159771	24143
2137.24134624881	24179.5
2139.51648490317	24311.5
2141.79095785593	24251
2144.0647654022	24431.75
2146.33790783698	24256.5
2148.61038545524	24322.25
2150.88219855182	24666.25
2153.15334742154	24597
2155.42383235911	24754.5
2157.6936536592	24811
2159.9628116164	24771
2162.23130652522	24829.75
2164.49913868011	24845
2166.76630837544	24953.5
2169.03281590552	25021.5
2171.2986615646	25037.5
2173.56384564685	24984.75
2175.82836844637	25035.5
2178.0922302572	25049.25
2180.35543137332	25070
2182.61797208862	25169.25
2184.87985269695	25039.5
2187.14107349208	25164.75
2189.40163476773	25314.75
2191.66153681753	25336.5
2193.92077993507	25091.25
2196.17936441386	25241.5
2198.43729054735	25237
2200.69455862894	25339.75
2202.95116895194	25498.5
2205.20712180962	25394.5
2207.46241749519	25432.25
2209.71705630179	25507
2211.97103852248	25449
2214.2243644503	25495
2216.47703437819	25483.25
2218.72904859905	25442.75
2220.98040740571	25641
2223.23111109095	25535
2225.4811599475	25605.75
2227.73055426799	25562.5
2229.97929434504	25593.5
2232.22738047118	25440.5
2234.47481293889	25692
2236.72159204058	25823.25
2238.96771806864	25796.25
2241.21319131536	25893
2243.458012073	25646.5
2245.70218063374	25879.5
2247.94569728973	26077.25
2250.18856233304	26026.5
2252.4307760557	25771.75
2254.67233874967	25963.25
2256.91325070687	25933.5
2259.15351221915	26076.25
2261.39312357831	26166.75
2263.63208507611	26103.5
2265.87039700422	26268.75
2268.1080596543	26328.5
2270.34507331792	26223.25
2272.5814382866	26324.75
2274.81715485183	26460.25
2277.05222330502	26485
2279.28664393755	26550.5
2281.52041704072	26556
2283.75354290581	26592.25
2285.98602182401	26674.75
2288.21785408648	26625.25
2290.44903998434	26650.75
2292.67957980862	26783.25
2294.90947385033	26712.75
2297.1387224004	26716.75
2299.36732574975	26864
2301.59528418921	26928
2303.82259800958	26939.25
2306.04926750158	26811.5
2308.27529295593	26892.5
2310.50067466325	26963.25
2312.72541291412	27186.25
2314.9495079991	26979.5
2317.17296020866	26931.5
2319.39576983323	27142.25
2321.61793716322	27150
2323.83946248894	27044.75
2326.06034610069	27213.5
2328.28058828871	27145
2330.50018934317	27337.25
2332.7191495542	27205.5
2334.93746921192	27250.25
2337.15514860633	27213.75
2339.37218802743	27188.5
2341.58858776516	27173
2343.80434810941	27353.75
2346.01946935001	27338
2348.23395177675	27338
2350.44779567939	27362
2352.66100134759	27352.25
2354.87356907101	27390.25
2357.08549913925	27393.75
2359.29679184185	27390.25
2361.50744746829	27573.25
2363.71746630804	27495.5
2365.92684865048	27186.25
2368.13559478499	27435.5
2370.34370500083	27522.5
2372.55117958727	27504
2374.75801883352	27554.5
2376.96422302874	27219
2379.16979246202	27378
2381.37472742243	27369.25
2383.57902819898	27404.25
2385.78269508063	27406.5
2387.98572835629	27395
2390.18812831482	27364.75
2392.38989524505	27471
2394.59102943573	27565.5
2396.79153117559	27400.5
2398.9914007533	27412.5
2401.19063845748	27521.5
2403.38924457672	27312.75
2405.58721939951	27380.5
2407.78456321435	27448.75
2409.98127630966	27482.75
2412.17735897382	27561.75
2414.37281149517	27398.75
2416.56763416198	27494
2418.76182726249	27608.25
2420.95539108487	27494.25
2423.14832591726	27507.5
2425.34063204776	27442.25
2427.53230976439	27466.25
2429.72335935513	27533.75
2431.91378110795	27469.25
2434.10357531071	27510
2436.29274225125	27683
2438.48128221739	27384.5
2440.66919549683	27413.25
2442.8564823773	27407.5
2445.04314314641	27487
2447.22917809176	27536.75
2449.4145875009	27531.5
2451.59937166131	27532.75
2453.78353086044	27388.75
2455.96706538568	27551.75
2458.14997552436	27465
2460.33226156379	27349.25
2462.51392379119	27464.25
2464.69496249376	27208.75
2466.87537795862	27273
2469.05517047288	27187.25
2471.23434032357	27287.75
2473.41288779767	27655.25
2475.59081318211	27264
2477.76811676378	27228.5
2479.9447988295	27338
2482.12085966605	27110
2484.29629956016	27219.75
2486.4711187985	27315.25
2488.64531766769	27380.5
2490.8188964543	27464
2492.99185544484	27316.25
2495.16419492579	27363.5
2497.33591518353	27383.75
2499.50701650444	27419.5
2501.67749917482	27495.75
2503.84736348091	27382.5
2506.01660970891	27356.25
2508.18523814496	27450.75
2510.35324907514	27499.25
2512.52064278551	27542.25
2514.68741956201	27518
2516.85357969058	27801.5
2519.01912345709	27817
2521.18405114735	27650.75
2523.34836304711	27730.75
2525.51205944208	27688.75
2527.6751406179	27696.5
2529.83760686016	27688.25
2531.99945845439	27853.75
2534.16069568606	27971
2536.3213188406	28061
2538.48132820336	27699.75
2540.64072405965	27884.25
2542.79950669471	27828.5
2544.95767639373	28117.25
2547.11523344184	27898.25
2549.27217812411	27931
2551.42851072555	28075.5
2553.58423153111	27995
2555.73934082569	27872
2557.89383889412	27947.25
2560.04772602118	27972.25
2562.20100249158	27738.25
2564.35366858996	27677.5
2566.50572460093	27854.5
2568.65717080901	27661.25
2570.80800749867	27858.25
2572.95823495433	27793.5
2575.10785346031	27567.75
2577.25686330093	27622.25
2579.40526476038	27484.25
2581.55305812282	27472
2583.70024367237	27470.75
2585.84682169303	27450
2587.99279246879	27352.75
2590.13815628354	27463.25
2592.28291342112	27457.25
2594.42706416531	27456.75
2596.5706087998	27410.5
2598.71354760826	27758.5
2600.85588087425	27546.75
2602.99760888127	27583.5
2605.13873191278	27506.25
2607.27925025214	27363.25
2609.41916418269	27451.5
2611.55847398764	27589
2613.69717995017	27487.75
2615.83528235339	27707
2617.97278148034	27658.5
2620.10967761398	27603.25
2622.2459710372	27823.25
2624.38166203284	27825.5
2626.51675088365	27818
2628.65123787231	27555
2630.78512328145	27624.75
2632.9184073936	27673
2635.05109049124	27960.5
2637.18317285676	27720.5
2639.31465477248	27968.25
2641.44553652067	27909.5
2643.5758183835	27807.5
2645.70550064309	27911.25
2647.83458358144	27909.25
2649.96306748053	28025.75
2652.09095262223	28007.25
2654.21823928836	28178.25
2656.34492776063	27966.5
2658.47101832071	27934
2660.59651125015	28085.5
2662.72140683047	28059.5
2664.84570534309	28089
2666.96940706934	28048
2669.0925122905	27884
2671.21502128773	28137.5
2673.33693434215	28213.25
2675.45825173479	28059.5
2677.57897374658	28128
2679.69910065839	28224.5
2681.818632751	28101.75
2683.93757030511	28180.5
2686.05591360133	28171.25
2688.17366292021	28175.5
2690.29081854218	28158.5
2692.40738074762	27921.5
2694.52334981681	28146
2696.63872602995	27969
2698.75350966713	28233
2700.86770100841	28354.5
2702.98130033371	28040
2705.09430792289	28122.5
2707.20672405571	28246
2709.31854901185	28403.75
2711.42978307091	28206.25
2713.54042651238	28214.75
2715.65047961567	28463.25
2717.7599426601	28311
2719.86881592491	28349.25
2721.97709968924	28285.25
2724.08479423213	28190
2726.19189983255	28388.25
2728.29841676934	28257.75
2730.4043453213	28540.5
2732.5096857671	28642.75
2734.61443838532	28498
2736.71860345444	28486.25
2738.82218125286	28515.75
2740.92517205889	28686.5
2743.02757615072	28818
2745.12939380646	28562.5
2747.23062530411	28712.25
2749.33127092159	28845
2751.4313309367	28527.75
2753.53080562716	28825
2755.62969527058	28872.5
2757.72800014448	28750
2759.82572052625	28801.75
2761.92285669323	28701
2764.0194089226	28820
2766.11537749147	28842
2768.21076267686	28976.25
2770.30556475566	28815
2772.39978400465	28870.75
2774.49342070054	28753
2776.58647511991	28954
2778.67894753923	28865.5
2780.77083823487	29008.75
2782.8621474831	28734
2784.95287556007	28908.5
2787.04302274184	28668.25
2789.13258930433	29103.25
2791.22157552338	28664.5
2793.30998167471	28875.25
2795.39780803392	29030.25
2797.4850548765	28985
2799.57172247786	28944.25
2801.65781111324	28962.5
2803.74332105781	28902.5
2805.82825258661	29005.75
2807.91260597457	29002.25
2809.9963814965	28831.25
2812.07957942711	29022.25
2814.16220004096	28774.25
2816.24424361252	28942.75
2818.32571041614	29083.25
2820.40660072604	28986.25
2822.48691481631	29128
2824.56665296098	29279.5
2826.64581543388	29029
2828.72440250876	29181.75
2830.80241445925	29136.25
2832.87985155885	29206.25
2834.95671408093	29304.75
2837.03300229875	29468.75
2839.10871648544	29400.75
2841.18385691399	29548.5
2843.25842385729	29590.25
2845.33241758808	29449
2847.40583837898	29738
2849.4786865025	29965
2851.550962231	30086.5
2853.6226658367	30166.5
2855.69379759173	30008.5
2857.76435776806	30225.25
2859.83434663753	30193.75
2861.90376447184	30270.5
2863.97261154259	30379.25
2866.0408881212	30347
2868.10859447901	30458.25
2870.17573088717	30579.5
2872.24229761673	30514.25
2874.30829493859	30484
2876.37372312352	30324.5
2878.43858244215	30581
2880.50287316496	30514.25
2882.56659556231	30479.25
2884.62974990439	30773.75
2886.69233646129	30713.5
2888.75435550293	30743.5
2890.81580729909	30886.75
2892.87669211941	30923.5
2894.93701023339	31049.75
2896.99676191039	30929.75
2899.05594741961	31354.25
2901.1145670301	31149.5
2903.1726210108	30955
2905.23010963045	31238.25
2907.28703315768	31009.75
2909.34339186096	31377.5
2911.39918600861	31324.75
2913.45441586879	31065.25
2915.50908170952	31111.25
2917.56318379867	31169.25
2919.61672240395	31313
2921.66969779291	31229
2923.72211023295	31395.75
2925.77395999134	31394.5
2927.82524733515	31572
2929.87597253132	31475.75
2931.92613584663	31368.5
2933.97573754769	31261.5
2936.02477790097	31181.25
2938.07325717276	30880.5
2940.1211756292	31056.25
2942.16853353626	31164
2944.21533115976	31210.75
2946.26156876536	31020.5
2948.30724661853	31019.75
2950.3523649846	31092
2952.39692412872	30910.25
2954.44092431587	30826
2956.48436581089	30742
2958.52724887843	30655.25
2960.56957378296	30823.25
2962.6113407888	30933.5
2964.65255016011	30943.75
2966.69320216083	31091.75
2968.73329705479	30749.5
2970.77283510559	30810
2972.81181657671	30659.25
2974.8502417314	30944.75
2976.88811083279	30938.25
2978.92542414378	31042.75
2980.96218192713	31007.5
2982.99838444541	31126.75
2985.034031961	31125.75
2987.06912473612	31146.25
2989.1036630328	31136.25
2991.13764711288	31152.25
2993.17107723804	31280
2995.20395366974	31323
2997.23627666931	31558.25
2999.26804649782	31565.75
3001.29926341624	31633.75
3003.32992768528	31755
3005.3600395655	31628.5
3007.38959931726	31800.25
3009.41860720076	31889
3011.44706347595	32149.5
3013.47496840263	32036
3015.50232224041	32176.25
3017.5291252487	32428.75
3019.5553776867	32098
3021.58107981344	32459
3023.60623188773	32544.5
3025.63083416822	32648.25
3027.65488691331	32627.5
3029.67839038125	32592.25
3031.70134483007	32479.5
3033.72375051759	32880.5
3035.74560770144	32704.25
3037.76691663907	32862.25
3039.78767758768	33199
3041.80789080431	32862.25
3043.82755654577	32891
3045.84667506867	33033.25
3047.8652466294	33135.75
3049.88327148418	33058.75
3051.90074988899	33115
3053.91768209961	33080.75
3055.9340683716	32841
3057.94990896033	32901.75
3059.96520412095	33305.25
3061.97995410838	33309.5
3063.99415917734	33270
3066.00781958234	33136.5
3068.02093557766	33240.5
3070.03350741738	33054.75
3072.04553535535	33106.5
3074.05701964521	33312.75
3076.06796054036	33083.75
3078.078358294	33145
3080.08821315912	33318.25
3082.09752538846	33579.25
3084.10629523454	33068.75
3086.11452294967	33312.75
3088.12220878592	33349.75
3090.12935299515	33526
3092.13595582898	33290.5
3094.1420175388	33427.5
3096.14753837579	33491.25
3098.15251859088	33413
3100.15695843477	33525.5
3102.16085815793	33617.75
3104.16421801061	33431.75
3106.16703824282	33492
3108.16931910432	33608.75
3110.17106084464	33443
3112.17226371308	33872.25
3114.17292795872	33888.75
3116.17305383034	33867.5
3118.17264157657	33656.75
3120.17169144571	33936.25
3122.17020368587	33769.75
3124.16817854492	33809.5
3126.16561627044	33954
3128.16251710982	34281.5
3130.15888131017	34310.25
3132.15470911837	34293
3134.15000078104	34354
3136.14475654455	34361.5
3138.13897665502	34412
3140.13266135835	34516.25
3142.12581090014	34338.5
3144.11842552577	34612.5
3146.11050548036	34785.75
3148.10205100875	34729.75
3150.09306235557	34764.75
3152.08353976515	34588.75
3154.07348348158	34319.5
3156.06289374869	34789.75
3158.05177081006	34586.25
3160.04011490899	34727
3162.02792628852	35120.25
3164.01520519145	34796.25
3166.00195186029	34796
3167.98816653728	34989.25
3169.97384946442	34898.75
3171.95900088344	34875
3173.94362103577	34845.5
3175.92771016259	35067.5
3177.91126850484	35016.75
3179.89429630312	35057.5
3181.87679379782	34894.25
3183.85876122903	35184.5
3185.84019883657	35295.5
3187.82110685997	35350.25
3189.80148553851	35072.25
3191.78133511116	35425.25
3193.76065581664	35359
3195.73944789337	35286.75
3197.7177115795	35313.25
3199.6954471129	35490
3201.67265473114	35557.75
3203.64933467153	35422
3205.62548717107	35558.75
3207.60111246648	35742.25
3209.57621079421	35547.5
3211.55078239041	35719
3213.52482749093	35559
3215.49834633133	35878.5
3217.4713391469	36178.5
3219.44380617262	36037
3221.41574764317	36240.5
3223.38716379296	35917.75
3225.35805485607	36285.75
3227.32842106631	36282
3229.29826265718	36496.25
3231.26757986187	36453.25
3233.2363729133	36654.25
3235.20464204405	36740.25
3237.17238748643	36631.25
3239.13960947243	36764.5
3241.10630823374	36842.5
3243.07248400174	36731.5
3245.03813700748	37202.5
3247.00326748177	37091.5
3248.96787565503	36976.5
3250.93196175742	37268.25
3252.89552601877	37270.25
3254.8585686686	37235.5
3256.82108993612	37425.75
3258.78309005022	37477.25
3260.74456923948	37243
3262.70552773215	37516
3264.66596575617	37525.25
3266.62588353916	37533.75
3268.58528130843	37250.75
3270.54415929094	37312.75
3272.50251771336	37477.25
3274.46035680201	37738.75
3276.4176767829	37833.5
3278.37447788171	37494.25
3280.33076032379	37862.75
3282.28652433416	37737
3284.24177013751	37878.75
3286.1964979582	37806.75
3288.15070802027	38102.75
3290.10440054741	37930
3292.05757576298	37820.5
3294.01023389001	37872.5
3295.96237515119	38223.5
3297.91399976887	38137.5
3299.86510796506	38208.75
3301.81569996142	38284.5
3303.76577597932	38167.5
3305.7153362397	38180.25
3307.66438096324	38300.5
3309.61291037024	38157
3311.56092468064	38327
3313.50842411404	38079
3315.45540888971	38271.25
3317.40187922656	38137.75
3319.34783534315	38354
3321.29327745768	38119.5
3323.23820578801	37687.75
3325.18262055164	38097.25
3327.1265219657	37868.25
3329.06991024699	38159.75
3331.01278561194	38225
3332.95514827662	38054
3334.89699845674	38386.25
3336.83833636766	38388.25
3338.77916222434	37921.75
3340.71947624143	38035.75
3342.65927863317	38299.5
3344.59856961346	38089
3346.53734939584	38494.75
3348.47561819344	38250.25
3350.41337621906	38172
3352.35062368513	38231
3354.28736080368	38212.75
3356.22358778637	38268.75
3358.15930484452	38430
3360.09451218904	38659.25
3362.02921003047	38599
3363.96339857898	38721
3365.89707804436	38658
3367.83024863602	38561.75
3369.76291056299	38521.25
3371.69506403389	38491.25
3373.62670925699	38680
3375.55784644016	38728.25
3377.4884757909	38675.25
3379.41859751629	38915
3381.34821182305	38936.5
3383.27731891749	38898
3385.20591900555	39055.25
3387.13401229276	39185.25
3389.06159898426	39439.5
3390.9886792848	39535.5
3392.91525339872	39563.75
3394.84132152998	39554.5
3396.76688388213	39391
3398.69194065833	39443.5
3400.61649206133	39482.75
3402.54053829348	39778.5
3404.46407955672	39599
3406.3871160526	39468.75
3408.30964798225	39770.25
3410.23167554639	39777.5
3412.15319894535	40018
3414.07421837904	39765
3415.99473404695	39820.75
3417.91474614817	39867
3419.83425488136	40087.25
3421.75326044479	40073.5
3423.67176303631	40059.75
3425.58976285332	40031
3427.50726009282	40132.75
3429.42425495143	39960.75
3431.34074762528	40098.5
3433.25673831012	39878
3435.17222720127	39944.25
3437.08721449362	40155
3439.00170038164	39749.5
3440.91568505936	40099.75
3442.82916872039	39688.75
3444.74215155791	40053.5
3446.65463376468	39965.5
3448.566615533	40087.25
3450.47809705476	39951.5
3452.3890785214	39959.25
3454.29956012393	40156
3456.20954205293	40183.75
3458.11902449853	39929.25
3460.02800765041	39892
3461.93649169784	40057.75
3463.84447682962	39879
3465.75196323412	39913.25
3467.65895109925	39867.75
3469.56544061249	40007.5
3471.47143196086	39715.25
3473.37692533093	39787
3475.28192090884	39854.75
3477.18641888026	40235.5
3479.09041943039	40142.25
3480.99392274402	40052
3482.89692900545	40058
3484.79943839853	40032.25
3486.70145110666	40045.5
3488.60296731277	40018.5
3490.50398719933	39941.5
3492.40451094836	39859.75
3494.30453874141	40007.5
3496.20407075956	40152
3498.10310718342	40336.5
3500.00164819315	39946.25