201.866871357051	1177.25
204.754250281454	1203.25
207.640596790938	1188.5
210.525911876299	1178.5
213.410196525689	1173
216.293451724508	1174.25
219.175678455485	1181.25
222.056877698662	1177.75
224.937050431388	1189
227.816197628363	1179.5
230.694320261602	1200.75
233.571419300504	1195
236.447495711764	1204.25
239.322550459507	1205
242.196584505182	1202
245.069598807626	1215.25
247.941594323078	1181.75
250.812572005154	1199
253.682532804884	1209.25
256.551477670699	1199
259.419407548456	1196
262.286323381439	1184.25
265.152226110364	1192.5
268.017116673389	1200.5
270.880996006115	1193.5
273.743865041622	1200.75
276.605724710436	1177.75
279.466575940562	1198.75
282.326419657496	1174.5
285.1852567842	1183.25
288.043088241157	1195
290.899914946349	1186
293.75573781526	1173.5
296.610557760898	1187.75
299.464375693817	1187.75
302.317192522078	1190.75
305.169009151297	1181.25
308.019826484655	1173
310.86964542287	1172
313.718466864233	1178.5
316.566291704614	1184
319.413120837457	1182.25
322.258955153804	1184.25
325.103795542291	1176.5
327.947642889128	1179.25
330.79049807819	1190.5
333.632361990927	1178
336.473235506444	1184.5
339.31311950145	1183
342.152014850322	1183.25
344.989922425062	1185.75
347.826843095354	1190.25
350.662777728528	1189.5
353.497727189577	1199
356.331692341195	1190
359.164674043732	1189.75
361.996673155267	1180.75
364.827690531536	1205.75
367.65772702602	1199.75
370.486783489887	1192.5
373.314860772047	1193.5
376.14195971912	1178.5
378.968081175466	1181
381.793225983212	1187.75
384.617394982201	1179.5
387.44058901005	1187.75
390.262808902131	1193.5
393.08405549161	1191
395.904329609395	1191.75
398.723632084213	1195.5
401.541963742569	1183.25
404.359325408779	1192
407.175717904938	1180.75
409.991142050982	1184.25
412.805598664665	1179.25
415.619088561551	1187.25
418.43161255505	1176.5
421.243171456415	1172
424.053766074758	1173.75
426.863397217017	1195.5
429.672065688024	1183.75
432.479772290455	1185.75
435.286517824879	1181.25
438.092303089736	1182.5
440.897128881359	1189.75
443.70099599399	1184.5
446.503905219761	1186.75
449.305857348711	1179.5
452.106853168796	1185.5
454.906893465919	1178
457.705979023885	1171.25
460.504110624439	1188.75
463.3012890473	1166.5
466.097515070087	1177.75
468.892789468424	1174.75
471.687113015869	1152.75
474.48048648395	1175.25
477.272910642198	1167
480.064386258109	1166.25
482.854914097159	1169.75
485.644494922839	1176
488.433129496636	1177
491.220818578047	1171.5
494.007562924584	1161.75
496.793363291785	1171.25
499.578220433217	1182.75
502.362135100473	1172.25
505.145108043209	1181.25
507.927140009098	1197.25
510.708231743909	1201.25
513.488383991433	1183
516.267597493556	1189.5
519.04587299022	1169.75
521.82321121946	1175
524.599612917398	1196
527.375078818233	1176
530.149609654287	1173
532.923206155967	1187
535.695869051804	1165.5
538.467599068448	1166.75
541.238396930665	1165.5
544.008263361364	1178.5
546.777199081578	1159.5
549.545204810493	1153.75
552.312281265436	1164.75
555.078429161898	1153
557.843649213533	1158.75
560.607942132156	1156.5
563.371308627753	1167
566.133749408495	1161
568.895265180756	1181.5
571.655856649064	1151
574.415524516189	1178.75
577.174269483075	1186.25
579.932092248884	1170.75
582.688993510994	1188.75
585.444973965023	1200
588.200034304795	1228.75
590.95417522237	1209.5
593.70739740807	1213.5
596.459701550433	1199.25
599.21108833628	1190.75
601.961558450668	1188.25
604.711112576933	1180.25
607.459751396673	1171.75
610.207475589748	1170.25
612.954285834338	1177.25
615.700182806879	1168.5
618.445167182101	1150.25
621.189239633055	1143.5
623.932400831087	1145.25
626.674651445839	1151
629.415992145303	1158.25
632.156423595745	1139.5
634.895946461813	1155
637.634561406449	1152.75
640.37226909096	1164.5
643.109070174978	1147.75
645.844965316508	1146.5
648.579955171888	1147
651.314040395846	1160.5
654.047221641456	1149
656.779499560176	1153
659.510874801828	1142
662.241348014642	1159.75
664.97091984524	1157.25
667.699590938606	1164.75
670.427361938164	1172
673.15423348573	1203.5
675.880206221526	1245.75
678.605280784206	1268.5
681.329457810829	1298.25
684.05273793692	1297.25
686.775121796389	1258
689.49661002163	1222
692.217203243454	1190.25
694.936902091144	1188.75
697.655707192425	1184.25
700.373619173493	1159
703.09063865901	1163
705.806766272093	1146
708.522002634378	1145.5
711.236348365946	1141.75
713.94980408538	1156.75
716.662370409762	1152.75
719.374047954676	1141.75
722.08483733419	1127.25
724.794739160909	1141.5
727.503754045949	1148
730.21188259892	1146.75
732.919125427998	1150.25
735.625483139855	1136.25
738.330956339723	1153
741.035545631374	1151.25
743.739251617106	1161.25
746.44207489779	1172.75
749.144016072852	1152.75
751.845075740272	1154
754.545254496603	1147
757.244552936976	1141.5
759.94297165508	1141
762.640511243222	1131.25
765.337172292249	1141.75
768.032955391649	1148.5
770.727861129482	1145.5
773.421890092413	1141.75
776.11504286572	1143.25
778.807320033298	1149.5
781.49872217765	1144.75
784.18924987991	1136.5
786.87890371984	1121.75
789.567684275826	1144
792.255592124908	1128.75
794.94262784276	1129
797.628792003703	1133.75
800.314085180715	1140
802.998507945427	1125.75
805.682060868145	1151
808.364744517821	1171.25
811.046559462105	1164
813.727506267311	1152.25
816.407585498422	1150.25
819.08679771913	1143.75
821.765143491822	1140.75
824.442623377563	1134.25
827.119237936127	1164.25
829.794987726003	1157.5
832.469873304377	1157.25
835.143895227167	1165.75
837.817054048985	1162.5
840.489350323205	1158.5
843.160784601892	1166.75
845.831357435894	1148
848.501069374739	1150.75
851.169920966753	1153
853.837912758987	1131.5
856.505045297232	1131.25
859.171319126071	1143.75
861.836734788823	1135.75
864.501292827579	1138
867.164993783208	1131.25
869.827838195361	1125
872.489826602454	1122.5
875.150959541701	1124
877.811237549104	1126
880.470661159456	1124.5
883.129230906357	1110.5
885.786947322205	1104.5
888.443810938206	1108.5
891.099822284385	1107.5
893.754981889586	1102.75
896.409290281452	1113.25
899.062747986485	1109.25
901.715355529999	1115.25
904.367113436154	1120.25
907.01802222793	1109.25
909.668082427172	1112.25
912.317294554574	1117
914.965659129659	1113.5
917.613176670835	1109
920.259847695364	1116
922.90567271936	1120.25
925.550652257825	1108.5
928.194786824621	1104.5
930.838076932512	1104.5
933.480523093109	1102.5
936.122125816953	1119.75
938.762885613447	1120.25
941.402802990899	1109.75
944.041878456523	1108.5
946.680112516428	1130.5
949.31750567563	1139.5
951.954058438081	1127.75
954.589771306633	1121.5
957.224644783048	1137
959.858679368044	1119.25
962.491875561238	1115.75
965.12423386121	1112.25
967.75575476545	1126
970.386438770423	1125.5
973.016286371501	1129.75
975.645298063046	1120.25
978.273474338355	1127.25
980.900815689674	1114.25
983.527322608243	1108
986.152995584245	1109
988.777835106834	1109.25
991.401841664148	1105.5
994.025015743307	1097.25
996.647357830407	1099.5
999.268868410534	1106.5
1001.88954796777	1117.5
1004.50939698518	1095.75
1007.12841594484	1096.5
1009.74660532783	1084.5
1012.36396561423	1111.25
1014.98049728314	1088.5
1017.59620081267	1091
1020.21107667995	1091
1022.82512536112	1104.75
1025.43834733138	1103.75
1028.05074306493	1118.75
1030.66231303501	1102.5
1033.27305771392	1112.25
1035.88297757299	1122.25
1038.49207308257	1098.25
1041.10034471211	1095.25
1043.70779293008	1088.25
1046.31441820402	1100.75
1048.92022100052	1098.75
1051.52520178525	1104.75
1054.12936102295	1108
1056.73269917742	1095
1059.33521671154	1098.25
1061.93691408729	1108.5
1064.53779176571	1091.5
1067.13785020694	1093
1069.73708987022	1113
1072.33551121386	1105.5
1074.93311469528	1102.75
1077.52990077103	1121.5
1080.12586989674	1105.25
1082.72102252714	1114.5
1085.31535911611	1102
1087.90888011663	1109.75
1090.50158598078	1097
1093.09347715979	1107
1095.68455410403	1092
1098.27481726296	1104.25
1100.86426708523	1095.25
1103.45290401857	1106.25
1106.04072850991	1101.25
1108.6277410053	1102.75
1111.21394194993	1093.75
1113.79933178816	1100.25
1116.3839109635	1105
1118.96767991862	1106.25
1121.55063909539	1117.5
1124.13278893477	1111.75
1126.71412987696	1108.75
1129.29466236132	1126.25
1131.87438682637	1128.25
1134.45330370982	1124.25
1137.03141344858	1142.25
1139.60871647872	1161
1142.18521323554	1159.5
1144.7609041535	1151.75
1147.33578966629	1131.25
1149.90987020676	1129.75
1152.48314620702	1137.5
1155.05561809835	1133
1157.62728631125	1109.75
1160.19815127545	1118.75
1162.76821341988	1127.25
1165.33747317271	1142.75
1167.90593096133	1123.75
1170.47358721235	1118
1173.04044235163	1124
1175.60649680425	1122.75
1178.17175099454	1127.75
1180.73620534607	1132.75
1183.29986028165	1139.75
1185.86271622336	1145
1188.42477359249	1132.5
1190.98603280964	1127
1193.54649429462	1135
1196.10615846653	1136.25
1198.66502574372	1143.75
1201.22309654385	1116.75
1203.78037128378	1123.75
1206.33685037971	1115.75
1208.89253424709	1115.25
1211.44742330063	1120
1214.00151795438	1127
1216.55481862163	1117.5
1219.10732571497	1111.75
1221.65903964631	1118
1224.20996082683	1110
1226.760089667	1101
1229.30942657664	1098.5
1231.85797196483	1110
1234.40572623998	1101.25
1236.95268980981	1121
1239.49886308136	1112.25
1242.04424646098	1130.5
1244.58884035435	1114
1247.13264516647	1143
1249.67566130166	1140
1252.21788916358	1135
1254.75932915524	1145.5
1257.29998167896	1144.25
1259.83984713639	1137.5
1262.37892592857	1155.5
1264.91721845586	1155
1267.45472511795	1166.5
1269.9914463139	1159
1272.52738244213	1181.75
1275.0625339004	1171
1277.59690108587	1179.75
1280.130484395	1195.75
1282.66328422367	1167.75
1285.19530096712	1170.5
1287.72653501993	1169
1290.25698677608	1153.5
1292.78665662894	1163.75
1295.31554497125	1180.75
1297.8436521951	1169.75
1300.37097869203	1170.25
1302.89752485292	1160
1305.42329106805	1160.75
1307.94827772713	1171.75
1310.47248521921	1147.5
1312.99591393279	1154.25
1315.51856425575	1162.5
1318.04043657536	1148.25
1320.56153127836	1180
1323.08184875083	1182.25
1325.6013893783	1203
1328.12015354572	1225.25
1330.63814163744	1260
1333.15535403727	1276
1335.67179112839	1292.5
1338.18745329347	1297.25
1340.70234091454	1272.75
1343.21645437314	1223
1345.72979405019	1197.75
1348.24236032607	1163.75
1350.75415358059	1177.25
1353.26517419303	1168.75
1355.7754225421	1175.25
1358.28489900594	1191.75
1360.79360396218	1172.25
1363.30153778787	1176.75
1365.80870085955	1191.5
1368.31509355319	1160.25
1370.82071624424	1176
1373.32556930762	1173.5
1375.8296531177	1176.5
1378.33296804832	1213.5
1380.83551447282	1191.75
1383.33729276399	1194.5
1385.83830329408	1178.75
1388.33854643489	1179.25
1390.83802255762	1154.75
1393.33673203301	1168.5
1395.83467523128	1166.75
1398.33185252211	1157.75
1400.82826427471	1162.5
1403.32391085777	1155.5
1405.81879263947	1149.25
1408.31290998752	1147.75
1410.80626326908	1139.25
1413.29885285087	1139.5
1415.79067909909	1135.5
1418.28174237944	1153.25
1420.77204305717	1151.75
1423.26158149702	1144.75
1425.75035806323	1151.5
1428.2383731196	1151.25
1430.72562702942	1150.5
1433.21212015554	1154
1435.69785286028	1178
1438.18282550555	1187.5
1440.66703845275	1202.75
1443.15049206284	1235.25
1445.6331866963	1274.5
1448.11512271316	1274.25
1450.59630047298	1251.5
1453.07672033486	1213.5
1455.55638265748	1201.25
1458.03528779902	1191.5
1460.51343611725	1193.25
1462.99082796946	1176.75
1465.46746371252	1188.75
1467.94334370285	1190.75
1470.41846829642	1185.5
1472.89283784878	1188
1475.36645271503	1180.75
1477.83931324983	1185.5
1480.31141980743	1186
1482.78277274164	1196.75
1485.25337240583	1186.75
1487.72321915297	1186.75
1490.19231333557	1188.25
1492.66065530578	1222
1495.12824541525	1237
1497.5950840153	1253.75
1500.06117145678	1244.75
1502.52650809014	1245
1504.99109426543	1227
1507.45493033227	1237.75
1509.91801663992	1211.5
1512.38035353717	1248.5
1514.84194137248	1291.25
1517.30278049386	1353
1519.76287124894	1384.25
1522.22221398497	1433.5
1524.68080904876	1457.5
1527.13865678681	1391.75
1529.59575754514	1357.5
1532.05211166945	1331.25
1534.50771950503	1294.75
1536.96258139678	1262.5
1539.41669768924	1235.5
1541.87006872656	1241
1544.32269485252	1212.75
1546.77457641051	1239
1549.22571374357	1235.25
1551.67610719434	1217.25
1554.12575710513	1219
1556.57466381785	1211.5
1559.02282767408	1195.25
1561.47024901499	1207.5
1563.91692818144	1196.5
1566.3628655139	1210.25
1568.80806135249	1181.5
1571.252516037	1171.75
1573.6962299068	1213
1576.13920330099	1201.25
1578.58143655828	1214
1581.02293001704	1221.5
1583.46368401528	1216.5
1585.90369889071	1226.75
1588.34297498065	1231.25
1590.7815126221	1248.75
1593.21931215173	1257.75
1595.65637390588	1247.75
1598.09269822053	1225.25
1600.52828543135	1221.5
1602.96313587367	1227.25
1605.3972498825	1196.75
1607.83062779252	1176.25
1610.26326993808	1184
1612.69517665322	1181.5
1615.12634827165	1170
1617.55678512676	1171.25
1619.98648755163	1156.75
1622.41545587902	1154.5
1624.84369044138	1170.25
1627.27119157085	1145
1629.69795959924	1155.25
1632.12399485808	1158.25
1634.54929767859	1147.75
1636.97386839165	1156.75
1639.39770732789	1147.75
1641.8208148176	1148.5
1644.24319119078	1139
1646.66483677715	1131.25
1649.0857519061	1137.5
1651.50593690677	1150.25
1653.92539210795	1150.5
1656.3441178382	1137.25
1658.76211442575	1142.5
1661.17938219855	1139
1663.59592148428	1141
1666.01173261032	1155
1668.42681590377	1160.5
1670.84117169145	1149
1673.25480029991	1150.75
1675.66770205541	1146.5
1678.07987728393	1152.25
1680.49132631119	1144.25
1682.90204946263	1156.5
1685.31204706342	1132.75
1687.72131943846	1149.5
1690.1298669124	1146.25
1692.53768980957	1162
1694.94478845411	1145.75
1697.35116316982	1147.25
1699.75681428031	1146.75
1702.16174210887	1144
1704.56594697858	1173
1706.96942921222	1162.5
1709.37218913235	1148
1711.77422706125	1157.75
1714.17554332098	1162.5
1716.5761382333	1162.75
1718.97601211977	1142.25
1721.37516530169	1147
1723.77359810006	1139
1726.17131083572	1128.5
1728.56830382922	1155
1730.96457740087	1147
1733.36013187075	1136.75
1735.75496755868	1148.5
1738.14908478428	1132.75
1740.54248386689	1136.5
1742.93516512565	1140.5
1745.32712887946	1129.25
1747.71837544697	1133.75
1750.10890514662	1135.25
1752.49871829661	1134.75
1754.88781521492	1139.5
1757.27619621929	1149.25
1759.66386162726	1145.5
1762.05081175612	1148.5
1764.43704692297	1135.5
1766.82256744465	1151
1769.20737363782	1158.25
1771.59146581887	1142.5
1773.97484430405	1148.25
1776.35750940932	1160
1778.73946145048	1158.25
1781.12070074309	1145.5
1783.50122760249	1165.75
1785.88104234385	1154.75
1788.26014528209	1149
1790.63853673196	1139.5
1793.01621700796	1160.5
1795.39318642443	1149.25
1797.76944529549	1151.5
1800.14499393503	1151.75
1802.51983265681	1146.5
1804.8939617743	1165.25
1807.26738160085	1158.75
1809.64009244957	1156.75
1812.01209463339	1148.25
1814.38338846504	1164.25
1816.75397425706	1146.25
1819.12385232181	1144.25
1821.49302297142	1137.75
1823.86148651789	1161
1826.22924327299	1143.75
1828.59629354831	1147.25
1830.96263765526	1153
1833.32827590507	1152.25
1835.69320860877	1155.75
1838.05743607724	1169.75
1840.42095862113	1157.5
1842.78377655097	1145.5
1845.14589017707	1156
1847.50729980956	1147.25
1849.86800575843	1160.25
1852.22800833346	1151
1854.58730784427	1153.5
1856.94590460032	1176.25
1859.30379891087	1151.5
1861.66099108503	1166.5
1864.01748143175	1172.25
1866.37327025978	1159.75
1868.72835787773	1174.25
1871.08274459403	1163.25
1873.43643071697	1139.25
1875.78941655464	1165.75
1878.14170241498	1155.75
1880.4932886058	1164.5
1882.84417543469	1176.75
1885.19436320915	1161.25
1887.54385223646	1151.5
1889.89264282378	1176.75
1892.24073527809	1171.75
1894.58812990625	1175.25
1896.93482701493	1195
1899.28082691067	1188.5
1901.62612989984	1178
1903.97073628868	1183
1906.31464638326	1180.5
1908.6578604895	1180.75
1911.00037891321	1187.5
1913.34220196	1205.5
1915.68332993537	1187.25
1918.02376314468	1204.75
1920.36350189311	1186.75
1922.70254648573	1201.5
1925.04089722744	1205.5
1927.37855442303	1178.5
1929.71551837715	1191.75
1932.05178939426	1191.75
1934.38736777876	1185.75
1936.72225383484	1192.25
1939.0564478666	1201
1941.38995017799	1196.25
1943.72276107283	1190.5
1946.05488085479	1190.5
1948.38630982744	1178
1950.71704829419	1190.25
1953.04709655832	1187.25
1955.376454923	1184.75
1957.70512369126	1186
1960.03310316599	1202.25
1962.36039364999	1188.5
1964.68699544589	1177.75
1967.01290885622	1183.75
1969.33813418338	1195.5
1971.66267172965	1193.5
1973.98652179718	1193.25
1976.309684688	1192.25
1978.63216070402	1192.75
1980.95395014705	1204.75
1983.27505331873	1198
1985.59547052063	1193.5
1987.9152020542	1198.75
1990.23424822074	1184.25
1992.55260932146	1164.5
1994.87028565746	1190.5
1997.18727752968	1197.25
1999.503585239	1196.75
2001.81920908618	1212.75
2004.13414937184	1189
2006.44840639651	1197.75
2008.7619804606	1221.5
2011.07487186442	1209.5
2013.38708090815	1211.5
2015.6986078919	1223.25
2018.00945311564	1209.75
2020.31961687923	1227
2022.62909948246	1226.25
2024.93790122498	1218.75
2027.24602240636	1204.75
2029.55346332604	1229.75
2031.86022428337	1228
2034.16630557761	1223.75
2036.47170750791	1208.75
2038.77643037331	1246.75
2041.08047447275	1216.75
2043.38384010509	1232
2045.68652756907	1233.5
2047.98853716335	1228.75
2050.28986918648	1217
2052.59052393692	1228.25
2054.89050171302	1227.75
2057.18980281306	1239.25
2059.4884275352	1242.5
2061.78637617753	1227.25
2064.08364903802	1230
2066.38024641457	1221.5
2068.67616860497	1229.25
2070.97141590694	1228.75
2073.26598861809	1225.25
2075.55988703595	1225.75
2077.85311145796	1234.5
2080.14566218145	1220
2082.43753950371	1238
2084.72874372188	1232.75
2087.01927513307	1230
2089.30913403428	1233.5
2091.59832072241	1225
2093.88683549429	1224.75
2096.17467864666	1214.5
2098.46185047619	1227.25
2100.74835127944	1226
2103.03418135292	1246.5
2105.31934099303	1226.75
2107.6038304961	1245.25
2109.88765015838	1237.5
2112.17080027602	1245.25
2114.45328114513	1241
2116.7350930617	1255
2119.01623632165	1242.25
2121.29671122085	1245.25
2123.57651805505	1241
2125.85565711996	1239.75
2128.13412871117	1237.75
2130.41193312424	1255.25
2132.68907065462	1249.5
2134.96554159771	1237.5
2137.24134624881	1238
2139.51648490317	1251
2141.79095785593	1252.75
2144.0647654022	1240.25
2146.33790783698	1240.5
2148.61038545524	1239
2150.88219855182	1249.25
2153.15334742154	1243
2155.42383235911	1246.5
2157.6936536592	1237.75
2159.9628116164	1262.75
2162.23130652522	1248
2164.49913868011	1261.5
2166.76630837544	1270
2169.03281590552	1270
2171.2986615646	1258.75
2173.56384564685	1267.25
2175.82836844637	1256.75
2178.0922302572	1257.25
2180.35543137332	1247
2182.61797208862	1255.5
2184.87985269695	1259.25
2187.14107349208	1251.75
2189.40163476773	1256
2191.66153681753	1250
2193.92077993507	1252
2196.17936441386	1248.25
2198.43729054735	1254.75
2200.69455862894	1263.25
2202.95116895194	1268
2205.20712180962	1251.5
2207.46241749519	1255.5
2209.71705630179	1270.25
2211.97103852248	1239.25
2214.2243644503	1267
2216.47703437819	1264.75
2218.72904859905	1256.5
2220.98040740571	1243.25
2223.23111109095	1266.5
2225.4811599475	1251
2227.73055426799	1247.25
2229.97929434504	1273.25
2232.22738047118	1248
2234.47481293889	1253.25
2236.72159204058	1269
2238.96771806864	1254.25
2241.21319131536	1248.75
2243.458012073	1256.75
2245.70218063374	1266.75
2247.94569728973	1262.75
2250.18856233304	1268.25
2252.4307760557	1255.75
2254.67233874967	1274.25
2256.91325070687	1256
2259.15351221915	1255.5
2261.39312357831	1271
2263.63208507611	1252.75
2265.87039700422	1271.25
2268.1080596543	1259
2270.34507331792	1264
2272.5814382866	1267.25
2274.81715485183	1273.75
2277.05222330502	1259
2279.28664393755	1258
2281.52041704072	1269.5
2283.75354290581	1267.5
2285.98602182401	1260
2288.21785408648	1262.75
2290.44903998434	1255
2292.67957980862	1246.75
2294.90947385033	1265.5
2297.1387224004	1269.75
2299.36732574975	1271.25
2301.59528418921	1262.75
2303.82259800958	1268.25
2306.04926750158	1273.25
2308.27529295593	1272.25
2310.50067466325	1256.25
2312.72541291412	1274.75
2314.9495079991	1279.25
2317.17296020866	1285.75
2319.39576983323	1258.75
2321.61793716322	1255
2323.83946248894	1252.5
2326.06034610069	1266.25
2328.28058828871	1265.75
2330.50018934317	1264
2332.7191495542	1277.75
2334.93746921192	1251.5
2337.15514860633	1286.5
2339.37218802743	1273.25
2341.58858776516	1262.25
2343.80434810941	1279.5
2346.01946935001	1271.5
2348.23395177675	1276
2350.44779567939	1271.75
2352.66100134759	1254
2354.87356907101	1267.5
2357.08549913925	1258.75
2359.29679184185	1246.25
2361.50744746829	1277.25
2363.71746630804	1278.5
2365.92684865048	1259.75
2368.13559478499	1263.25
2370.34370500083	1255.75
2372.55117958727	1281
2374.75801883352	1258.75
2376.96422302874	1271.75
2379.16979246202	1267.5
2381.37472742243	1261.5
2383.57902819898	1266.25
2385.78269508063	1245
2387.98572835629	1262.25
2390.18812831482	1273.25
2392.38989524505	1266.75
2394.59102943573	1258.75
2396.79153117559	1255.5
2398.9914007533	1271.75
2401.19063845748	1266.25
2403.38924457672	1253.5
2405.58721939951	1251.75
2407.78456321435	1248.25
2409.98127630966	1270.25
2412.17735897382	1255
2414.37281149517	1253.25
2416.56763416198	1268.25
2418.76182726249	1259.75
2420.95539108487	1251.5
2423.14832591726	1252
2425.34063204776	1250.5
2427.53230976439	1243.75
2429.72335935513	1250.5
2431.91378110795	1255.75
2434.10357531071	1250
2436.29274225125	1247.5
2438.48128221739	1247.25
2440.66919549683	1243
2442.8564823773	1246.25
2445.04314314641	1266
2447.22917809176	1240.25
2449.4145875009	1259.25
2451.59937166131	1247.25
2453.78353086044	1230.75
2455.96706538568	1230.25
2458.14997552436	1244.75
2460.33226156379	1233.25
2462.51392379119	1223
2464.69496249376	1232
2466.87537795862	1239.75
2469.05517047288	1234.75
2471.23434032357	1230.25
2473.41288779767	1239.75
2475.59081318211	1231
2477.76811676378	1238.75
2479.9447988295	1230.75
2482.12085966605	1241
2484.29629956016	1223.5
2486.4711187985	1237
2488.64531766769	1222.5
2490.8188964543	1247.25
2492.99185544484	1234.75
2495.16419492579	1221.75
2497.33591518353	1227.5
2499.50701650444	1225
2501.67749917482	1220.75
2503.84736348091	1222.25
2506.01660970891	1243.5
2508.18523814496	1240.75
2510.35324907514	1233.25
2512.52064278551	1233.25
2514.68741956201	1238
2516.85357969058	1231
2519.01912345709	1245.5
2521.18405114735	1239
2523.34836304711	1228.5
2525.51205944208	1234.25
2527.6751406179	1232.5
2529.83760686016	1241.75
2531.99945845439	1249.25
2534.16069568606	1249
2536.3213188406	1238
2538.48132820336	1238
2540.64072405965	1241.75
2542.79950669471	1230
2544.95767639373	1245
2547.11523344184	1238.5
2549.27217812411	1225
2551.42851072555	1241.25
2553.58423153111	1239.5
2555.73934082569	1241
2557.89383889412	1250.25
2560.04772602118	1239
2562.20100249158	1231.25
2564.35366858996	1233.25
2566.50572460093	1235.5
2568.65717080901	1233
2570.80800749867	1236.5
2572.95823495433	1247.5
2575.10785346031	1237.5
2577.25686330093	1237.25
2579.40526476038	1227.25
2581.55305812282	1238.5
2583.70024367237	1221.25
2585.84682169303	1234.5
2587.99279246879	1227.75
2590.13815628354	1223.5
2592.28291342112	1231.25
2594.42706416531	1224
2596.5706087998	1230.75
2598.71354760826	1234
2600.85588087425	1229.75
2602.99760888127	1223
2605.13873191278	1196.5
2607.27925025214	1215
2609.41916418269	1240.5
2611.55847398764	1238.5
2613.69717995017	1217
2615.83528235339	1232.25
2617.97278148034	1245.25
2620.10967761398	1234.25
2622.2459710372	1244
2624.38166203284	1230.5
2626.51675088365	1226.75
2628.65123787231	1220.75
2630.78512328145	1229.75
2632.9184073936	1218.75
2635.05109049124	1239.75
2637.18317285676	1228.25
2639.31465477248	1236.25
2641.44553652067	1244.25
2643.5758183835	1235.25
2645.70550064309	1230.75
2647.83458358144	1229.5
2649.96306748053	1220
2652.09095262223	1223
2654.21823928836	1242.75
2656.34492776063	1231.5
2658.47101832071	1215.25
2660.59651125015	1235.25
2662.72140683047	1250.25
2664.84570534309	1246.25
2666.96940706934	1240.75
2669.0925122905	1237.5
2671.21502128773	1236
2673.33693434215	1236.5
2675.45825173479	1249.75
2677.57897374658	1240.25
2679.69910065839	1232.5
2681.818632751	1236.25
2683.93757030511	1224.25
2686.05591360133	1229.75
2688.17366292021	1241.25
2690.29081854218	1226.5
2692.40738074762	1230.5
2694.52334981681	1228.75
2696.63872602995	1202.25
2698.75350966713	1242.5
2700.86770100841	1241.75
2702.98130033371	1227.75
2705.09430792289	1231.75
2707.20672405571	1235
2709.31854901185	1232
2711.42978307091	1241.75
2713.54042651238	1240.75
2715.65047961567	1252
2717.7599426601	1237.25
2719.86881592491	1239
2721.97709968924	1233.25
2724.08479423213	1217.75
2726.19189983255	1227
2728.29841676934	1232.25
2730.4043453213	1246.5
2732.5096857671	1231.25
2734.61443838532	1234
2736.71860345444	1218.25
2738.82218125286	1232.25
2740.92517205889	1235
2743.02757615072	1247.5
2745.12939380646	1244.5
2747.23062530411	1232.25
2749.33127092159	1225
2751.4313309367	1233
2753.53080562716	1242.75
2755.62969527058	1240.25
2757.72800014448	1235.5
2759.82572052625	1240.5
2761.92285669323	1233
2764.0194089226	1250
2766.11537749147	1237.5
2768.21076267686	1248.75
2770.30556475566	1232.75
2772.39978400465	1248.75
2774.49342070054	1244.75
2776.58647511991	1249.75
2778.67894753923	1240.75
2780.77083823487	1234.5
2782.8621474831	1235
2784.95287556007	1241.75
2787.04302274184	1247.25
2789.13258930433	1246.25
2791.22157552338	1231.25
2793.30998167471	1227.25
2795.39780803392	1246.75
2797.4850548765	1246.75
2799.57172247786	1233.5
2801.65781111324	1232.5
2803.74332105781	1237
2805.82825258661	1240.25
2807.91260597457	1246.5
2809.9963814965	1256
2812.07957942711	1248.75
2814.16220004096	1241
2816.24424361252	1241.25
2818.32571041614	1258.75
2820.40660072604	1254
2822.48691481631	1253
2824.56665296098	1256.25
2826.64581543388	1248
2828.72440250876	1264.5
2830.80241445925	1267.25
2832.87985155885	1278.5
2834.95671408093	1285.75
2837.03300229875	1312.25
2839.10871648544	1288.5
2841.18385691399	1301.25
2843.25842385729	1273.75
2845.33241758808	1296.5
2847.40583837898	1289.75
2849.4786865025	1270.25
2851.550962231	1262.25
2853.6226658367	1303.75
2855.69379759173	1281.25
2857.76435776806	1297
2859.83434663753	1290.75
2861.90376447184	1314.5
2863.97261154259	1322.75
2866.0408881212	1343.5
2868.10859447901	1339.25
2870.17573088717	1345
2872.24229761673	1350.5
2874.30829493859	1342.75
2876.37372312352	1335.5
2878.43858244215	1366
2880.50287316496	1348
2882.56659556231	1352
2884.62974990439	1346.25
2886.69233646129	1363.5
2888.75435550293	1351.25
2890.81580729909	1345.25
2892.87669211941	1340.25
2894.93701023339	1335.25
2896.99676191039	1349
2899.05594741961	1342.5
2901.1145670301	1349.25
2903.1726210108	1334.5
2905.23010963045	1350
2907.28703315768	1334.5
2909.34339186096	1313
2911.39918600861	1329.75
2913.45441586879	1312.5
2915.50908170952	1325
2917.56318379867	1327.25
2919.61672240395	1318.25
2921.66969779291	1342.75
2923.72211023295	1330.5
2925.77395999134	1330.75
2927.82524733515	1331
2929.87597253132	1307.25
2931.92613584663	1282.75
2933.97573754769	1279.25
2936.02477790097	1289
2938.07325717276	1266.25
2940.1211756292	1297.5
2942.16853353626	1280.25
2944.21533115976	1286.25
2946.26156876536	1287.75
2948.30724661853	1293
2950.3523649846	1308.75
2952.39692412872	1322
2954.44092431587	1311
2956.48436581089	1312.75
2958.52724887843	1317.75
2960.56957378296	1330
2962.6113407888	1318.75
2964.65255016011	1317
2966.69320216083	1301
2968.73329705479	1302.75
2970.77283510559	1275.75
2972.81181657671	1272.75
2974.8502417314	1282.25
2976.88811083279	1266.25
2978.92542414378	1255
2980.96218192713	1259.5
2982.99838444541	1266.5
2985.034031961	1267.5
2987.06912473612	1247
2989.1036630328	1262.25
2991.13764711288	1267.75
2993.17107723804	1246.5
2995.20395366974	1269.75
2997.23627666931	1262
2999.26804649782	1250.25
3001.29926341624	1263.75
3003.32992768528	1266
3005.3600395655	1253.25
3007.38959931726	1271
3009.41860720076	1266
3011.44706347595	1256
3013.47496840263	1260
3015.50232224041	1271
3017.5291252487	1273
3019.5553776867	1257.75
3021.58107981344	1270.5
3023.60623188773	1284.25
3025.63083416822	1259.5
3027.65488691331	1276.5
3029.67839038125	1287.25
3031.70134483007	1274.5
3033.72375051759	1274.5
3035.74560770144	1291.25
3037.76691663907	1277.75
3039.78767758768	1295
3041.80789080431	1305
3043.82755654577	1284.75
3045.84667506867	1293.75
3047.8652466294	1306.5
3049.88327148418	1305.25
3051.90074988899	1306.25
3053.91768209961	1304.5
3055.9340683716	1294
3057.94990896033	1289
3059.96520412095	1292.75
3061.97995410838	1293.5
3063.99415917734	1278.25
3066.00781958234	1297
3068.02093557766	1296.5
3070.03350741738	1284
3072.04553535535	1287.25
3074.05701964521	1291.25
3076.06796054036	1279.25
3078.078358294	1274.25
3080.08821315912	1279.25
3082.09752538846	1293
3084.10629523454	1265.75
3086.11452294967	1288
3088.12220878592	1286.25
3090.12935299515	1271
3092.13595582898	1282.25
3094.1420175388	1283.5
3096.14753837579	1278.75
3098.15251859088	1284.25
3100.15695843477	1285.5
3102.16085815793	1290.75
3104.16421801061	1288
3106.16703824282	1269.5
3108.16931910432	1273
3110.17106084464	1274.75
3112.17226371308	1281
3114.17292795872	1272.5
3116.17305383034	1285.75
3118.17264157657	1265.5
3120.17169144571	1278.75
3122.17020368587	1264.25
3124.16817854492	1275.75
3126.16561627044	1288.75
3128.16251710982	1264.75
3130.15888131017	1280.75
3132.15470911837	1283.75
3134.15000078104	1296
3136.14475654455	1288.25
3138.13897665502	1306.5
3140.13266135835	1290.75
3142.12581090014	1294
3144.11842552577	1303.75
3146.11050548036	1300.25
3148.10205100875	1288
3150.09306235557	1304.75
3152.08353976515	1297
3154.07348348158	1290.25
3156.06289374869	1294.5
3158.05177081006	1291.25
3160.04011490899	1296.5
3162.02792628852	1308.75
3164.01520519145	1283.75
3166.00195186029	1295
3167.98816653728	1293.75
3169.97384946442	1287.75
3171.95900088344	1295.25
3173.94362103577	1306
3175.92771016259	1299.25
3177.91126850484	1291.25
3179.89429630312	1308.25
3181.87679379782	1280.5
3183.85876122903	1297.75
3185.84019883657	1318.25
3187.82110685997	1307
3189.80148553851	1303
3191.78133511116	1314
3193.76065581664	1313.5
3195.73944789337	1311.75
3197.7177115795	1307.75
3199.6954471129	1299.75
3201.67265473114	1302.75
3203.64933467153	1305.75
3205.62548717107	1301.75
3207.60111246648	1309.75
3209.57621079421	1296
3211.55078239041	1302
3213.52482749093	1304.25
3215.49834633133	1313.5
3217.4713391469	1318.75
3219.44380617262	1306.75
3221.41574764317	1325.75
3223.38716379296	1304.75
3225.35805485607	1303.5
3227.32842106631	1310.75
3229.29826265718	1330.25
3231.26757986187	1328.25
3233.2363729133	1320.5
3235.20464204405	1328.25
3237.17238748643	1327
3239.13960947243	1337.75
3241.10630823374	1326.75
3243.07248400174	1319
3245.03813700748	1323.75
3247.00326748177	1327.5
3248.96787565503	1331
3250.93196175742	1326.75
3252.89552601877	1349.5
3254.8585686686	1330
3256.82108993612	1343
3258.78309005022	1337.25
3260.74456923948	1338.25
3262.70552773215	1328.5
3264.66596575617	1340
3266.62588353916	1332.5
3268.58528130843	1357.5
3270.54415929094	1323.75
3272.50251771336	1325.25
3274.46035680201	1357.25
3276.4176767829	1340
3278.37447788171	1360.5
3280.33076032379	1337.5
3282.28652433416	1347.5
3284.24177013751	1342
3286.1964979582	1335
3288.15070802027	1342.75
3290.10440054741	1331.25
3292.05757576298	1356
3294.01023389001	1335.25
3295.96237515119	1331.25
3297.91399976887	1349.25
3299.86510796506	1343.25
3301.81569996142	1350.75
3303.76577597932	1342.25
3305.7153362397	1347.5
3307.66438096324	1355
3309.61291037024	1352
3311.56092468064	1341.25
3313.50842411404	1331.25
3315.45540888971	1332
3317.40187922656	1345.25
3319.34783534315	1336.25
3321.29327745768	1336.5
3323.23820578801	1349.25
3325.18262055164	1337.5
3327.1265219657	1346.75
3329.06991024699	1331.25
3331.01278561194	1353.25
3332.95514827662	1336.25
3334.89699845674	1339.25
3336.83833636766	1347.25
3338.77916222434	1333.25
3340.71947624143	1353
3342.65927863317	1345.75
3344.59856961346	1344
3346.53734939584	1336
3348.47561819344	1335.5
3350.41337621906	1353.5
3352.35062368513	1344.75
3354.28736080368	1336.25
3356.22358778637	1336.25
3358.15930484452	1341.25
3360.09451218904	1346
3362.02921003047	1352.5
3363.96339857898	1333.25
3365.89707804436	1341.75
3367.83024863602	1344.25
3369.76291056299	1335.75
3371.69506403389	1332.5
3373.62670925699	1348
3375.55784644016	1350.75
3377.4884757909	1333
3379.41859751629	1360.25
3381.34821182305	1329.5
3383.27731891749	1351.25
3385.20591900555	1351.25
3387.13401229276	1354.75
3389.06159898426	1355.5
3390.9886792848	1340.5
3392.91525339872	1355
3394.84132152998	1353.25
3396.76688388213	1348.25
3398.69194065833	1349
3400.61649206133	1361.5
3402.54053829348	1350.75
3404.46407955672	1356
3406.3871160526	1360.25
3408.30964798225	1372.25
3410.23167554639	1356.25
3412.15319894535	1368.5
3414.07421837904	1355.25
3415.99473404695	1350
3417.91474614817	1353.75
3419.83425488136	1368.5
3421.75326044479	1371.25
3423.67176303631	1361
3425.58976285332	1354.25
3427.50726009282	1358.25
3429.42425495143	1365.25
3431.34074762528	1366.75
3433.25673831012	1353
3435.17222720127	1350.5
3437.08721449362	1361.5
3439.00170038164	1360.25
3440.91568505936	1363.25
3442.82916872039	1340
3444.74215155791	1358
3446.65463376468	1352
3448.566615533	1364.75
3450.47809705476	1361.5
3452.3890785214	1354.75
3454.29956012393	1364.75
3456.20954205293	1353.25
3458.11902449853	1368
3460.02800765041	1346.75
3461.93649169784	1362.5
3463.84447682962	1355
3465.75196323412	1358.25
3467.65895109925	1340.5
3469.56544061249	1342.25
3471.47143196086	1345.5
3473.37692533093	1355.5
3475.28192090884	1367.75
3477.18641888026	1346.5
3479.09041943039	1348.5
3480.99392274402	1341.5
3482.89692900545	1361.75
3484.79943839853	1341.5
3486.70145110666	1347.75
3488.60296731277	1355
3490.50398719933	1345.5
3492.40451094836	1347.5
3494.30453874141	1343.5
3496.20407075956	1349.75
3498.10310718342	1359
3500.00164819315	1339.25