201.866871357051	2345.5
204.754250281454	2358.25
207.640596790938	2329
210.525911876299	2342.5
213.410196525689	2341.75
216.293451724508	2331.75
219.175678455485	2321
222.056877698662	2354.5
224.937050431388	2354
227.816197628363	2362.75
230.694320261602	2328
233.571419300504	2369.25
236.447495711764	2399.25
239.322550459507	2395.5
242.196584505182	2397.5
245.069598807626	2410
247.941594323078	2440.75
250.812572005154	2433
253.682532804884	2423.25
256.551477670699	2405
259.419407548456	2426
262.286323381439	2433.25
265.152226110364	2374.5
268.017116673389	2419.25
270.880996006115	2409.5
273.743865041622	2436
276.605724710436	2435.25
279.466575940562	2440.75
282.326419657496	2399.25
285.1852567842	2419.75
288.043088241157	2407.75
290.899914946349	2410
293.75573781526	2396
296.610557760898	2412
299.464375693817	2422.75
302.317192522078	2421.5
305.169009151297	2375.25
308.019826484655	2398
310.86964542287	2397.25
313.718466864233	2377.5
316.566291704614	2407.75
319.413120837457	2420
322.258955153804	2390.75
325.103795542291	2387.25
327.947642889128	2397.5
330.79049807819	2385.75
333.632361990927	2382.25
336.473235506444	2361.75
339.31311950145	2373.5
342.152014850322	2364.75
344.989922425062	2398.25
347.826843095354	2401.75
350.662777728528	2388.75
353.497727189577	2409.25
356.331692341195	2407.75
359.164674043732	2394.5
361.996673155267	2441.75
364.827690531536	2417
367.65772702602	2465.25
370.486783489887	2444.5
373.314860772047	2409.75
376.14195971912	2438.5
378.968081175466	2434
381.793225983212	2469.75
384.617394982201	2451
387.44058901005	2483
390.262808902131	2492.75
393.08405549161	2528.25
395.904329609395	2567
398.723632084213	2578.25
401.541963742569	2574.5
404.359325408779	2547.75
407.175717904938	2520.75
409.991142050982	2512.25
412.805598664665	2481.5
415.619088561551	2506
418.43161255505	2487.25
421.243171456415	2477.75
424.053766074758	2459.25
426.863397217017	2496.25
429.672065688024	2508.5
432.479772290455	2519.25
435.286517824879	2516.5
438.092303089736	2512.25
440.897128881359	2531
443.70099599399	2555.75
446.503905219761	2552.75
449.305857348711	2559.25
452.106853168796	2578.5
454.906893465919	2573
457.705979023885	2555.5
460.504110624439	2558
463.3012890473	2513.75
466.097515070087	2511.75
468.892789468424	2519.25
471.687113015869	2473.5
474.48048648395	2473.25
477.272910642198	2471
480.064386258109	2480.25
482.854914097159	2475.5
485.644494922839	2497
488.433129496636	2510.5
491.220818578047	2493
494.007562924584	2487.25
496.793363291785	2540
499.578220433217	2516.5
502.362135100473	2542.5
505.145108043209	2551
507.927140009098	2557.25
510.708231743909	2560.5
513.488383991433	2556.25
516.267597493556	2551.75
519.04587299022	2544.25
521.82321121946	2558
524.599612917398	2576.5
527.375078818233	2586.5
530.149609654287	2551
532.923206155967	2550.25
535.695869051804	2512.5
538.467599068448	2498.25
541.238396930665	2510
544.008263361364	2510.75
546.777199081578	2491
549.545204810493	2496.25
552.312281265436	2483
555.078429161898	2495.5
557.843649213533	2514.75
560.607942132156	2474
563.371308627753	2494.75
566.133749408495	2512.25
568.895265180756	2500
571.655856649064	2517.75
574.415524516189	2525
577.174269483075	2532.75
579.932092248884	2536
582.688993510994	2519.5
585.444973965023	2481.25
588.200034304795	2528
590.95417522237	2516.5
593.70739740807	2513.5
596.459701550433	2505.25
599.21108833628	2483.5
601.961558450668	2496.5
604.711112576933	2519.5
607.459751396673	2514.5
610.207475589748	2478.75
612.954285834338	2500
615.700182806879	2506
618.445167182101	2512.75
621.189239633055	2474.5
623.932400831087	2477.75
626.674651445839	2463.25
629.415992145303	2464
632.156423595745	2461.25
634.895946461813	2420.75
637.634561406449	2421.75
640.37226909096	2481
643.109070174978	2446.25
645.844965316508	2458.25
648.579955171888	2449
651.314040395846	2448
654.047221641456	2458.75
656.779499560176	2474.25
659.510874801828	2494.75
662.241348014642	2479.25
664.97091984524	2462.25
667.699590938606	2469.75
670.427361938164	2476.25
673.15423348573	2454.25
675.880206221526	2461
678.605280784206	2458.5
681.329457810829	2463.75
684.05273793692	2437
686.775121796389	2462.75
689.49661002163	2458
692.217203243454	2428.5
694.936902091144	2419.5
697.655707192425	2432
700.373619173493	2428
703.09063865901	2441.25
705.806766272093	2400.75
708.522002634378	2442.25
711.236348365946	2445
713.94980408538	2423.5
716.662370409762	2414.5
719.374047954676	2443
722.08483733419	2415.5
724.794739160909	2418.25
727.503754045949	2404
730.21188259892	2393.75
732.919125427998	2426.25
735.625483139855	2428.5
738.330956339723	2441.75
741.035545631374	2416.5
743.739251617106	2429.25
746.44207489779	2438.75
749.144016072852	2456.5
751.845075740272	2449.25
754.545254496603	2462.75
757.244552936976	2463.75
759.94297165508	2417.75
762.640511243222	2466
765.337172292249	2453.75
768.032955391649	2440.5
770.727861129482	2464.5
773.421890092413	2460
776.11504286572	2478
778.807320033298	2437
781.49872217765	2437.5
784.18924987991	2408.5
786.87890371984	2436
789.567684275826	2460.25
792.255592124908	2466.75
794.94262784276	2464.25
797.628792003703	2481.5
800.314085180715	2489.75
802.998507945427	2585.75
805.682060868145	2717
808.364744517821	2850.5
811.046559462105	2841.25
813.727506267311	2692.75
816.407585498422	2570.5
819.08679771913	2502.75
821.765143491822	2503.75
824.442623377563	2506
827.119237936127	2496.75
829.794987726003	2485
832.469873304377	2508.25
835.143895227167	2515.25
837.817054048985	2562
840.489350323205	2585.25
843.160784601892	2548.5
845.831357435894	2502.5
848.501069374739	2528.75
851.169920966753	2473
853.837912758987	2486
856.505045297232	2459
859.171319126071	2498.5
861.836734788823	2472
864.501292827579	2477.5
867.164993783208	2454.25
869.827838195361	2440
872.489826602454	2449.25
875.150959541701	2456.25
877.811237549104	2416.75
880.470661159456	2443
883.129230906357	2421
885.786947322205	2397.5
888.443810938206	2426.5
891.099822284385	2397
893.754981889586	2391.25
896.409290281452	2381
899.062747986485	2412
901.715355529999	2428
904.367113436154	2424.25
907.01802222793	2418.25
909.668082427172	2420.5
912.317294554574	2404.25
914.965659129659	2410.75
917.613176670835	2402.75
920.259847695364	2414.25
922.90567271936	2391
925.550652257825	2394.75
928.194786824621	2410
930.838076932512	2412.25
933.480523093109	2429
936.122125816953	2433
938.762885613447	2441.75
941.402802990899	2440.75
944.041878456523	2459
946.680112516428	2449.25
949.31750567563	2404
951.954058438081	2422
954.589771306633	2449.75
957.224644783048	2434.25
959.858679368044	2440.75
962.491875561238	2429.5
965.12423386121	2470.5
967.75575476545	2541.5
970.386438770423	2610.75
973.016286371501	2627.75
975.645298063046	2580
978.273474338355	2507.75
980.900815689674	2431.5
983.527322608243	2395.5
986.152995584245	2434.25
988.777835106834	2414
991.401841664148	2421.5
994.025015743307	2433
996.647357830407	2403.5
999.268868410534	2431
1001.88954796777	2373.25
1004.50939698518	2397.5
1007.12841594484	2401.25
1009.74660532783	2384.5
1012.36396561423	2417.75
1014.98049728314	2381.5
1017.59620081267	2380.75
1020.21107667995	2374.75
1022.82512536112	2421
1025.43834733138	2415.75
1028.05074306493	2435.75
1030.66231303501	2429.5
1033.27305771392	2462.25
1035.88297757299	2455.75
1038.49207308257	2437.5
1041.10034471211	2412
1043.70779293008	2433.5
1046.31441820402	2444.5
1048.92022100052	2402.5
1051.52520178525	2418.5
1054.12936102295	2425.75
1056.73269917742	2438.25
1059.33521671154	2486.5
1061.93691408729	2445.5
1064.53779176571	2447
1067.13785020694	2412.5
1069.73708987022	2384
1072.33551121386	2388.25
1074.93311469528	2407
1077.52990077103	2400
1080.12586989674	2398.25
1082.72102252714	2502.5
1085.31535911611	2532
1087.90888011663	2506.75
1090.50158598078	2445.75
1093.09347715979	2381.75
1095.68455410403	2418
1098.27481726296	2376.75
1100.86426708523	2394
1103.45290401857	2383.75
1106.04072850991	2391.5
1108.6277410053	2369.5
1111.21394194993	2370
1113.79933178816	2398.25
1116.3839109635	2389.75
1118.96767991862	2429.5
1121.55063909539	2429.25
1124.13278893477	2472.75
1126.71412987696	2526.25
1129.29466236132	2504.25
1131.87438682637	2491.25
1134.45330370982	2437
1137.03141344858	2440.75
1139.60871647872	2440
1142.18521323554	2446.75
1144.7609041535	2440.75
1147.33578966629	2489
1149.90987020676	2545
1152.48314620702	2539.25
1155.05561809835	2527
1157.62728631125	2537.5
1160.19815127545	2577.25
1162.76821341988	2639.75
1165.33747317271	2660.75
1167.90593096133	2653.5
1170.47358721235	2600.25
1173.04044235163	2545.5
1175.60649680425	2470.5
1178.17175099454	2445.75
1180.73620534607	2416.5
1183.29986028165	2376
1185.86271622336	2380.75
1188.42477359249	2353.75
1190.98603280964	2389.5
1193.54649429462	2380
1196.10615846653	2373.75
1198.66502574372	2390.25
1201.22309654385	2358
1203.78037128378	2390
1206.33685037971	2394
1208.89253424709	2378
1211.44742330063	2382.25
1214.00151795438	2400.25
1216.55481862163	2417.5
1219.10732571497	2428.25
1221.65903964631	2413.25
1224.20996082683	2370
1226.760089667	2416.5
1229.30942657664	2411
1231.85797196483	2404.25
1234.40572623998	2378
1236.95268980981	2383.5
1239.49886308136	2416.5
1242.04424646098	2394
1244.58884035435	2444
1247.13264516647	2463.75
1249.67566130166	2471.25
1252.21788916358	2485.75
1254.75932915524	2531.25
1257.29998167896	2554.5
1259.83984713639	2485.25
1262.37892592857	2472
1264.91721845586	2448.75
1267.45472511795	2445.25
1269.9914463139	2468.25
1272.52738244213	2431
1275.0625339004	2442.25
1277.59690108587	2430.25
1280.130484395	2464.25
1282.66328422367	2455.5
1285.19530096712	2458.75
1287.72653501993	2472.25
1290.25698677608	2525
1292.78665662894	2588.75
1295.31554497125	2569.25
1297.8436521951	2547
1300.37097869203	2522.25
1302.89752485292	2517
1305.42329106805	2504.75
1307.94827772713	2498
1310.47248521921	2479.75
1312.99591393279	2454.25
1315.51856425575	2489.5
1318.04043657536	2470.75
1320.56153127836	2494
1323.08184875083	2546.5
1325.6013893783	2557.75
1328.12015354572	2606
1330.63814163744	2594.75
1333.15535403727	2568.25
1335.67179112839	2582.5
1338.18745329347	2534.75
1340.70234091454	2511.75
1343.21645437314	2501.75
1345.72979405019	2491
1348.24236032607	2487.25
1350.75415358059	2533.25
1353.26517419303	2531
1355.7754225421	2559.5
1358.28489900594	2588
1360.79360396218	2614
1363.30153778787	2527.25
1365.80870085955	2537.25
1368.31509355319	2535.75
1370.82071624424	2552
1373.32556930762	2518.75
1375.8296531177	2517.5
1378.33296804832	2497.25
1380.83551447282	2512.25
1383.33729276399	2499.25
1385.83830329408	2483
1388.33854643489	2504
1390.83802255762	2507.25
1393.33673203301	2498
1395.83467523128	2486.75
1398.33185252211	2500.25
1400.82826427471	2516.25
1403.32391085777	2493.75
1405.81879263947	2468.25
1408.31290998752	2461.5
1410.80626326908	2440
1413.29885285087	2463
1415.79067909909	2458
1418.28174237944	2483.75
1420.77204305717	2479.75
1423.26158149702	2463.5
1425.75035806323	2463.75
1428.2383731196	2491.25
1430.72562702942	2548.75
1433.21212015554	2591
1435.69785286028	2611.5
1438.18282550555	2630.75
1440.66703845275	2618
1443.15049206284	2597.75
1445.6331866963	2604
1448.11512271316	2629
1450.59630047298	2677.5
1453.07672033486	2706.5
1455.55638265748	2747.25
1458.03528779902	2774
1460.51343611725	2767.75
1462.99082796946	2702.75
1465.46746371252	2661
1467.94334370285	2629.25
1470.41846829642	2549.5
1472.89283784878	2573.75
1475.36645271503	2510.25
1477.83931324983	2526.75
1480.31141980743	2529.25
1482.78277274164	2491.25
1485.25337240583	2505.25
1487.72321915297	2478
1490.19231333557	2484.5
1492.66065530578	2471.25
1495.12824541525	2460.25
1497.5950840153	2487.5
1500.06117145678	2477.75
1502.52650809014	2459
1504.99109426543	2490.5
1507.45493033227	2457.5
1509.91801663992	2485.75
1512.38035353717	2464.5
1514.84194137248	2493.75
1517.30278049386	2506.25
1519.76287124894	2503.5
1522.22221398497	2476.5
1524.68080904876	2482.25
1527.13865678681	2508.25
1529.59575754514	2493
1532.05211166945	2497
1534.50771950503	2488.25
1536.96258139678	2490.75
1539.41669768924	2507.5
1541.87006872656	2510.5
1544.32269485252	2516.75
1546.77457641051	2522.5
1549.22571374357	2563.75
1551.67610719434	2516.5
1554.12575710513	2545.75
1556.57466381785	2558.75
1559.02282767408	2569.5
1561.47024901499	2583
1563.91692818144	2557
1566.3628655139	2586.75
1568.80806135249	2574.5
1571.252516037	2597.5
1573.6962299068	2610.25
1576.13920330099	2584
1578.58143655828	2603.25
1581.02293001704	2643.5
1583.46368401528	2637.25
1585.90369889071	2656.25
1588.34297498065	2702
1590.7815126221	2743.75
1593.21931215173	2817.75
1595.65637390588	2874.5
1598.09269822053	2871.75
1600.52828543135	2877.75
1602.96313587367	2789.25
1605.3972498825	2777.25
1607.83062779252	2711.75
1610.26326993808	2697
1612.69517665322	2673.5
1615.12634827165	2693.5
1617.55678512676	2645
1619.98648755163	2607.75
1622.41545587902	2571.75
1624.84369044138	2586.25
1627.27119157085	2601
1629.69795959924	2590
1632.12399485808	2579
1634.54929767859	2544.5
1636.97386839165	2584.25
1639.39770732789	2598.75
1641.8208148176	2589.75
1644.24319119078	2549
1646.66483677715	2550.25
1649.0857519061	2593.75
1651.50593690677	2557.25
1653.92539210795	2561.25
1656.3441178382	2561.25
1658.76211442575	2598.5
1661.17938219855	2574.5
1663.59592148428	2589.5
1666.01173261032	2592
1668.42681590377	2607
1670.84117169145	2614.75
1673.25480029991	2613.75
1675.66770205541	2596
1678.07987728393	2584
1680.49132631119	2616.5
1682.90204946263	2600.5
1685.31204706342	2638.75
1687.72131943846	2621
1690.1298669124	2614.75
1692.53768980957	2625.5
1694.94478845411	2604.5
1697.35116316982	2620.25
1699.75681428031	2599.25
1702.16174210887	2607
1704.56594697858	2606.5
1706.96942921222	2632
1709.37218913235	2629
1711.77422706125	2629
1714.17554332098	2633.75
1716.5761382333	2629
1718.97601211977	2621
1721.37516530169	2630.75
1723.77359810006	2619.25
1726.17131083572	2630.25
1728.56830382922	2627.75
1730.96457740087	2628
1733.36013187075	2603
1735.75496755868	2608.25
1738.14908478428	2619
1740.54248386689	2582.5
1742.93516512565	2603.75
1745.32712887946	2596.25
1747.71837544697	2604.5
1750.10890514662	2617
1752.49871829661	2603.5
1754.88781521492	2591.75
1757.27619621929	2601.75
1759.66386162726	2614.25
1762.05081175612	2607
1764.43704692297	2598
1766.82256744465	2576
1769.20737363782	2627
1771.59146581887	2586.5
1773.97484430405	2636.25
1776.35750940932	2611
1778.73946145048	2618.5
1781.12070074309	2619
1783.50122760249	2640
1785.88104234385	2676.75
1788.26014528209	2627
1790.63853673196	2623
1793.01621700796	2658.25
1795.39318642443	2663.75
1797.76944529549	2657
1800.14499393503	2653.5
1802.51983265681	2632.5
1804.8939617743	2643.25
1807.26738160085	2669.75
1809.64009244957	2655.25
1812.01209463339	2651.75
1814.38338846504	2649
1816.75397425706	2632.25
1819.12385232181	2649.5
1821.49302297142	2651.75
1823.86148651789	2684.5
1826.22924327299	2641.25
1828.59629354831	2639
1830.96263765526	2647.75
1833.32827590507	2658
1835.69320860877	2687
1838.05743607724	2648.25
1840.42095862113	2641.5
1842.78377655097	2649.5
1845.14589017707	2625.5
1847.50729980956	2667
1849.86800575843	2623.25
1852.22800833346	2636.75
1854.58730784427	2638.75
1856.94590460032	2650.75
1859.30379891087	2669.75
1861.66099108503	2678
1864.01748143175	2668.5
1866.37327025978	2683
1868.72835787773	2652.5
1871.08274459403	2674.75
1873.43643071697	2656.25
1875.78941655464	2706.5
1878.14170241498	2668.75
1880.4932886058	2672.25
1882.84417543469	2687.25
1885.19436320915	2677
1887.54385223646	2686.25
1889.89264282378	2722
1892.24073527809	2702.5
1894.58812990625	2729.5
1896.93482701493	2720.5
1899.28082691067	2716.75
1901.62612989984	2769
1903.97073628868	2730.25
1906.31464638326	2768.25
1908.6578604895	2779.75
1911.00037891321	2795.75
1913.34220196	2816.25
1915.68332993537	2784.5
1918.02376314468	2781
1920.36350189311	2817.75
1922.70254648573	2791
1925.04089722744	2792.75
1927.37855442303	2793
1929.71551837715	2808
1932.05178939426	2774.75
1934.38736777876	2793.5
1936.72225383484	2790
1939.0564478666	2811
1941.38995017799	2796
1943.72276107283	2806.5
1946.05488085479	2818.5
1948.38630982744	2802.75
1950.71704829419	2780.75
1953.04709655832	2797.5
1955.376454923	2775.5
1957.70512369126	2771.5
1960.03310316599	2793
1962.36039364999	2768.25
1964.68699544589	2788.5
1967.01290885622	2783.75
1969.33813418338	2806.5
1971.66267172965	2789
1973.98652179718	2777.5
1976.309684688	2835
1978.63216070402	2819.75
1980.95395014705	2840.5
1983.27505331873	2828.75
1985.59547052063	2802.5
1987.9152020542	2816.5
1990.23424822074	2819
1992.55260932146	2819.5
1994.87028565746	2832.25
1997.18727752968	2870
1999.503585239	2865.5
2001.81920908618	2823
2004.13414937184	2860.5
2006.44840639651	2898
2008.7619804606	2846.5
2011.07487186442	2865.5
2013.38708090815	2876.75
2015.6986078919	2863.75
2018.00945311564	2878.25
2020.31961687923	2886.5
2022.62909948246	2908.5
2024.93790122498	2911.5
2027.24602240636	2931.25
2029.55346332604	2936.25
2031.86022428337	2869.25
2034.16630557761	2929.5
2036.47170750791	2912
2038.77643037331	2942.75
2041.08047447275	2931.5
2043.38384010509	2920
2045.68652756907	2911.75
2047.98853716335	2908.25
2050.28986918648	2930
2052.59052393692	2947.75
2054.89050171302	2938.5
2057.18980281306	2899.75
2059.4884275352	2936.25
2061.78637617753	2905.75
2064.08364903802	2942
2066.38024641457	2925.75
2068.67616860497	2929.75
2070.97141590694	2933.75
2073.26598861809	2934
2075.55988703595	2917.75
2077.85311145796	2949.25
2080.14566218145	2913.5
2082.43753950371	2943.5
2084.72874372188	2933.75
2087.01927513307	2962.75
2089.30913403428	2932
2091.59832072241	2925.25
2093.88683549429	2934
2096.17467864666	2971.5
2098.46185047619	2926
2100.74835127944	2957
2103.03418135292	2967.25
2105.31934099303	2965
2107.6038304961	3006.75
2109.88765015838	2985.5
2112.17080027602	2977.75
2114.45328114513	3002.75
2116.7350930617	3025.75
2119.01623632165	3002.75
2121.29671122085	3003.75
2123.57651805505	2990
2125.85565711996	3019
2128.13412871117	3031.75
2130.41193312424	3040.25
2132.68907065462	3049.25
2134.96554159771	3053.25
2137.24134624881	3052.5
2139.51648490317	3080.25
2141.79095785593	3068.25
2144.0647654022	3070.25
2146.33790783698	3072.5
2148.61038545524	3033.25
2150.88219855182	3111.75
2153.15334742154	3078
2155.42383235911	3091.5
2157.6936536592	3113
2159.9628116164	3094
2162.23130652522	3106.25
2164.49913868011	3132.5
2166.76630837544	3124.25
2169.03281590552	3128
2171.2986615646	3130.75
2173.56384564685	3142.25
2175.82836844637	3076.75
2178.0922302572	3138.25
2180.35543137332	3132.75
2182.61797208862	3154
2184.87985269695	3137.25
2187.14107349208	3109.5
2189.40163476773	3161
2191.66153681753	3134
2193.92077993507	3125.5
2196.17936441386	3138.25
2198.43729054735	3170.5
2200.69455862894	3160.5
2202.95116895194	3154.5
2205.20712180962	3161.5
2207.46241749519	3150
2209.71705630179	3151.5
2211.97103852248	3154.25
2214.2243644503	3122
2216.47703437819	3182.5
2218.72904859905	3142.5
2220.98040740571	3142.25
2223.23111109095	3182
2225.4811599475	3139
2227.73055426799	3150
2229.97929434504	3131.25
2232.22738047118	3139.25
2234.47481293889	3141.5
2236.72159204058	3163
2238.96771806864	3173.25
2241.21319131536	3165.5
2243.458012073	3106.5
2245.70218063374	3174
2247.94569728973	3173.25
2250.18856233304	3161.25
2252.4307760557	3151.75
2254.67233874967	3149.75
2256.91325070687	3133.5
2259.15351221915	3161.5
2261.39312357831	3179.75
2263.63208507611	3190.25
2265.87039700422	3149.75
2268.1080596543	3172.25
2270.34507331792	3186
2272.5814382866	3134.25
2274.81715485183	3157.25
2277.05222330502	3184
2279.28664393755	3208.5
2281.52041704072	3200.25
2283.75354290581	3176
2285.98602182401	3185
2288.21785408648	3171.25
2290.44903998434	3219.25
2292.67957980862	3184.25
2294.90947385033	3222.75
2297.1387224004	3193.75
2299.36732574975	3212
2301.59528418921	3234.5
2303.82259800958	3199.25
2306.04926750158	3220
2308.27529295593	3210.25
2310.50067466325	3215.5
2312.72541291412	3236.5
2314.9495079991	3240.25
2317.17296020866	3221.5
2319.39576983323	3247.75
2321.61793716322	3241.25
2323.83946248894	3243
2326.06034610069	3236.75
2328.28058828871	3222
2330.50018934317	3224.75
2332.7191495542	3226.75
2334.93746921192	3222.25
2337.15514860633	3223.75
2339.37218802743	3211.75
2341.58858776516	3215.5
2343.80434810941	3241
2346.01946935001	3233.5
2348.23395177675	3255
2350.44779567939	3242.25
2352.66100134759	3214
2354.87356907101	3205.25
2357.08549913925	3214.25
2359.29679184185	3230
2361.50744746829	3221.25
2363.71746630804	3253.5
2365.92684865048	3210.25
2368.13559478499	3221
2370.34370500083	3259
2372.55117958727	3208.25
2374.75801883352	3222.5
2376.96422302874	3229.75
2379.16979246202	3230.5
2381.37472742243	3234.75
2383.57902819898	3202.75
2385.78269508063	3221.75
2387.98572835629	3190.25
2390.18812831482	3188.25
2392.38989524505	3221.75
2394.59102943573	3208.5
2396.79153117559	3195.25
2398.9914007533	3154.5
2401.19063845748	3180.5
2403.38924457672	3194.5
2405.58721939951	3212.25
2407.78456321435	3180.25
2409.98127630966	3200.25
2412.17735897382	3189.5
2414.37281149517	3197.75
2416.56763416198	3199.5
2418.76182726249	3217
2420.95539108487	3197.75
2423.14832591726	3185.25
2425.34063204776	3165.25
2427.53230976439	3149
2429.72335935513	3202
2431.91378110795	3204.25
2434.10357531071	3190.75
2436.29274225125	3204.75
2438.48128221739	3144.25
2440.66919549683	3158
2442.8564823773	3192.75
2445.04314314641	3154.5
2447.22917809176	3198.25
2449.4145875009	3211.5
2451.59937166131	3192
2453.78353086044	3176.75
2455.96706538568	3182.75
2458.14997552436	3170.75
2460.33226156379	3140.5
2462.51392379119	3188.5
2464.69496249376	3122.75
2466.87537795862	3139.25
2469.05517047288	3121
2471.23434032357	3154
2473.41288779767	3179
2475.59081318211	3133
2477.76811676378	3154.5
2479.9447988295	3162.5
2482.12085966605	3124
2484.29629956016	3117
2486.4711187985	3179.25
2488.64531766769	3150.25
2490.8188964543	3179.5
2492.99185544484	3127.75
2495.16419492579	3144.25
2497.33591518353	3148.25
2499.50701650444	3149
2501.67749917482	3153
2503.84736348091	3136
2506.01660970891	3121.5
2508.18523814496	3170
2510.35324907514	3162.75
2512.52064278551	3131.5
2514.68741956201	3140.5
2516.85357969058	3160.25
2519.01912345709	3146.75
2521.18405114735	3139
2523.34836304711	3150
2525.51205944208	3177.5
2527.6751406179	3176
2529.83760686016	3147.25
2531.99945845439	3157.25
2534.16069568606	3167.5
2536.3213188406	3162.5
2538.48132820336	3139
2540.64072405965	3168.5
2542.79950669471	3152.75
2544.95767639373	3153.5
2547.11523344184	3171.75
2549.27217812411	3166.5
2551.42851072555	3157
2553.58423153111	3166.5
2555.73934082569	3180.75
2557.89383889412	3133
2560.04772602118	3149.5
2562.20100249158	3123.25
2564.35366858996	3138.5
2566.50572460093	3118.5
2568.65717080901	3108.75
2570.80800749867	3146.75
2572.95823495433	3127.75
2575.10785346031	3126.75
2577.25686330093	3100.75
2579.40526476038	3094.75
2581.55305812282	3090
2583.70024367237	3069.25
2585.84682169303	3083
2587.99279246879	3059
2590.13815628354	3041.5
2592.28291342112	3029.25
2594.42706416531	3094.25
2596.5706087998	3086
2598.71354760826	3105.25
2600.85588087425	3073.5
2602.99760888127	3057.25
2605.13873191278	3070.5
2607.27925025214	3040.75
2609.41916418269	3066.5
2611.55847398764	3055
2613.69717995017	3043.25
2615.83528235339	3073.75
2617.97278148034	3068.25
2620.10967761398	3040.25
2622.2459710372	3068.25
2624.38166203284	3058.25
2626.51675088365	3061
2628.65123787231	3038.5
2630.78512328145	3049.5
2632.9184073936	3073
2635.05109049124	3083.25
2637.18317285676	3047.25
2639.31465477248	3066.75
2641.44553652067	3087.25
2643.5758183835	3064.5
2645.70550064309	3087
2647.83458358144	3042.75
2649.96306748053	3097.25
2652.09095262223	3110.25
2654.21823928836	3100.5
2656.34492776063	3123.75
2658.47101832071	3080.25
2660.59651125015	3124
2662.72140683047	3109
2664.84570534309	3102.25
2666.96940706934	3086.5
2669.0925122905	3064.25
2671.21502128773	3127.5
2673.33693434215	3122.25
2675.45825173479	3119
2677.57897374658	3145
2679.69910065839	3125.75
2681.818632751	3124
2683.93757030511	3123.25
2686.05591360133	3098.5
2688.17366292021	3120.5
2690.29081854218	3126
2692.40738074762	3120
2694.52334981681	3113
2696.63872602995	3077.5
2698.75350966713	3130.5
2700.86770100841	3153.5
2702.98130033371	3140.75
2705.09430792289	3135.75
2707.20672405571	3179.75
2709.31854901185	3191.75
2711.42978307091	3188.5
2713.54042651238	3226.75
2715.65047961567	3208
2717.7599426601	3242
2719.86881592491	3277.5
2721.97709968924	3272
2724.08479423213	3270.25
2726.19189983255	3245.25
2728.29841676934	3190
2730.4043453213	3212.5
2732.5096857671	3212
2734.61443838532	3177.75
2736.71860345444	3182.75
2738.82218125286	3124.75
2740.92517205889	3150.5
2743.02757615072	3145.5
2745.12939380646	3123.25
2747.23062530411	3108
2749.33127092159	3155.5
2751.4313309367	3131.5
2753.53080562716	3095.25
2755.62969527058	3138
2757.72800014448	3113.75
2759.82572052625	3160
2761.92285669323	3108
2764.0194089226	3078
2766.11537749147	3124.75
2768.21076267686	3130.25
2770.30556475566	3112.75
2772.39978400465	3088.25
2774.49342070054	3094.75
2776.58647511991	3122.75
2778.67894753923	3131.5
2780.77083823487	3132.75
2782.8621474831	3099.25
2784.95287556007	3084.5
2787.04302274184	3074.75
2789.13258930433	3148.5
2791.22157552338	3092.25
2793.30998167471	3125
2795.39780803392	3134.25
2797.4850548765	3135.25
2799.57172247786	3116.25
2801.65781111324	3128
2803.74332105781	3119.25
2805.82825258661	3116
2807.91260597457	3139.5
2809.9963814965	3123
2812.07957942711	3159.75
2814.16220004096	3137.75
2816.24424361252	3148.25
2818.32571041614	3202.75
2820.40660072604	3175.25
2822.48691481631	3220
2824.56665296098	3242
2826.64581543388	3319.75
2828.72440250876	3352.75
2830.80241445925	3521.5
2832.87985155885	3630.5
2834.95671408093	3867.25
2837.03300229875	4048
2839.10871648544	4255.25
2841.18385691399	4265
2843.25842385729	4269
2845.33241758808	4247
2847.40583837898	4238.25
2849.4786865025	4220.75
2851.550962231	4131.5
2853.6226658367	4126.5
2855.69379759173	4051.75
2857.76435776806	4036.75
2859.83434663753	4135.5
2861.90376447184	4276
2863.97261154259	4550.5
2866.0408881212	4683.5
2868.10859447901	4789.75
2870.17573088717	4763.25
2872.24229761673	4769.5
2874.30829493859	4855.5
2876.37372312352	4977.75
2878.43858244215	5199
2880.50287316496	5336.75
2882.56659556231	5369
2884.62974990439	5366.75
2886.69233646129	5196
2888.75435550293	5080
2890.81580729909	4983
2892.87669211941	4834
2894.93701023339	4807
2896.99676191039	4751.75
2899.05594741961	4790.5
2901.1145670301	4814
2903.1726210108	4885.5
2905.23010963045	4915.75
2907.28703315768	4887.75
2909.34339186096	4758.5
2911.39918600861	4703.5
2913.45441586879	4587
2915.50908170952	4556
2917.56318379867	4499.75
2919.61672240395	4524.25
2921.66969779291	4532
2923.72211023295	4516.25
2925.77395999134	4495.25
2927.82524733515	4423.75
2929.87597253132	4296.25
2931.92613584663	4178.5
2933.97573754769	4085.25
2936.02477790097	3939.5
2938.07325717276	3850.5
2940.1211756292	3798.5
2942.16853353626	3812.5
2944.21533115976	3853.75
2946.26156876536	3941.25
2948.30724661853	4043
2950.3523649846	4205.25
2952.39692412872	4281.5
2954.44092431587	4366.25
2956.48436581089	4523.5
2958.52724887843	4717.75
2960.56957378296	4831.25
2962.6113407888	4857.25
2964.65255016011	4653.75
2966.69320216083	4505
2968.73329705479	4218.75
2970.77283510559	4008
2972.81181657671	3799.5
2974.8502417314	3667.75
2976.88811083279	3552
2978.92542414378	3493
2980.96218192713	3406.75
2982.99838444541	3377.75
2985.034031961	3349.25
2987.06912473612	3307.75
2989.1036630328	3332.75
2991.13764711288	3264
2993.17107723804	3258.5
2995.20395366974	3218.5
2997.23627666931	3247.75
2999.26804649782	3259
3001.29926341624	3251.25
3003.32992768528	3256
3005.3600395655	3242
3007.38959931726	3194.25
3009.41860720076	3228.5
3011.44706347595	3233.5
3013.47496840263	3246.75
3015.50232224041	3277.25
3017.5291252487	3246.75
3019.5553776867	3209.5
3021.58107981344	3265.5
3023.60623188773	3276.5
3025.63083416822	3243
3027.65488691331	3270.75
3029.67839038125	3242.5
3031.70134483007	3231.25
3033.72375051759	3263.75
3035.74560770144	3253
3037.76691663907	3263.75
3039.78767758768	3284.5
3041.80789080431	3245.5
3043.82755654577	3287.5
3045.84667506867	3267.25
3047.8652466294	3262
3049.88327148418	3255
3051.90074988899	3242.5
3053.91768209961	3278.75
3055.9340683716	3253.75
3057.94990896033	3256
3059.96520412095	3295
3061.97995410838	3257.25
3063.99415917734	3273.25
3066.00781958234	3255.5
3068.02093557766	3249.75
3070.03350741738	3270.25
3072.04553535535	3262.5
3074.05701964521	3210.75
3076.06796054036	3253.5
3078.078358294	3256.75
3080.08821315912	3263
3082.09752538846	3300.5
3084.10629523454	3215
3086.11452294967	3246.75
3088.12220878592	3224.5
3090.12935299515	3273.75
3092.13595582898	3225.5
3094.1420175388	3220.25
3096.14753837579	3229
3098.15251859088	3221.75
3100.15695843477	3238.5
3102.16085815793	3225.75
3104.16421801061	3218.25
3106.16703824282	3227.5
3108.16931910432	3192.5
3110.17106084464	3189.75
3112.17226371308	3201.25
3114.17292795872	3221.5
3116.17305383034	3220.5
3118.17264157657	3210
3120.17169144571	3198.75
3122.17020368587	3168.75
3124.16817854492	3208.75
3126.16561627044	3224.75
3128.16251710982	3245.75
3130.15888131017	3227
3132.15470911837	3242.25
3134.15000078104	3238
3136.14475654455	3257.5
3138.13897665502	3230.75
3140.13266135835	3243.25
3142.12581090014	3227.75
3144.11842552577	3271
3146.11050548036	3264.5
3148.10205100875	3251.25
3150.09306235557	3247.75
3152.08353976515	3235.5
3154.07348348158	3240.5
3156.06289374869	3260.5
3158.05177081006	3255.25
3160.04011490899	3268.25
3162.02792628852	3308.25
3164.01520519145	3251.5
3166.00195186029	3258.5
3167.98816653728	3266
3169.97384946442	3285
3171.95900088344	3274.75
3173.94362103577	3272.25
3175.92771016259	3278.25
3177.91126850484	3252.5
3179.89429630312	3262.25
3181.87679379782	3245.75
3183.85876122903	3289.5
3185.84019883657	3277.5
3187.82110685997	3301.25
3189.80148553851	3290
3191.78133511116	3249.25
3193.76065581664	3305.25
3195.73944789337	3302
3197.7177115795	3258.75
3199.6954471129	3274.5
3201.67265473114	3267
3203.64933467153	3276.5
3205.62548717107	3296
3207.60111246648	3285
3209.57621079421	3269
3211.55078239041	3326.75
3213.52482749093	3260
3215.49834633133	3301
3217.4713391469	3327.75
3219.44380617262	3313
3221.41574764317	3318.75
3223.38716379296	3316.75
3225.35805485607	3334.5
3227.32842106631	3306
3229.29826265718	3324.5
3231.26757986187	3345
3233.2363729133	3352.25
3235.20464204405	3335.25
3237.17238748643	3340.5
3239.13960947243	3335.5
3241.10630823374	3319.5
3243.07248400174	3348.5
3245.03813700748	3347
3247.00326748177	3341.75
3248.96787565503	3363
3250.93196175742	3359.5
3252.89552601877	3364.75
3254.8585686686	3331.75
3256.82108993612	3367.75
3258.78309005022	3343.5
3260.74456923948	3331.75
3262.70552773215	3359
3264.66596575617	3360.5
3266.62588353916	3374.25
3268.58528130843	3363
3270.54415929094	3359.5
3272.50251771336	3366
3274.46035680201	3396
3276.4176767829	3375.5
3278.37447788171	3347.75
3280.33076032379	3369.5
3282.28652433416	3364.75
3284.24177013751	3381.75
3286.1964979582	3348.5
3288.15070802027	3400.25
3290.10440054741	3385.75
3292.05757576298	3351.75
3294.01023389001	3387.5
3295.96237515119	3397.5
3297.91399976887	3365.75
3299.86510796506	3406.5
3301.81569996142	3369.25
3303.76577597932	3373.25
3305.7153362397	3405.75
3307.66438096324	3405.25
3309.61291037024	3392.25
3311.56092468064	3382.25
3313.50842411404	3359.5
3315.45540888971	3419.75
3317.40187922656	3363.75
3319.34783534315	3379.75
3321.29327745768	3348.5
3323.23820578801	3349.5
3325.18262055164	3374.75
3327.1265219657	3324.25
3329.06991024699	3355.25
3331.01278561194	3390.5
3332.95514827662	3366.75
3334.89699845674	3368.5
3336.83833636766	3399.75
3338.77916222434	3317.25
3340.71947624143	3378.5
3342.65927863317	3393
3344.59856961346	3376
3346.53734939584	3382.5
3348.47561819344	3385.75
3350.41337621906	3372.25
3352.35062368513	3362
3354.28736080368	3328
3356.22358778637	3351
3358.15930484452	3374.75
3360.09451218904	3370.75
3362.02921003047	3377.25
3363.96339857898	3385.25
3365.89707804436	3360.25
3367.83024863602	3371.25
3369.76291056299	3414.25
3371.69506403389	3338.25
3373.62670925699	3392.75
3375.55784644016	3397.75
3377.4884757909	3382.75
3379.41859751629	3420.5
3381.34821182305	3402.5
3383.27731891749	3406.5
3385.20591900555	3452.25
3387.13401229276	3420.25
3389.06159898426	3413.5
3390.9886792848	3457.25
3392.91525339872	3422
3394.84132152998	3454.5
3396.76688388213	3424.25
3398.69194065833	3453
3400.61649206133	3396.25
3402.54053829348	3455
3404.46407955672	3412.75
3406.3871160526	3408.5
3408.30964798225	3442
3410.23167554639	3429.25
3412.15319894535	3433.75
3414.07421837904	3439.25
3415.99473404695	3487
3417.91474614817	3439.5
3419.83425488136	3456.5
3421.75326044479	3469
3423.67176303631	3481.5
3425.58976285332	3467.25
3427.50726009282	3464.25
3429.42425495143	3442
3431.34074762528	3452.5
3433.25673831012	3403.5
3435.17222720127	3446.25
3437.08721449362	3435.25
3439.00170038164	3421
3440.91568505936	3455.75
3442.82916872039	3391.25
3444.74215155791	3433
3446.65463376468	3415.75
3448.566615533	3469.75
3450.47809705476	3438.75
3452.3890785214	3425.5
3454.29956012393	3443.5
3456.20954205293	3403
3458.11902449853	3416.5
3460.02800765041	3385
3461.93649169784	3388.5
3463.84447682962	3392.75
3465.75196323412	3429.75
3467.65895109925	3373.5
3469.56544061249	3398.5
3471.47143196086	3386.5
3473.37692533093	3393.25
3475.28192090884	3377.5
3477.18641888026	3413.25
3479.09041943039	3381.5
3480.99392274402	3388
3482.89692900545	3393.25
3484.79943839853	3402.25
3486.70145110666	3421
3488.60296731277	3394
3490.50398719933	3383.25
3492.40451094836	3371.25
3494.30453874141	3374.5
3496.20407075956	3415.25
3498.10310718342	3410.25
3500.00164819315	3406.25