201.866871357051	1866
204.754250281454	1853.75
207.640596790938	1858.5
210.525911876299	1887.75
213.410196525689	1873.25
216.293451724508	1874.5
219.175678455485	1875
222.056877698662	1885
224.937050431388	1885.75
227.816197628363	1901.25
230.694320261602	1893.75
233.571419300504	1900
236.447495711764	1911
239.322550459507	1918.5
242.196584505182	1946.25
245.069598807626	1939.5
247.941594323078	1929.75
250.812572005154	1957
253.682532804884	1963.25
256.551477670699	1960
259.419407548456	2002
262.286323381439	1987.25
265.152226110364	1979
268.017116673389	2013.5
270.880996006115	2010
273.743865041622	2036.5
276.605724710436	2041.75
279.466575940562	2046.75
282.326419657496	2043.25
285.1852567842	2046.25
288.043088241157	2035
290.899914946349	2051.25
293.75573781526	2086.5
296.610557760898	2063.5
299.464375693817	2071.25
302.317192522078	2077.25
305.169009151297	2063.5
308.019826484655	2100.5
310.86964542287	2093.5
313.718466864233	2081.5
316.566291704614	2105.25
319.413120837457	2090.75
322.258955153804	2131.5
325.103795542291	2093.25
327.947642889128	2118
330.79049807819	2116.75
333.632361990927	2121
336.473235506444	2135.5
339.31311950145	2169.25
342.152014850322	2141.75
344.989922425062	2171.75
347.826843095354	2160.25
350.662777728528	2178.75
353.497727189577	2189.25
356.331692341195	2199
359.164674043732	2236.5
361.996673155267	2216.5
364.827690531536	2227.5
367.65772702602	2242.75
370.486783489887	2237.5
373.314860772047	2261.5
376.14195971912	2250.5
378.968081175466	2245
381.793225983212	2261.25
384.617394982201	2286.5
387.44058901005	2287.25
390.262808902131	2297.75
393.08405549161	2292.5
395.904329609395	2290.25
398.723632084213	2301
401.541963742569	2307
404.359325408779	2288
407.175717904938	2326.25
409.991142050982	2348.5
412.805598664665	2363
415.619088561551	2382.75
418.43161255505	2378.25
421.243171456415	2355
424.053766074758	2418.25
426.863397217017	2403
429.672065688024	2435.25
432.479772290455	2435.25
435.286517824879	2434.5
438.092303089736	2444.75
440.897128881359	2426.25
443.70099599399	2462.75
446.503905219761	2427.25
449.305857348711	2456.25
452.106853168796	2473.5
454.906893465919	2458
457.705979023885	2490.25
460.504110624439	2466.25
463.3012890473	2507.5
466.097515070087	2501.25
468.892789468424	2497.25
471.687113015869	2505.5
474.48048648395	2497
477.272910642198	2531.5
480.064386258109	2534.75
482.854914097159	2535.5
485.644494922839	2550.25
488.433129496636	2535.25
491.220818578047	2586.5
494.007562924584	2584.5
496.793363291785	2606.25
499.578220433217	2616.5
502.362135100473	2623.75
505.145108043209	2633.5
507.927140009098	2643.75
510.708231743909	2667
513.488383991433	2652
516.267597493556	2660.5
519.04587299022	2689.25
521.82321121946	2700.75
524.599612917398	2700.25
527.375078818233	2697.75
530.149609654287	2698
532.923206155967	2691.75
535.695869051804	2699.5
538.467599068448	2702
541.238396930665	2717.25
544.008263361364	2726.25
546.777199081578	2718.5
549.545204810493	2742.75
552.312281265436	2756.5
555.078429161898	2753.5
557.843649213533	2794
560.607942132156	2741.75
563.371308627753	2735
566.133749408495	2768.75
568.895265180756	2815.75
571.655856649064	2815.5
574.415524516189	2820.25
577.174269483075	2833.25
579.932092248884	2873
582.688993510994	2844.5
585.444973965023	2864.25
588.200034304795	2912
590.95417522237	2883.75
593.70739740807	2903
596.459701550433	2908.25
599.21108833628	2919
601.961558450668	2916
604.711112576933	2932.5
607.459751396673	2912.5
610.207475589748	2924.75
612.954285834338	2978.5
615.700182806879	2962
618.445167182101	2926.25
621.189239633055	2926.75
623.932400831087	2952.5
626.674651445839	2952.25
629.415992145303	2939.75
632.156423595745	2970.5
634.895946461813	2995.5
637.634561406449	2965.5
640.37226909096	3006.75
643.109070174978	2976.5
645.844965316508	3001.5
648.579955171888	3020
651.314040395846	3079.25
654.047221641456	3060.5
656.779499560176	3037.25
659.510874801828	3062.25
662.241348014642	3078
664.97091984524	3103
667.699590938606	3097.75
670.427361938164	3108.25
673.15423348573	3105.75
675.880206221526	3117.5
678.605280784206	3164.75
681.329457810829	3185.5
684.05273793692	3169.75
686.775121796389	3174
689.49661002163	3186.25
692.217203243454	3197.75
694.936902091144	3197.25
697.655707192425	3181.75
700.373619173493	3205.5
703.09063865901	3196.25
705.806766272093	3201.75
708.522002634378	3234.75
711.236348365946	3266.5
713.94980408538	3229.5
716.662370409762	3267
719.374047954676	3262
722.08483733419	3264
724.794739160909	3281.25
727.503754045949	3285.5
730.21188259892	3308.25
732.919125427998	3312.25
735.625483139855	3322.5
738.330956339723	3328.75
741.035545631374	3371.25
743.739251617106	3381.25
746.44207489779	3379
749.144016072852	3363
751.845075740272	3453.5
754.545254496603	3411.5
757.244552936976	3464.5
759.94297165508	3457.75
762.640511243222	3463.5
765.337172292249	3498.25
768.032955391649	3452.25
770.727861129482	3492.5
773.421890092413	3481.75
776.11504286572	3522.25
778.807320033298	3481
781.49872217765	3504.25
784.18924987991	3483.5
786.87890371984	3486.5
789.567684275826	3536
792.255592124908	3535.25
794.94262784276	3542.5
797.628792003703	3553
800.314085180715	3521
802.998507945427	3598.25
805.682060868145	3543.25
808.364744517821	3601.75
811.046559462105	3628.5
813.727506267311	3586
816.407585498422	3661.25
819.08679771913	3623.75
821.765143491822	3650
824.442623377563	3667
827.119237936127	3686.75
829.794987726003	3697.75
832.469873304377	3714.25
835.143895227167	3697.25
837.817054048985	3741
840.489350323205	3756.75
843.160784601892	3780.5
845.831357435894	3796.75
848.501069374739	3783
851.169920966753	3824.75
853.837912758987	3825
856.505045297232	3826.25
859.171319126071	3886.25
861.836734788823	3877.75
864.501292827579	3876.75
867.164993783208	3833.25
869.827838195361	3855.75
872.489826602454	3898.25
875.150959541701	3922.25
877.811237549104	3871.5
880.470661159456	3928.75
883.129230906357	3913.75
885.786947322205	3941.5
888.443810938206	3903.25
891.099822284385	3937
893.754981889586	3939.5
896.409290281452	3948.75
899.062747986485	4019.75
901.715355529999	4035.75
904.367113436154	4041.25
907.01802222793	4038.5
909.668082427172	4013
912.317294554574	4040.25
914.965659129659	4039.5
917.613176670835	4062.75
920.259847695364	4083
922.90567271936	4089.25
925.550652257825	4140.75
928.194786824621	4148
930.838076932512	4145.25
933.480523093109	4107
936.122125816953	4225.5
938.762885613447	4201.25
941.402802990899	4170
944.041878456523	4272
946.680112516428	4201
949.31750567563	4180.25
951.954058438081	4300.5
954.589771306633	4272.75
957.224644783048	4279.5
959.858679368044	4279.75
962.491875561238	4247.5
965.12423386121	4310.75
967.75575476545	4297.25
970.386438770423	4334
973.016286371501	4326.5
975.645298063046	4350
978.273474338355	4312
980.900815689674	4369.75
983.527322608243	4334
986.152995584245	4405
988.777835106834	4439.5
991.401841664148	4418.75
994.025015743307	4455.5
996.647357830407	4427.25
999.268868410534	4447
1001.88954796777	4449.25
1004.50939698518	4475.5
1007.12841594484	4551.25
1009.74660532783	4506.25
1012.36396561423	4573.25
1014.98049728314	4555.75
1017.59620081267	4566
1020.21107667995	4577
1022.82512536112	4592
1025.43834733138	4618.25
1028.05074306493	4665.25
1030.66231303501	4635.75
1033.27305771392	4680.25
1035.88297757299	4687.25
1038.49207308257	4695.25
1041.10034471211	4717.5
1043.70779293008	4697.5
1046.31441820402	4718.5
1048.92022100052	4756.75
1051.52520178525	4780.25
1054.12936102295	4827.5
1056.73269917742	4818.25
1059.33521671154	4862.25
1061.93691408729	4862.25
1064.53779176571	4894
1067.13785020694	4868.75
1069.73708987022	4868.25
1072.33551121386	4894.25
1074.93311469528	4846
1077.52990077103	4923.5
1080.12586989674	4938.5
1082.72102252714	5016
1085.31535911611	5059.75
1087.90888011663	5065.25
1090.50158598078	5019.75
1093.09347715979	5033.75
1095.68455410403	4999
1098.27481726296	4968.25
1100.86426708523	4976.5
1103.45290401857	5031.25
1106.04072850991	5006.25
1108.6277410053	5027.75
1111.21394194993	5009.75
1113.79933178816	5087
1116.3839109635	5119.5
1118.96767991862	5128.75
1121.55063909539	5137.5
1124.13278893477	5194.25
1126.71412987696	5232.25
1129.29466236132	5205.5
1131.87438682637	5207.25
1134.45330370982	5219.75
1137.03141344858	5261.75
1139.60871647872	5222.75
1142.18521323554	5252
1144.7609041535	5258.25
1147.33578966629	5306
1149.90987020676	5300.25
1152.48314620702	5327.5
1155.05561809835	5263.5
1157.62728631125	5330.25
1160.19815127545	5351
1162.76821341988	5330.25
1165.33747317271	5343.25
1167.90593096133	5343.25
1170.47358721235	5374.25
1173.04044235163	5359.75
1175.60649680425	5371.75
1178.17175099454	5384
1180.73620534607	5352
1183.29986028165	5370
1185.86271622336	5353.25
1188.42477359249	5393
1190.98603280964	5437.5
1193.54649429462	5475.25
1196.10615846653	5478.75
1198.66502574372	5444.25
1201.22309654385	5462.5
1203.78037128378	5460
1206.33685037971	5433.25
1208.89253424709	5505.25
1211.44742330063	5460.25
1214.00151795438	5440.75
1216.55481862163	5536
1219.10732571497	5509.25
1221.65903964631	5555.5
1224.20996082683	5539
1226.760089667	5564.25
1229.30942657664	5595.25
1231.85797196483	5662
1234.40572623998	5617
1236.95268980981	5631.5
1239.49886308136	5657
1242.04424646098	5666.75
1244.58884035435	5685.5
1247.13264516647	5709
1249.67566130166	5682.25
1252.21788916358	5697.25
1254.75932915524	5747
1257.29998167896	5803.5
1259.83984713639	5773
1262.37892592857	5843.25
1264.91721845586	5835.5
1267.45472511795	5908.75
1269.9914463139	5874.25
1272.52738244213	5908
1275.0625339004	5886.25
1277.59690108587	5968.25
1280.130484395	5973
1282.66328422367	5937
1285.19530096712	5942.75
1287.72653501993	6037
1290.25698677608	5974.25
1292.78665662894	6098
1295.31554497125	6097.75
1297.8436521951	6055
1300.37097869203	6086.5
1302.89752485292	6083.75
1305.42329106805	6066.75
1307.94827772713	6179.5
1310.47248521921	6142.5
1312.99591393279	6192.75
1315.51856425575	6172.75
1318.04043657536	6140.25
1320.56153127836	6152.5
1323.08184875083	6246.5
1325.6013893783	6136.25
1328.12015354572	6300.75
1330.63814163744	6334.75
1333.15535403727	6324
1335.67179112839	6425.5
1338.18745329347	6366.25
1340.70234091454	6418
1343.21645437314	6408.5
1345.72979405019	6435
1348.24236032607	6424.75
1350.75415358059	6536.25
1353.26517419303	6514.25
1355.7754225421	6546.25
1358.28489900594	6547
1360.79360396218	6639.75
1363.30153778787	6576
1365.80870085955	6586.25
1368.31509355319	6570.5
1370.82071624424	6545.25
1373.32556930762	6570.25
1375.8296531177	6553.25
1378.33296804832	6595.25
1380.83551447282	6565
1383.33729276399	6543.75
1385.83830329408	6551.25
1388.33854643489	6546.5
1390.83802255762	6537.25
1393.33673203301	6509.25
1395.83467523128	6508.25
1398.33185252211	6556.25
1400.82826427471	6572.75
1403.32391085777	6514.75
1405.81879263947	6568
1408.31290998752	6594.25
1410.80626326908	6521
1413.29885285087	6529.5
1415.79067909909	6552.5
1418.28174237944	6612.75
1420.77204305717	6634.75
1423.26158149702	6616.5
1425.75035806323	6684.25
1428.2383731196	6655.5
1430.72562702942	6648.25
1433.21212015554	6809
1435.69785286028	6818.5
1438.18282550555	6845.75
1440.66703845275	6904.25
1443.15049206284	6846.25
1445.6331866963	6938.25
1448.11512271316	6882
1450.59630047298	6984.5
1453.07672033486	6899.75
1455.55638265748	6976.75
1458.03528779902	6997.75
1460.51343611725	6950
1462.99082796946	6997.5
1465.46746371252	6954.5
1467.94334370285	7049.75
1470.41846829642	6979.25
1472.89283784878	7048.75
1475.36645271503	7026
1477.83931324983	7019.25
1480.31141980743	7050.75
1482.78277274164	7068
1485.25337240583	7018
1487.72321915297	7020.75
1490.19231333557	6998
1492.66065530578	6992.75
1495.12824541525	6983
1497.5950840153	7028.5
1500.06117145678	6950.75
1502.52650809014	6987.25
1504.99109426543	6966.25
1507.45493033227	7031.75
1509.91801663992	6966.25
1512.38035353717	6988
1514.84194137248	7030
1517.30278049386	7057
1519.76287124894	7020.5
1522.22221398497	7027
1524.68080904876	7059
1527.13865678681	7028.25
1529.59575754514	7120.5
1532.05211166945	7166.5
1534.50771950503	7082.75
1536.96258139678	7118.75
1539.41669768924	7227
1541.87006872656	7215.75
1544.32269485252	7231.75
1546.77457641051	7281.25
1549.22571374357	7270.5
1551.67610719434	7389.75
1554.12575710513	7375.75
1556.57466381785	7352
1559.02282767408	7349
1561.47024901499	7350.75
1563.91692818144	7436.25
1566.3628655139	7474
1568.80806135249	7467.25
1571.252516037	7439.75
1573.6962299068	7552.5
1576.13920330099	7503.75
1578.58143655828	7587.25
1581.02293001704	7591
1583.46368401528	7545.5
1585.90369889071	7537
1588.34297498065	7565
1590.7815126221	7605.5
1593.21931215173	7615.5
1595.65637390588	7544.5
1598.09269822053	7556
1600.52828543135	7542.5
1602.96313587367	7569.25
1605.3972498825	7613.25
1607.83062779252	7537
1610.26326993808	7580.5
1612.69517665322	7566.5
1615.12634827165	7628
1617.55678512676	7557.25
1619.98648755163	7506.25
1622.41545587902	7536.5
1624.84369044138	7547.25
1627.27119157085	7561.75
1629.69795959924	7564.25
1632.12399485808	7573.25
1634.54929767859	7551.25
1636.97386839165	7620.25
1639.39770732789	7554
1641.8208148176	7557
1644.24319119078	7627.5
1646.66483677715	7609
1649.0857519061	7642.75
1651.50593690677	7653.75
1653.92539210795	7674.25
1656.3441178382	7656.25
1658.76211442575	7691.75
1661.17938219855	7711.75
1663.59592148428	7735.25
1666.01173261032	7793
1668.42681590377	7879.25
1670.84117169145	7802
1673.25480029991	7760.5
1675.66770205541	7832.5
1678.07987728393	7879.75
1680.49132631119	7976
1682.90204946263	7913.75
1685.31204706342	8008.25
1687.72131943846	8048.5
1690.1298669124	8024.5
1692.53768980957	8077.75
1694.94478845411	8116.5
1697.35116316982	8008.25
1699.75681428031	8083.25
1702.16174210887	8073.25
1704.56594697858	8050.75
1706.96942921222	8070
1709.37218913235	8084.5
1711.77422706125	8036.25
1714.17554332098	8068.75
1716.5761382333	8131.75
1718.97601211977	8066.5
1721.37516530169	8033.5
1723.77359810006	8015.25
1726.17131083572	8066.5
1728.56830382922	8019.75
1730.96457740087	8102.5
1733.36013187075	8067.5
1735.75496755868	8034
1738.14908478428	8064.25
1740.54248386689	8028
1742.93516512565	8110.75
1745.32712887946	8070
1747.71837544697	8098
1750.10890514662	8033.25
1752.49871829661	8038.5
1754.88781521492	8130
1757.27619621929	8164.5
1759.66386162726	8126.25
1762.05081175612	8178.25
1764.43704692297	8095
1766.82256744465	8063.75
1769.20737363782	8186.5
1771.59146581887	8158.75
1773.97484430405	8222.75
1776.35750940932	8251.25
1778.73946145048	8212.25
1781.12070074309	8190.5
1783.50122760249	8269.5
1785.88104234385	8295
1788.26014528209	8307.75
1790.63853673196	8283
1793.01621700796	8339.75
1795.39318642443	8349
1797.76944529549	8335.75
1800.14499393503	8347.5
1802.51983265681	8323
1804.8939617743	8438.25
1807.26738160085	8426.75
1809.64009244957	8409
1812.01209463339	8422.25
1814.38338846504	8520.25
1816.75397425706	8373.75
1819.12385232181	8461.75
1821.49302297142	8469.5
1823.86148651789	8421.5
1826.22924327299	8427.5
1828.59629354831	8475.25
1830.96263765526	8473.75
1833.32827590507	8418.25
1835.69320860877	8425
1838.05743607724	8459.25
1840.42095862113	8474.75
1842.78377655097	8500
1845.14589017707	8445.25
1847.50729980956	8435.25
1849.86800575843	8451.25
1852.22800833346	8491.5
1854.58730784427	8477
1856.94590460032	8545.5
1859.30379891087	8528.25
1861.66099108503	8523.75
1864.01748143175	8556
1866.37327025978	8591
1868.72835787773	8575
1871.08274459403	8629.5
1873.43643071697	8627.75
1875.78941655464	8694.75
1878.14170241498	8565.25
1880.4932886058	8769.75
1882.84417543469	8774.25
1885.19436320915	8681
1887.54385223646	8679.5
1889.89264282378	8790.5
1892.24073527809	8782.5
1894.58812990625	8838.25
1896.93482701493	8921.5
1899.28082691067	8886.5
1901.62612989984	8906.5
1903.97073628868	8943
1906.31464638326	8983.5
1908.6578604895	9005
1911.00037891321	9037.75
1913.34220196	9086.75
1915.68332993537	9095.25
1918.02376314468	9106.25
1920.36350189311	9073.25
1922.70254648573	9125.5
1925.04089722744	9124.5
1927.37855442303	9112.75
1929.71551837715	9072
1932.05178939426	9131.75
1934.38736777876	9221.75
1936.72225383484	9083.75
1939.0564478666	9250.25
1941.38995017799	9132.75
1943.72276107283	9209.25
1946.05488085479	9141
1948.38630982744	9117.75
1950.71704829419	9269.5
1953.04709655832	9094
1955.376454923	9156.5
1957.70512369126	9103
1960.03310316599	9167.75
1962.36039364999	9135.5
1964.68699544589	9132.25
1967.01290885622	9215.75
1969.33813418338	9211
1971.66267172965	9167.75
1973.98652179718	9258.25
1976.309684688	9261.75
1978.63216070402	9278.5
1980.95395014705	9401.5
1983.27505331873	9262.5
1985.59547052063	9328
1987.9152020542	9313.5
1990.23424822074	9374.5
1992.55260932146	9346.25
1994.87028565746	9379.25
1997.18727752968	9439.75
1999.503585239	9448.25
2001.81920908618	9434.25
2004.13414937184	9442
2006.44840639651	9617.5
2008.7619804606	9563
2011.07487186442	9631.75
2013.38708090815	9718.75
2015.6986078919	9700.75
2018.00945311564	9716.25
2020.31961687923	9679.25
2022.62909948246	9762.25
2024.93790122498	9789
2027.24602240636	9877
2029.55346332604	9847.5
2031.86022428337	9837
2034.16630557761	9899.75
2036.47170750791	9898.5
2038.77643037331	10002.25
2041.08047447275	9953.5
2043.38384010509	9858.75
2045.68652756907	9951.25
2047.98853716335	9936.5
2050.28986918648	9936.25
2052.59052393692	9931
2054.89050171302	10008.25
2057.18980281306	10075.25
2059.4884275352	10099.5
2061.78637617753	9975
2064.08364903802	10006.25
2066.38024641457	10003.75
2068.67616860497	10065
2070.97141590694	9977.25
2073.26598861809	10033
2075.55988703595	9998.5
2077.85311145796	10005
2080.14566218145	10044.25
2082.43753950371	10062.75
2084.72874372188	10056.25
2087.01927513307	10020.5
2089.30913403428	10089
2091.59832072241	10084.75
2093.88683549429	10076.5
2096.17467864666	10096.75
2098.46185047619	10161.5
2100.74835127944	10155.5
2103.03418135292	10228.75
2105.31934099303	10152.5
2107.6038304961	10216.5
2109.88765015838	10228.5
2112.17080027602	10243.5
2114.45328114513	10341.5
2116.7350930617	10262
2119.01623632165	10302.5
2121.29671122085	10270.5
2123.57651805505	10380.25
2125.85565711996	10370
2128.13412871117	10392
2130.41193312424	10479.25
2132.68907065462	10502.25
2134.96554159771	10526.75
2137.24134624881	10503.25
2139.51648490317	10540.25
2141.79095785593	10544.75
2144.0647654022	10584.25
2146.33790783698	10570.75
2148.61038545524	10560
2150.88219855182	10656
2153.15334742154	10719.25
2155.42383235911	10730.25
2157.6936536592	10754.5
2159.9628116164	10745.25
2162.23130652522	10727
2164.49913868011	10789
2166.76630837544	10710.75
2169.03281590552	10783
2171.2986615646	10826.25
2173.56384564685	10805.5
2175.82836844637	10821.75
2178.0922302572	10840
2180.35543137332	10844.25
2182.61797208862	10880.25
2184.87985269695	10843.25
2187.14107349208	10865.25
2189.40163476773	10934.25
2191.66153681753	10946.5
2193.92077993507	10914.25
2196.17936441386	10949.75
2198.43729054735	10950.25
2200.69455862894	11027.75
2202.95116895194	10940
2205.20712180962	10979
2207.46241749519	10999.75
2209.71705630179	11049.25
2211.97103852248	10960
2214.2243644503	11024.25
2216.47703437819	11023
2218.72904859905	10941.25
2220.98040740571	11070.75
2223.23111109095	11035.25
2225.4811599475	11111.75
2227.73055426799	11086.25
2229.97929434504	11072.75
2232.22738047118	11082.75
2234.47481293889	11140.75
2236.72159204058	11157.5
2238.96771806864	11217.25
2241.21319131536	11123
2243.458012073	11046.25
2245.70218063374	11229.5
2247.94569728973	11273.5
2250.18856233304	11133.25
2252.4307760557	11134
2254.67233874967	11235.75
2256.91325070687	11209
2259.15351221915	11234
2261.39312357831	11275.5
2263.63208507611	11177.5
2265.87039700422	11321.75
2268.1080596543	11293.75
2270.34507331792	11337.25
2272.5814382866	11279.75
2274.81715485183	11327.5
2277.05222330502	11327
2279.28664393755	11376
2281.52041704072	11374.25
2283.75354290581	11420.5
2285.98602182401	11411.25
2288.21785408648	11439.5
2290.44903998434	11399.75
2292.67957980862	11502.5
2294.90947385033	11446.75
2297.1387224004	11448.25
2299.36732574975	11527
2301.59528418921	11566.5
2303.82259800958	11513.5
2306.04926750158	11546.75
2308.27529295593	11499
2310.50067466325	11568.25
2312.72541291412	11558.75
2314.9495079991	11613.5
2317.17296020866	11592.5
2319.39576983323	11689.25
2321.61793716322	11621
2323.83946248894	11578.5
2326.06034610069	11643
2328.28058828871	11655.75
2330.50018934317	11606.25
2332.7191495542	11628
2334.93746921192	11612.75
2337.15514860633	11677
2339.37218802743	11683.75
2341.58858776516	11642
2343.80434810941	11699.5
2346.01946935001	11734.75
2348.23395177675	11784.5
2350.44779567939	11688
2352.66100134759	11653.75
2354.87356907101	11691.5
2357.08549913925	11704.25
2359.29679184185	11626.25
2361.50744746829	11843.5
2363.71746630804	11804.75
2365.92684865048	11613.25
2368.13559478499	11739
2370.34370500083	11697.25
2372.55117958727	11701.75
2374.75801883352	11711
2376.96422302874	11689.5
2379.16979246202	11602.75
2381.37472742243	11743
2383.57902819898	11784
2385.78269508063	11703.25
2387.98572835629	11741
2390.18812831482	11705.25
2392.38989524505	11700
2394.59102943573	11706.5
2396.79153117559	11711.75
2398.9914007533	11673.5
2401.19063845748	11783.5
2403.38924457672	11651.5
2405.58721939951	11669.75
2407.78456321435	11613.25
2409.98127630966	11647.25
2412.17735897382	11614.25
2414.37281149517	11738.25
2416.56763416198	11676.25
2418.76182726249	11756.75
2420.95539108487	11646
2423.14832591726	11712
2425.34063204776	11666.5
2427.53230976439	11649.75
2429.72335935513	11682.75
2431.91378110795	11623.5
2434.10357531071	11627
2436.29274225125	11724.75
2438.48128221739	11613.5
2440.66919549683	11561
2442.8564823773	11649.5
2445.04314314641	11654.75
2447.22917809176	11661.25
2449.4145875009	11699.75
2451.59937166131	11631.25
2453.78353086044	11615.25
2455.96706538568	11600.75
2458.14997552436	11677.75
2460.33226156379	11588
2462.51392379119	11612.75
2464.69496249376	11533
2466.87537795862	11566.75
2469.05517047288	11484
2471.23434032357	11651.75
2473.41288779767	11612.25
2475.59081318211	11509.75
2477.76811676378	11502.75
2479.9447988295	11500.25
2482.12085966605	11497.5
2484.29629956016	11565.25
2486.4711187985	11493
2488.64531766769	11589.75
2490.8188964543	11584.75
2492.99185544484	11464.75
2495.16419492579	11558
2497.33591518353	11546.5
2499.50701650444	11470
2501.67749917482	11551
2503.84736348091	11496
2506.01660970891	11552
2508.18523814496	11551
2510.35324907514	11550.25
2512.52064278551	11552.5
2514.68741956201	11621.75
2516.85357969058	11632.5
2519.01912345709	11749
2521.18405114735	11597.5
2523.34836304711	11598.5
2525.51205944208	11583
2527.6751406179	11619.75
2529.83760686016	11679.25
2531.99945845439	11631.5
2534.16069568606	11735.25
2536.3213188406	11715.25
2538.48132820336	11617.25
2540.64072405965	11704.75
2542.79950669471	11680.75
2544.95767639373	11829.25
2547.11523344184	11661.5
2549.27217812411	11664.75
2551.42851072555	11741
2553.58423153111	11705
2555.73934082569	11624.75
2557.89383889412	11709.5
2560.04772602118	11716
2562.20100249158	11637
2564.35366858996	11578.75
2566.50572460093	11547.5
2568.65717080901	11571.25
2570.80800749867	11570.5
2572.95823495433	11640
2575.10785346031	11534.5
2577.25686330093	11460.75
2579.40526476038	11400.75
2581.55305812282	11476.5
2583.70024367237	11415.75
2585.84682169303	11452.5
2587.99279246879	11490
2590.13815628354	11395.25
2592.28291342112	11400
2594.42706416531	11413.25
2596.5706087998	11507
2598.71354760826	11550.5
2600.85588087425	11449.5
2602.99760888127	11472.25
2605.13873191278	11385
2607.27925025214	11377.75
2609.41916418269	11408.25
2611.55847398764	11455.75
2613.69717995017	11416.75
2615.83528235339	11517.5
2617.97278148034	11477.5
2620.10967761398	11495.5
2622.2459710372	11466.25
2624.38166203284	11491.75
2626.51675088365	11506.25
2628.65123787231	11431.75
2630.78512328145	11484.75
2632.9184073936	11466.5
2635.05109049124	11492.25
2637.18317285676	11493.25
2639.31465477248	11592.25
2641.44553652067	11540.75
2643.5758183835	11482.75
2645.70550064309	11506.5
2647.83458358144	11515.75
2649.96306748053	11650.25
2652.09095262223	11512.25
2654.21823928836	11590.25
2656.34492776063	11532.5
2658.47101832071	11494
2660.59651125015	11652.25
2662.72140683047	11593.75
2664.84570534309	11502.75
2666.96940706934	11515.25
2669.0925122905	11506
2671.21502128773	11568.25
2673.33693434215	11571.25
2675.45825173479	11652.25
2677.57897374658	11505.75
2679.69910065839	11637.25
2681.818632751	11541.75
2683.93757030511	11568.25
2686.05591360133	11494.75
2688.17366292021	11546.5
2690.29081854218	11524.5
2692.40738074762	11475.5
2694.52334981681	11521
2696.63872602995	11481.5
2698.75350966713	11614.75
2700.86770100841	11575.5
2702.98130033371	11566.25
2705.09430792289	11447.5
2707.20672405571	11531.75
2709.31854901185	11678.5
2711.42978307091	11539.25
2713.54042651238	11574.75
2715.65047961567	11639.5
2717.7599426601	11542
2719.86881592491	11577
2721.97709968924	11579
2724.08479423213	11564.5
2726.19189983255	11557.25
2728.29841676934	11602.75
2730.4043453213	11644.5
2732.5096857671	11650
2734.61443838532	11595.5
2736.71860345444	11574.5
2738.82218125286	11599.25
2740.92517205889	11627.25
2743.02757615072	11621
2745.12939380646	11570.5
2747.23062530411	11629.5
2749.33127092159	11731.75
2751.4313309367	11529.5
2753.53080562716	11627.5
2755.62969527058	11703
2757.72800014448	11661
2759.82572052625	11710.25
2761.92285669323	11611.5
2764.0194089226	11665.5
2766.11537749147	11617.5
2768.21076267686	11757.75
2770.30556475566	11600
2772.39978400465	11690.75
2774.49342070054	11664.5
2776.58647511991	11730.75
2778.67894753923	11714.75
2780.77083823487	11756
2782.8621474831	11629.25
2784.95287556007	11619.5
2787.04302274184	11589.25
2789.13258930433	11675
2791.22157552338	11623
2793.30998167471	11593.5
2795.39780803392	11718
2797.4850548765	11665.75
2799.57172247786	11628
2801.65781111324	11661.25
2803.74332105781	11686
2805.82825258661	11693.5
2807.91260597457	11690
2809.9963814965	11595.5
2812.07957942711	11752.5
2814.16220004096	11582.75
2816.24424361252	11631.5
2818.32571041614	11695.5
2820.40660072604	11673.75
2822.48691481631	11770
2824.56665296098	11675
2826.64581543388	11815.75
2828.72440250876	11813
2830.80241445925	11750
2832.87985155885	11899.75
2834.95671408093	11934
2837.03300229875	12029.25
2839.10871648544	12154.25
2841.18385691399	12338.5
2843.25842385729	12506.25
2845.33241758808	12539
2847.40583837898	12724.5
2849.4786865025	12818.75
2851.550962231	12801.5
2853.6226658367	12850.25
2855.69379759173	12617
2857.76435776806	12615
2859.83434663753	12504.5
2861.90376447184	12479.75
2863.97261154259	12448.75
2866.0408881212	12436.25
2868.10859447901	12418
2870.17573088717	12498.25
2872.24229761673	12479.5
2874.30829493859	12538
2876.37372312352	12540.25
2878.43858244215	12757.75
2880.50287316496	12797.75
2882.56659556231	12880.75
2884.62974990439	12832.75
2886.69233646129	12743.75
2888.75435550293	12734.5
2890.81580729909	12759.75
2892.87669211941	12642.5
2894.93701023339	12694
2896.99676191039	12660
2899.05594741961	12679.5
2901.1145670301	12659.75
2903.1726210108	12595
2905.23010963045	12550
2907.28703315768	12474
2909.34339186096	12537.75
2911.39918600861	12610.75
2913.45441586879	12430.25
2915.50908170952	12551
2917.56318379867	12483
2919.61672240395	12528.5
2921.66969779291	12508.75
2923.72211023295	12502.5
2925.77395999134	12505.25
2927.82524733515	12508
2929.87597253132	12552.25
2931.92613584663	12517
2933.97573754769	12450.5
2936.02477790097	12299.5
2938.07325717276	12247.5
2940.1211756292	12197.75
2942.16853353626	12225.25
2944.21533115976	12216.25
2946.26156876536	12089.5
2948.30724661853	12041.75
2950.3523649846	12116.75
2952.39692412872	11991
2954.44092431587	12027.75
2956.48436581089	11997
2958.52724887843	11907.25
2960.56957378296	11961.5
2962.6113407888	12097.25
2964.65255016011	12006
2966.69320216083	12021.75
2968.73329705479	11891.25
2970.77283510559	11922
2972.81181657671	11936.25
2974.8502417314	11952
2976.88811083279	11961.75
2978.92542414378	12009
2980.96218192713	12009
2982.99838444541	11959.5
2985.034031961	12023.25
2987.06912473612	12067.25
2989.1036630328	11994
2991.13764711288	12108.25
2993.17107723804	11983
2995.20395366974	12101.75
2997.23627666931	12192
2999.26804649782	12107.75
3001.29926341624	12195.25
3003.32992768528	12131.5
3005.3600395655	12206.5
3007.38959931726	12300.75
3009.41860720076	12255.5
3011.44706347595	12299.75
3013.47496840263	12262.75
3015.50232224041	12270.5
3017.5291252487	12423.75
3019.5553776867	12235.75
3021.58107981344	12377.5
3023.60623188773	12411
3025.63083416822	12481.75
3027.65488691331	12480.75
3029.67839038125	12490.5
3031.70134483007	12393.5
3033.72375051759	12498.75
3035.74560770144	12471
3037.76691663907	12486.75
3039.78767758768	12571.25
3041.80789080431	12467.25
3043.82755654577	12553.5
3045.84667506867	12468.75
3047.8652466294	12529.5
3049.88327148418	12575.25
3051.90074988899	12485.75
3053.91768209961	12594.25
3055.9340683716	12492
3057.94990896033	12514.75
3059.96520412095	12541
3061.97995410838	12543
3063.99415917734	12533.25
3066.00781958234	12513.75
3068.02093557766	12534
3070.03350741738	12412.75
3072.04553535535	12509.5
3074.05701964521	12476.25
3076.06796054036	12508.75
3078.078358294	12470.25
3080.08821315912	12575
3082.09752538846	12603
3084.10629523454	12454.25
3086.11452294967	12495.5
3088.12220878592	12540
3090.12935299515	12524.75
3092.13595582898	12467
3094.1420175388	12495
3096.14753837579	12475.75
3098.15251859088	12586.5
3100.15695843477	12500.25
3102.16085815793	12515.25
3104.16421801061	12438.75
3106.16703824282	12501.25
3108.16931910432	12587.25
3110.17106084464	12533.5
3112.17226371308	12640.5
3114.17292795872	12601.5
3116.17305383034	12649.75
3118.17264157657	12569.75
3120.17169144571	12577.25
3122.17020368587	12576.75
3124.16817854492	12584.25
3126.16561627044	12612.75
3128.16251710982	12728.75
3130.15888131017	12674.75
3132.15470911837	12732.75
3134.15000078104	12693.25
3136.14475654455	12741
3138.13897665502	12750.5
3140.13266135835	12758.5
3142.12581090014	12684.75
3144.11842552577	12808.25
3146.11050548036	12837.25
3148.10205100875	12889.75
3150.09306235557	12882.25
3152.08353976515	12764.75
3154.07348348158	12622.75
3156.06289374869	12862.25
3158.05177081006	12708.5
3160.04011490899	12800
3162.02792628852	12859.25
3164.01520519145	12721
3166.00195186029	12795.25
3167.98816653728	12819.5
3169.97384946442	12803.5
3171.95900088344	12792.25
3173.94362103577	12892.5
3175.92771016259	12897
3177.91126850484	12913.25
3179.89429630312	12859.5
3181.87679379782	12779.25
3183.85876122903	12835.5
3185.84019883657	12922.25
3187.82110685997	12919
3189.80148553851	12836
3191.78133511116	12943
3193.76065581664	12909
3195.73944789337	12826.25
3197.7177115795	12874
3199.6954471129	12929.25
3201.67265473114	12856.25
3203.64933467153	12819.25
3205.62548717107	12951.25
3207.60111246648	12937.25
3209.57621079421	12897.25
3211.55078239041	12944
3213.52482749093	12869.5
3215.49834633133	12998
3217.4713391469	13067.25
3219.44380617262	12959
3221.41574764317	13025
3223.38716379296	12950.5
3225.35805485607	13117.25
3227.32842106631	13027.5
3229.29826265718	13091.25
3231.26757986187	13121.75
3233.2363729133	13109
3235.20464204405	13165.25
3237.17238748643	13144.5
3239.13960947243	13173
3241.10630823374	13261
3243.07248400174	13179
3245.03813700748	13366.25
3247.00326748177	13256
3248.96787565503	13153.5
3250.93196175742	13225.75
3252.89552601877	13277.5
3254.8585686686	13239.25
3256.82108993612	13343
3258.78309005022	13330.25
3260.74456923948	13262
3262.70552773215	13331.5
3264.66596575617	13375.25
3266.62588353916	13222.25
3268.58528130843	13259
3270.54415929094	13175.25
3272.50251771336	13178.5
3274.46035680201	13286.25
3276.4176767829	13360
3278.37447788171	13219.25
3280.33076032379	13390.75
3282.28652433416	13339
3284.24177013751	13284.25
3286.1964979582	13319.25
3288.15070802027	13366
3290.10440054741	13354.5
3292.05757576298	13203.5
3294.01023389001	13266
3295.96237515119	13345
3297.91399976887	13343.5
3299.86510796506	13380.25
3301.81569996142	13410.75
3303.76577597932	13322.75
3305.7153362397	13325.25
3307.66438096324	13361.25
3309.61291037024	13310.5
3311.56092468064	13314
3313.50842411404	13251.25
3315.45540888971	13283.75
3317.40187922656	13146.75
3319.34783534315	13327
3321.29327745768	13330.5
3323.23820578801	13125.5
3325.18262055164	13224.75
3327.1265219657	13200.25
3329.06991024699	13328
3331.01278561194	13225.5
3332.95514827662	13176.5
3334.89699845674	13280
3336.83833636766	13301
3338.77916222434	13099
3340.71947624143	13217.5
3342.65927863317	13204.75
3344.59856961346	13155.5
3346.53734939584	13246.25
3348.47561819344	13186
3350.41337621906	13114.75
3352.35062368513	13216.25
3354.28736080368	13192
3356.22358778637	13215.25
3358.15930484452	13216.5
3360.09451218904	13188
3362.02921003047	13249
3363.96339857898	13301
3365.89707804436	13234.5
3367.83024863602	13269.25
3369.76291056299	13174.5
3371.69506403389	13250.75
3373.62670925699	13255.5
3375.55784644016	13308.75
3377.4884757909	13248.75
3379.41859751629	13303.75
3381.34821182305	13290.25
3383.27731891749	13314.75
3385.20591900555	13353
3387.13401229276	13384.25
3389.06159898426	13349.25
3390.9886792848	13446.75
3392.91525339872	13451.5
3394.84132152998	13413
3396.76688388213	13381.25
3398.69194065833	13373.75
3400.61649206133	13358.5
3402.54053829348	13459
3404.46407955672	13397.25
3406.3871160526	13383
3408.30964798225	13460
3410.23167554639	13456.75
3412.15319894535	13510.25
3414.07421837904	13392
3415.99473404695	13514
3417.91474614817	13406.75
3419.83425488136	13515
3421.75326044479	13445.75
3423.67176303631	13417.25
3425.58976285332	13518.75
3427.50726009282	13483.5
3429.42425495143	13392
3431.34074762528	13568
3433.25673831012	13378.5
3435.17222720127	13404.75
3437.08721449362	13347
3439.00170038164	13237.5
3440.91568505936	13366
3442.82916872039	13268.5
3444.74215155791	13383
3446.65463376468	13291.75
3448.566615533	13323.75
3450.47809705476	13308
3452.3890785214	13296.75
3454.29956012393	13347.75
3456.20954205293	13352
3458.11902449853	13262
3460.02800765041	13265.25
3461.93649169784	13225
3463.84447682962	13195.5
3465.75196323412	13284.75
3467.65895109925	13208.5
3469.56544061249	13231
3471.47143196086	13244.25
3473.37692533093	13219.5
3475.28192090884	13233.25
3477.18641888026	13301
3479.09041943039	13268.5
3480.99392274402	13218
3482.89692900545	13175
3484.79943839853	13159.5
3486.70145110666	13190.75
3488.60296731277	13174.5
3490.50398719933	13116.5
3492.40451094836	13059.25
3494.30453874141	13128.25
3496.20407075956	13208.5
3498.10310718342	13161.75
3500.00164819315	13101.75