201.866871357051	1370.5
204.754250281454	1385.75
207.640596790938	1374.75
210.525911876299	1384
213.410196525689	1398.25
216.293451724508	1390.75
219.175678455485	1357.25
222.056877698662	1403
224.937050431388	1391.25
227.816197628363	1395
230.694320261602	1396.25
233.571419300504	1394.75
236.447495711764	1396
239.322550459507	1402.25
242.196584505182	1403.5
245.069598807626	1414
247.941594323078	1404.25
250.812572005154	1435.25
253.682532804884	1415.75
256.551477670699	1443
259.419407548456	1430.5
262.286323381439	1453.5
265.152226110364	1431.75
268.017116673389	1431.75
270.880996006115	1449.25
273.743865041622	1436.5
276.605724710436	1452.75
279.466575940562	1448
282.326419657496	1449.25
285.1852567842	1455.5
288.043088241157	1473.75
290.899914946349	1446
293.75573781526	1467.75
296.610557760898	1464.5
299.464375693817	1460
302.317192522078	1462.5
305.169009151297	1440
308.019826484655	1470.25
310.86964542287	1478.75
313.718466864233	1484.5
316.566291704614	1473.5
319.413120837457	1485.25
322.258955153804	1479
325.103795542291	1465.25
327.947642889128	1492
330.79049807819	1489.5
333.632361990927	1488.75
336.473235506444	1476.25
339.31311950145	1497.75
342.152014850322	1486.5
344.989922425062	1486.75
347.826843095354	1498.5
350.662777728528	1507.25
353.497727189577	1504.5
356.331692341195	1523.75
359.164674043732	1514
361.996673155267	1520.75
364.827690531536	1522.25
367.65772702602	1526
370.486783489887	1550.25
373.314860772047	1526.25
376.14195971912	1549.25
378.968081175466	1533.5
381.793225983212	1540.25
384.617394982201	1547.75
387.44058901005	1527.5
390.262808902131	1542.25
393.08405549161	1546.5
395.904329609395	1542.5
398.723632084213	1550
401.541963742569	1566.25
404.359325408779	1573.75
407.175717904938	1570.75
409.991142050982	1563
412.805598664665	1557.25
415.619088561551	1547.5
418.43161255505	1528
421.243171456415	1577.25
424.053766074758	1559
426.863397217017	1577.5
429.672065688024	1582.5
432.479772290455	1584.25
435.286517824879	1578.5
438.092303089736	1586
440.897128881359	1579.5
443.70099599399	1564.75
446.503905219761	1597.25
449.305857348711	1586
452.106853168796	1596.5
454.906893465919	1576.5
457.705979023885	1569
460.504110624439	1575.25
463.3012890473	1576
466.097515070087	1579
468.892789468424	1577.75
471.687113015869	1582.25
474.48048648395	1578.75
477.272910642198	1591.75
480.064386258109	1579.25
482.854914097159	1609.5
485.644494922839	1598.75
488.433129496636	1599.75
491.220818578047	1607.75
494.007562924584	1598.25
496.793363291785	1606.75
499.578220433217	1610.25
502.362135100473	1610
505.145108043209	1592.5
507.927140009098	1635.75
510.708231743909	1626.75
513.488383991433	1638
516.267597493556	1633.75
519.04587299022	1615.25
521.82321121946	1633.5
524.599612917398	1634.5
527.375078818233	1640
530.149609654287	1640.25
532.923206155967	1623
535.695869051804	1627.75
538.467599068448	1636.5
541.238396930665	1646.25
544.008263361364	1641.5
546.777199081578	1612.5
549.545204810493	1629.75
552.312281265436	1630
555.078429161898	1636.25
557.843649213533	1635
560.607942132156	1635.25
563.371308627753	1627
566.133749408495	1630.25
568.895265180756	1648.5
571.655856649064	1669.75
574.415524516189	1651.5
577.174269483075	1653
579.932092248884	1661
582.688993510994	1650.25
585.444973965023	1651.25
588.200034304795	1683
590.95417522237	1693.75
593.70739740807	1661
596.459701550433	1671
599.21108833628	1660
601.961558450668	1672.5
604.711112576933	1659.5
607.459751396673	1677
610.207475589748	1676.5
612.954285834338	1671.5
615.700182806879	1672.25
618.445167182101	1677
621.189239633055	1648.5
623.932400831087	1665.5
626.674651445839	1669.5
629.415992145303	1670.25
632.156423595745	1657.25
634.895946461813	1660.5
637.634561406449	1694.25
640.37226909096	1671.75
643.109070174978	1693.25
645.844965316508	1671.5
648.579955171888	1696.5
651.314040395846	1667.75
654.047221641456	1710.5
656.779499560176	1689.5
659.510874801828	1689.25
662.241348014642	1696.75
664.97091984524	1699
667.699590938606	1718.75
670.427361938164	1729.5
673.15423348573	1716
675.880206221526	1723.5
678.605280784206	1719
681.329457810829	1719.5
684.05273793692	1731
686.775121796389	1703.75
689.49661002163	1745.75
692.217203243454	1711.5
694.936902091144	1729
697.655707192425	1726
700.373619173493	1720.5
703.09063865901	1732.25
705.806766272093	1719.5
708.522002634378	1736.75
711.236348365946	1727
713.94980408538	1744.25
716.662370409762	1703.25
719.374047954676	1723.5
722.08483733419	1729.5
724.794739160909	1735.5
727.503754045949	1761.75
730.21188259892	1756.5
732.919125427998	1731.25
735.625483139855	1739.5
738.330956339723	1762
741.035545631374	1762.75
743.739251617106	1744.75
746.44207489779	1767.25
749.144016072852	1774.75
751.845075740272	1811.5
754.545254496603	1773
757.244552936976	1804
759.94297165508	1793
762.640511243222	1780.75
765.337172292249	1752.5
768.032955391649	1786
770.727861129482	1796
773.421890092413	1794
776.11504286572	1777
778.807320033298	1771
781.49872217765	1804.25
784.18924987991	1783.25
786.87890371984	1793
789.567684275826	1802
792.255592124908	1792.75
794.94262784276	1793
797.628792003703	1797.5
800.314085180715	1804.5
802.998507945427	1809.75
805.682060868145	1836.5
808.364744517821	1843.75
811.046559462105	1863.75
813.727506267311	1845.5
816.407585498422	1856.5
819.08679771913	1827.25
821.765143491822	1844
824.442623377563	1847.75
827.119237936127	1829
829.794987726003	1846.5
832.469873304377	1848.5
835.143895227167	1856.75
837.817054048985	1889.5
840.489350323205	1869.75
843.160784601892	1867
845.831357435894	1889
848.501069374739	1874.25
851.169920966753	1868.5
853.837912758987	1890.25
856.505045297232	1880.25
859.171319126071	1890.75
861.836734788823	1923.25
864.501292827579	1907
867.164993783208	1898.75
869.827838195361	1869.75
872.489826602454	1917.5
875.150959541701	1916.25
877.811237549104	1920.5
880.470661159456	1930.75
883.129230906357	1896.5
885.786947322205	1904.75
888.443810938206	1895.5
891.099822284385	1917
893.754981889586	1936
896.409290281452	1934.5
899.062747986485	1941
901.715355529999	1947.25
904.367113436154	1953.5
907.01802222793	1971.25
909.668082427172	1975
912.317294554574	1960.75
914.965659129659	1995.75
917.613176670835	1968.5
920.259847695364	1996.25
922.90567271936	1979
925.550652257825	1985.75
928.194786824621	2004.5
930.838076932512	2020
933.480523093109	2010
936.122125816953	2025
938.762885613447	2024
941.402802990899	2045.5
944.041878456523	2040
946.680112516428	2028
949.31750567563	2049.25
951.954058438081	2075
954.589771306633	2054.75
957.224644783048	2071.75
959.858679368044	2058.75
962.491875561238	2080.5
965.12423386121	2065.5
967.75575476545	2098
970.386438770423	2087.5
973.016286371501	2105.25
975.645298063046	2102
978.273474338355	2096.5
980.900815689674	2126
983.527322608243	2106
986.152995584245	2112
988.777835106834	2144.5
991.401841664148	2114
994.025015743307	2133.25
996.647357830407	2116
999.268868410534	2134
1001.88954796777	2153
1004.50939698518	2162.75
1007.12841594484	2159.25
1009.74660532783	2180
1012.36396561423	2192.5
1014.98049728314	2186
1017.59620081267	2197.25
1020.21107667995	2224.75
1022.82512536112	2216.25
1025.43834733138	2213.75
1028.05074306493	2244.5
1030.66231303501	2253.25
1033.27305771392	2272.25
1035.88297757299	2279
1038.49207308257	2284.75
1041.10034471211	2258
1043.70779293008	2289.25
1046.31441820402	2284.5
1048.92022100052	2311.5
1051.52520178525	2334.5
1054.12936102295	2334.75
1056.73269917742	2323
1059.33521671154	2326.5
1061.93691408729	2366.75
1064.53779176571	2349
1067.13785020694	2358.5
1069.73708987022	2354
1072.33551121386	2367.25
1074.93311469528	2380.75
1077.52990077103	2403.5
1080.12586989674	2374.75
1082.72102252714	2422.5
1085.31535911611	2406.5
1087.90888011663	2409
1090.50158598078	2438.5
1093.09347715979	2446
1095.68455410403	2445.25
1098.27481726296	2434.25
1100.86426708523	2473.75
1103.45290401857	2468.5
1106.04072850991	2502.75
1108.6277410053	2510.25
1111.21394194993	2493.75
1113.79933178816	2572
1116.3839109635	2549.5
1118.96767991862	2577.75
1121.55063909539	2604
1124.13278893477	2610
1126.71412987696	2652.75
1129.29466236132	2632.5
1131.87438682637	2625
1134.45330370982	2627.75
1137.03141344858	2646.5
1139.60871647872	2676.25
1142.18521323554	2683.25
1144.7609041535	2740.75
1147.33578966629	2730.25
1149.90987020676	2725
1152.48314620702	2753.25
1155.05561809835	2777.5
1157.62728631125	2799.75
1160.19815127545	2803.75
1162.76821341988	2823.75
1165.33747317271	2819.25
1167.90593096133	2835.5
1170.47358721235	2845.75
1173.04044235163	2859.25
1175.60649680425	2859
1178.17175099454	2897
1180.73620534607	2905.75
1183.29986028165	2882
1185.86271622336	2907.25
1188.42477359249	2936
1190.98603280964	2940.5
1193.54649429462	2925.5
1196.10615846653	2964.5
1198.66502574372	2953.5
1201.22309654385	2984
1203.78037128378	3007.25
1206.33685037971	2975
1208.89253424709	3005
1211.44742330063	3037.25
1214.00151795438	3057.5
1216.55481862163	3055.25
1219.10732571497	3107
1221.65903964631	3120.25
1224.20996082683	3139.25
1226.760089667	3148.5
1229.30942657664	3177.5
1231.85797196483	3234.25
1234.40572623998	3211.25
1236.95268980981	3282.75
1239.49886308136	3277.5
1242.04424646098	3305.75
1244.58884035435	3347
1247.13264516647	3387
1249.67566130166	3420.5
1252.21788916358	3440.75
1254.75932915524	3458
1257.29998167896	3503.5
1259.83984713639	3485
1262.37892592857	3543.25
1264.91721845586	3602.75
1267.45472511795	3657
1269.9914463139	3609
1272.52738244213	3685.75
1275.0625339004	3700.75
1277.59690108587	3705.75
1280.130484395	3769.75
1282.66328422367	3765.25
1285.19530096712	3827.5
1287.72653501993	3841
1290.25698677608	3864.5
1292.78665662894	3969
1295.31554497125	3939
1297.8436521951	3997.25
1300.37097869203	3986.5
1302.89752485292	4068
1305.42329106805	4031.75
1307.94827772713	4112.25
1310.47248521921	4108.5
1312.99591393279	4186.5
1315.51856425575	4243.25
1318.04043657536	4257.5
1320.56153127836	4293.25
1323.08184875083	4361
1325.6013893783	4384.25
1328.12015354572	4433.75
1330.63814163744	4532
1333.15535403727	4558.25
1335.67179112839	4595
1338.18745329347	4660.5
1340.70234091454	4720.75
1343.21645437314	4725.5
1345.72979405019	4790.25
1348.24236032607	4845
1350.75415358059	4898
1353.26517419303	4937
1355.7754225421	4960.5
1358.28489900594	5075.5
1360.79360396218	5166
1363.30153778787	5142.25
1365.80870085955	5188.75
1368.31509355319	5247
1370.82071624424	5282
1373.32556930762	5342
1375.8296531177	5319
1378.33296804832	5388.25
1380.83551447282	5394.25
1383.33729276399	5418.75
1385.83830329408	5447.75
1388.33854643489	5546
1390.83802255762	5555.75
1393.33673203301	5593.5
1395.83467523128	5633.5
1398.33185252211	5675
1400.82826427471	5713.5
1403.32391085777	5751.75
1405.81879263947	5865.25
1408.31290998752	5891.25
1410.80626326908	5907.25
1413.29885285087	5990.25
1415.79067909909	6020.25
1418.28174237944	6132
1420.77204305717	6146.75
1423.26158149702	6230.5
1425.75035806323	6320.75
1428.2383731196	6356.5
1430.72562702942	6385.75
1433.21212015554	6463.5
1435.69785286028	6570.25
1438.18282550555	6724.5
1440.66703845275	6717
1443.15049206284	6807.25
1445.6331866963	6937.25
1448.11512271316	6971.5
1450.59630047298	7047.75
1453.07672033486	7160.75
1455.55638265748	7187.75
1458.03528779902	7288.5
1460.51343611725	7378
1462.99082796946	7415.25
1465.46746371252	7460.75
1467.94334370285	7603.75
1470.41846829642	7596.75
1472.89283784878	7662.5
1475.36645271503	7790
1477.83931324983	7785.5
1480.31141980743	7902
1482.78277274164	7975.5
1485.25337240583	7997.75
1487.72321915297	8043.25
1490.19231333557	8088
1492.66065530578	8126.25
1495.12824541525	8226.75
1497.5950840153	8262
1500.06117145678	8356.75
1502.52650809014	8423
1504.99109426543	8463.5
1507.45493033227	8570.5
1509.91801663992	8538
1512.38035353717	8671
1514.84194137248	8745.75
1517.30278049386	8923.5
1519.76287124894	9001.25
1522.22221398497	8948.75
1524.68080904876	9055
1527.13865678681	9097.5
1529.59575754514	9322.25
1532.05211166945	9485.25
1534.50771950503	9444.25
1536.96258139678	9585
1539.41669768924	9643.75
1541.87006872656	9831.25
1544.32269485252	9819.75
1546.77457641051	9951.5
1549.22571374357	10113.75
1551.67610719434	10247.5
1554.12575710513	10344.75
1556.57466381785	10333.25
1559.02282767408	10472.25
1561.47024901499	10505
1563.91692818144	10683.5
1566.3628655139	10806.75
1568.80806135249	10852.5
1571.252516037	10922
1573.6962299068	11066
1576.13920330099	11180.5
1578.58143655828	11343
1581.02293001704	11446.5
1583.46368401528	11506
1585.90369889071	11561
1588.34297498065	11711.75
1590.7815126221	11836.75
1593.21931215173	11856.75
1595.65637390588	11990.75
1598.09269822053	11956.75
1600.52828543135	12123
1602.96313587367	12177
1605.3972498825	12161
1607.83062779252	12189.25
1610.26326993808	12290.5
1612.69517665322	12350.5
1615.12634827165	12458
1617.55678512676	12483
1619.98648755163	12391
1622.41545587902	12565.5
1624.84369044138	12640
1627.27119157085	12748.5
1629.69795959924	12859
1632.12399485808	12823.5
1634.54929767859	12867.5
1636.97386839165	12959.5
1639.39770732789	13087.75
1641.8208148176	13193.5
1644.24319119078	13188.5
1646.66483677715	13278.75
1649.0857519061	13369.75
1651.50593690677	13520.5
1653.92539210795	13661.75
1656.3441178382	13641.75
1658.76211442575	13683
1661.17938219855	13823.5
1663.59592148428	14000.75
1666.01173261032	14086.5
1668.42681590377	14266.75
1670.84117169145	14276.75
1673.25480029991	14397
1675.66770205541	14505
1678.07987728393	14580.5
1680.49132631119	14749.75
1682.90204946263	14794.75
1685.31204706342	14859
1687.72131943846	15025.75
1690.1298669124	15133
1692.53768980957	15270.75
1694.94478845411	15238.25
1697.35116316982	15212.5
1699.75681428031	15356
1702.16174210887	15437.5
1704.56594697858	15432
1706.96942921222	15736.5
1709.37218913235	15649.5
1711.77422706125	15630.25
1714.17554332098	15704.25
1716.5761382333	15885.5
1718.97601211977	15822.5
1721.37516530169	15863.75
1723.77359810006	15942.25
1726.17131083572	15987
1728.56830382922	16093
1730.96457740087	16103.75
1733.36013187075	16016.5
1735.75496755868	16197.5
1738.14908478428	16258.5
1740.54248386689	16312.25
1742.93516512565	16267.5
1745.32712887946	16367.5
1747.71837544697	16444.25
1750.10890514662	16577.25
1752.49871829661	16634
1754.88781521492	16704.75
1757.27619621929	16779.5
1759.66386162726	16812
1762.05081175612	16997.75
1764.43704692297	17124
1766.82256744465	16983.75
1769.20737363782	17239
1771.59146581887	17137.75
1773.97484430405	17417.75
1776.35750940932	17474.75
1778.73946145048	17556.25
1781.12070074309	17635.25
1783.50122760249	17818.5
1785.88104234385	17936.75
1788.26014528209	17969
1790.63853673196	17986.5
1793.01621700796	18231.5
1795.39318642443	18330
1797.76944529549	18386.75
1800.14499393503	18453.25
1802.51983265681	18430.5
1804.8939617743	18769.75
1807.26738160085	18869.25
1809.64009244957	18823.5
1812.01209463339	18858.75
1814.38338846504	19183.25
1816.75397425706	19123.75
1819.12385232181	19196
1821.49302297142	19322
1823.86148651789	19422
1826.22924327299	19363
1828.59629354831	19549
1830.96263765526	19619.25
1833.32827590507	19746.5
1835.69320860877	19876.75
1838.05743607724	19865.25
1840.42095862113	19907.5
1842.78377655097	20128.25
1845.14589017707	20016.25
1847.50729980956	20228.25
1849.86800575843	20218.5
1852.22800833346	20367
1854.58730784427	20393.75
1856.94590460032	20584.5
1859.30379891087	20736.5
1861.66099108503	20736.5
1864.01748143175	21012.5
1866.37327025978	21032.5
1868.72835787773	21042
1871.08274459403	21176
1873.43643071697	21173.25
1875.78941655464	21678.75
1878.14170241498	21489
1880.4932886058	21822.5
1882.84417543469	22001.25
1885.19436320915	22015
1887.54385223646	22156.75
1889.89264282378	22462
1892.24073527809	22369.5
1894.58812990625	22770.25
1896.93482701493	23104.25
1899.28082691067	22958
1901.62612989984	23223
1903.97073628868	23266
1906.31464638326	23403.5
1908.6578604895	23693.5
1911.00037891321	23876
1913.34220196	23969.25
1915.68332993537	24034.75
1918.02376314468	24255.25
1920.36350189311	24288.25
1922.70254648573	24315
1925.04089722744	24424.75
1927.37855442303	24448.25
1929.71551837715	24573
1932.05178939426	24574.25
1934.38736777876	24808.5
1936.72225383484	24705.75
1939.0564478666	25204
1941.38995017799	25098.25
1943.72276107283	25330.25
1946.05488085479	25178.75
1948.38630982744	25196
1950.71704829419	25434
1953.04709655832	25299.5
1955.376454923	25421.75
1957.70512369126	25500.75
1960.03310316599	25582.25
1962.36039364999	25512.25
1964.68699544589	25657.5
1967.01290885622	25840
1969.33813418338	25835.25
1971.66267172965	25972.5
1973.98652179718	25993.5
1976.309684688	26267.75
1978.63216070402	26352
1980.95395014705	26734.5
1983.27505331873	26545.75
1985.59547052063	26682.5
1987.9152020542	26927.5
1990.23424822074	26859.25
1992.55260932146	26897.75
1994.87028565746	27164
1997.18727752968	27284.5
1999.503585239	27555.5
2001.81920908618	27467.25
2004.13414937184	27767.75
2006.44840639651	28238.25
2008.7619804606	28243.5
2011.07487186442	28339.25
2013.38708090815	28588.25
2015.6986078919	28747
2018.00945311564	28950.25
2020.31961687923	28918
2022.62909948246	29235
2024.93790122498	29192
2027.24602240636	29488.75
2029.55346332604	29670
2031.86022428337	29736
2034.16630557761	29943.5
2036.47170750791	29900
2038.77643037331	30094
2041.08047447275	30203.75
2043.38384010509	30048.5
2045.68652756907	30419
2047.98853716335	30308.25
2050.28986918648	30470.5
2052.59052393692	30663.75
2054.89050171302	30769.5
2057.18980281306	30649.25
2059.4884275352	30896.25
2061.78637617753	30673
2064.08364903802	30702
2066.38024641457	30781.75
2068.67616860497	30982.5
2070.97141590694	30840.5
2073.26598861809	30980
2075.55988703595	30827
2077.85311145796	30831.25
2080.14566218145	31100.5
2082.43753950371	31169.25
2084.72874372188	31163
2087.01927513307	31070.25
2089.30913403428	31121.75
2091.59832072241	31248
2093.88683549429	31146.25
2096.17467864666	31347.75
2098.46185047619	31384.5
2100.74835127944	31490.25
2103.03418135292	31680.75
2105.31934099303	31344.5
2107.6038304961	31640.25
2109.88765015838	31725.5
2112.17080027602	31794
2114.45328114513	31697.5
2116.7350930617	32026.75
2119.01623632165	31904
2121.29671122085	31846
2123.57651805505	32103.75
2125.85565711996	32198.25
2128.13412871117	32295.25
2130.41193312424	32368
2132.68907065462	32379.5
2134.96554159771	32418.5
2137.24134624881	32461
2139.51648490317	32582.25
2141.79095785593	32490.25
2144.0647654022	32742.25
2146.33790783698	32463.25
2148.61038545524	32435.5
2150.88219855182	32878.5
2153.15334742154	32792.5
2155.42383235911	32687.25
2157.6936536592	32780
2159.9628116164	32615.25
2162.23130652522	32718.75
2164.49913868011	32658.5
2166.76630837544	32768.5
2169.03281590552	32600.5
2171.2986615646	32661.75
2173.56384564685	32583.25
2175.82836844637	32527
2178.0922302572	32613.5
2180.35543137332	32577.25
2182.61797208862	32476.5
2184.87985269695	32342.5
2187.14107349208	32285
2189.40163476773	32466.75
2191.66153681753	32265.5
2193.92077993507	32042
2196.17936441386	32122
2198.43729054735	32102.25
2200.69455862894	32006
2202.95116895194	31902.25
2205.20712180962	31622.5
2207.46241749519	31777.5
2209.71705630179	31622.25
2211.97103852248	31713
2214.2243644503	31649.5
2216.47703437819	31404
2218.72904859905	31306
2220.98040740571	31413
2223.23111109095	31279.25
2225.4811599475	31087
2227.73055426799	31050.25
2229.97929434504	30954.75
2232.22738047118	30681.25
2234.47481293889	30797.25
2236.72159204058	30974.5
2238.96771806864	30749
2241.21319131536	30464
2243.458012073	30325
2245.70218063374	30483.5
2247.94569728973	30605.75
2250.18856233304	30256
2252.4307760557	30072.5
2254.67233874967	30057.25
2256.91325070687	29874
2259.15351221915	29916.75
2261.39312357831	29809.25
2263.63208507611	29548.5
2265.87039700422	29598.25
2268.1080596543	29559.5
2270.34507331792	29561.5
2272.5814382866	29309.25
2274.81715485183	29297.25
2277.05222330502	29250.75
2279.28664393755	29198.5
2281.52041704072	28986
2283.75354290581	29062.75
2285.98602182401	28910
2288.21785408648	28803
2290.44903998434	28766.75
2292.67957980862	28685.75
2294.90947385033	28363.25
2297.1387224004	28508.25
2299.36732574975	28543.75
2301.59528418921	28375
2303.82259800958	28189.75
2306.04926750158	28148.25
2308.27529295593	27961.5
2310.50067466325	27874.25
2312.72541291412	27988
2314.9495079991	27768.5
2317.17296020866	27602
2319.39576983323	27686
2321.61793716322	27621.5
2323.83946248894	27378.5
2326.06034610069	27312.25
2328.28058828871	27197
2330.50018934317	27164.75
2332.7191495542	27099.5
2334.93746921192	26864.75
2337.15514860633	26774.75
2339.37218802743	26642.5
2341.58858776516	26561.5
2343.80434810941	26442.25
2346.01946935001	26430
2348.23395177675	26234.75
2350.44779567939	26154.5
2352.66100134759	25927.25
2354.87356907101	25956.25
2357.08549913925	25880
2359.29679184185	25707.5
2361.50744746829	25703.25
2363.71746630804	25574.75
2365.92684865048	25356
2368.13559478499	25358
2370.34370500083	25350.5
2372.55117958727	25184.75
2374.75801883352	25144
2376.96422302874	24755.25
2379.16979246202	24806.25
2381.37472742243	24723
2383.57902819898	24719.25
2385.78269508063	24540.5
2387.98572835629	24403.75
2390.18812831482	24334
2392.38989524505	24228
2394.59102943573	24295.75
2396.79153117559	24154.75
2398.9914007533	23994.25
2401.19063845748	24041.75
2403.38924457672	23790.5
2405.58721939951	23780
2407.78456321435	23685.25
2409.98127630966	23711.25
2412.17735897382	23745
2414.37281149517	23415.5
2416.56763416198	23520.75
2418.76182726249	23509.25
2420.95539108487	23341.25
2423.14832591726	23275.5
2425.34063204776	23161.75
2427.53230976439	22995
2429.72335935513	23140.5
2431.91378110795	22944.75
2434.10357531071	22839.75
2436.29274225125	22904.5
2438.48128221739	22606.75
2440.66919549683	22549.5
2442.8564823773	22520.25
2445.04314314641	22510.5
2447.22917809176	22504.75
2449.4145875009	22316.5
2451.59937166131	22287
2453.78353086044	22105
2455.96706538568	22080.5
2458.14997552436	21954
2460.33226156379	21797
2462.51392379119	21860.5
2464.69496249376	21603.25
2466.87537795862	21517.75
2469.05517047288	21576.75
2471.23434032357	21450.5
2473.41288779767	21471.5
2475.59081318211	21241
2477.76811676378	21248.25
2479.9447988295	21113
2482.12085966605	21042.25
2484.29629956016	21056
2486.4711187985	20983.5
2488.64531766769	20977.75
2490.8188964543	20868
2492.99185544484	20743.75
2495.16419492579	20767.5
2497.33591518353	20721
2499.50701650444	20560.75
2501.67749917482	20620.75
2503.84736348091	20422
2506.01660970891	20483
2508.18523814496	20336.5
2510.35324907514	20343.5
2512.52064278551	20447
2514.68741956201	20303.5
2516.85357969058	20551
2519.01912345709	20432.5
2521.18405114735	20304.5
2523.34836304711	20303.5
2525.51205944208	20209.5
2527.6751406179	20087.5
2529.83760686016	20188.75
2531.99945845439	20200.25
2534.16069568606	20184.25
2536.3213188406	20126.75
2538.48132820336	19992.25
2540.64072405965	19964
2542.79950669471	19855.75
2544.95767639373	20106.75
2547.11523344184	19752.5
2549.27217812411	19890.25
2551.42851072555	19888
2553.58423153111	19721.25
2555.73934082569	19585.25
2557.89383889412	19558
2560.04772602118	19527.75
2562.20100249158	19381
2564.35366858996	19357.5
2566.50572460093	19352.5
2568.65717080901	19151.5
2570.80800749867	19297
2572.95823495433	19081.5
2575.10785346031	19010.5
2577.25686330093	18903.5
2579.40526476038	18707.75
2581.55305812282	18789
2583.70024367237	18599
2585.84682169303	18642.75
2587.99279246879	18609.25
2590.13815628354	18477.25
2592.28291342112	18466
2594.42706416531	18499
2596.5706087998	18454.25
2598.71354760826	18548
2600.85588087425	18420
2602.99760888127	18420
2605.13873191278	18261
2607.27925025214	18248.25
2609.41916418269	18271
2611.55847398764	18162
2613.69717995017	18167
2615.83528235339	18298.25
2617.97278148034	18208
2620.10967761398	18228
2622.2459710372	18169
2624.38166203284	18185.5
2626.51675088365	18175.5
2628.65123787231	18067
2630.78512328145	18059.75
2632.9184073936	17991.5
2635.05109049124	18071.25
2637.18317285676	18023
2639.31465477248	18143.25
2641.44553652067	17929.75
2643.5758183835	17894.75
2645.70550064309	17989
2647.83458358144	18014
2649.96306748053	18084
2652.09095262223	17978
2654.21823928836	17970.75
2656.34492776063	17847.75
2658.47101832071	17822.25
2660.59651125015	18000
2662.72140683047	17913.25
2664.84570534309	17816.75
2666.96940706934	17816.25
2669.0925122905	17668.25
2671.21502128773	17796.25
2673.33693434215	17870.25
2675.45825173479	17836
2677.57897374658	17688.25
2679.69910065839	17799
2681.818632751	17714
2683.93757030511	17792.25
2686.05591360133	17753.75
2688.17366292021	17639
2690.29081854218	17692
2692.40738074762	17560.75
2694.52334981681	17630.75
2696.63872602995	17532
2698.75350966713	17612.5
2700.86770100841	17581
2702.98130033371	17413.25
2705.09430792289	17478
2707.20672405571	17490.25
2709.31854901185	17687.25
2711.42978307091	17530.25
2713.54042651238	17564.5
2715.65047961567	17665.25
2717.7599426601	17572.25
2719.86881592491	17528
2721.97709968924	17614.5
2724.08479423213	17381.25
2726.19189983255	17472.5
2728.29841676934	17501.5
2730.4043453213	17600.5
2732.5096857671	17655.75
2734.61443838532	17603.5
2736.71860345444	17605
2738.82218125286	17580
2740.92517205889	17596.75
2743.02757615072	17693.25
2745.12939380646	17575.25
2747.23062530411	17571.25
2749.33127092159	17622.25
2751.4313309367	17498.75
2753.53080562716	17697.75
2755.62969527058	17717.5
2757.72800014448	17558.5
2759.82572052625	17616
2761.92285669323	17571
2764.0194089226	17538.5
2766.11537749147	17620.5
2768.21076267686	17654.25
2770.30556475566	17577.25
2772.39978400465	17517.75
2774.49342070054	17539.75
2776.58647511991	17601.75
2778.67894753923	17617
2780.77083823487	17638.5
2782.8621474831	17482.75
2784.95287556007	17457.75
2787.04302274184	17385
2789.13258930433	17522
2791.22157552338	17381.5
2793.30998167471	17437
2795.39780803392	17535.5
2797.4850548765	17474.25
2799.57172247786	17384.25
2801.65781111324	17338.75
2803.74332105781	17474.25
2805.82825258661	17386
2807.91260597457	17462.25
2809.9963814965	17418.25
2812.07957942711	17476.75
2814.16220004096	17399.5
2816.24424361252	17349
2818.32571041614	17549.75
2820.40660072604	17428
2822.48691481631	17534.5
2824.56665296098	17472.25
2826.64581543388	17550
2828.72440250876	17578.5
2830.80241445925	17500.5
2832.87985155885	17555
2834.95671408093	17705.5
2837.03300229875	17751
2839.10871648544	17638.5
2841.18385691399	17803.75
2843.25842385729	17805.5
2845.33241758808	17761.75
2847.40583837898	17831
2849.4786865025	17948
2851.550962231	17970.75
2853.6226658367	17950
2855.69379759173	17971.25
2857.76435776806	17971.25
2859.83434663753	18035.5
2861.90376447184	17953
2863.97261154259	18040.25
2866.0408881212	18093.75
2868.10859447901	18073.75
2870.17573088717	18132.75
2872.24229761673	18293
2874.30829493859	18238.5
2876.37372312352	18149.25
2878.43858244215	18257.75
2880.50287316496	18244.25
2882.56659556231	18173.25
2884.62974990439	18281
2886.69233646129	18340.75
2888.75435550293	18305
2890.81580729909	18449.25
2892.87669211941	18390.25
2894.93701023339	18415.75
2896.99676191039	18455
2899.05594741961	18425.75
2901.1145670301	18388.25
2903.1726210108	18310.5
2905.23010963045	18478.75
2907.28703315768	18390
2909.34339186096	18513.75
2911.39918600861	18534
2913.45441586879	18409.5
2915.50908170952	18482.25
2917.56318379867	18525.5
2919.61672240395	18538.25
2921.66969779291	18437
2923.72211023295	18593.75
2925.77395999134	18606.75
2927.82524733515	18729.25
2929.87597253132	18636.25
2931.92613584663	18577.25
2933.97573754769	18543
2936.02477790097	18448
2938.07325717276	18504.25
2940.1211756292	18630.25
2942.16853353626	18560
2944.21533115976	18685.5
2946.26156876536	18586.25
2948.30724661853	18592.25
2950.3523649846	18691.5
2952.39692412872	18634
2954.44092431587	18652
2956.48436581089	18637
2958.52724887843	18747.75
2960.56957378296	18800.5
2962.6113407888	18805.5
2964.65255016011	18890.75
2966.69320216083	18839.25
2968.73329705479	18712.75
2970.77283510559	18779.5
2972.81181657671	18923.5
2974.8502417314	18890
2976.88811083279	18969.25
2978.92542414378	19012.25
2980.96218192713	18965.25
2982.99838444541	19050.25
2985.034031961	19071.5
2987.06912473612	19154
2989.1036630328	19117
2991.13764711288	19022.75
2993.17107723804	19195.25
2995.20395366974	19269.5
2997.23627666931	19262.25
2999.26804649782	19312
3001.29926341624	19514.5
3003.32992768528	19472
3005.3600395655	19565
3007.38959931726	19564
3009.41860720076	19709.75
3011.44706347595	19832
3013.47496840263	19681.25
3015.50232224041	19947.5
3017.5291252487	19894
3019.5553776867	19689
3021.58107981344	20111
3023.60623188773	20108.5
3025.63083416822	20169.5
3027.65488691331	20290.25
3029.67839038125	20135.75
3031.70134483007	20274.25
3033.72375051759	20319.5
3035.74560770144	20376
3037.76691663907	20428.5
3039.78767758768	20559.75
3041.80789080431	20424.75
3043.82755654577	20517
3045.84667506867	20569.75
3047.8652466294	20605
3049.88327148418	20539
3051.90074988899	20599.5
3053.91768209961	20610
3055.9340683716	20471.5
3057.94990896033	20621.75
3059.96520412095	20890.75
3061.97995410838	20746.75
3063.99415917734	20697
3066.00781958234	20658
3068.02093557766	20761
3070.03350741738	20570
3072.04553535535	20773.5
3074.05701964521	20748.75
3076.06796054036	20742.75
3078.078358294	20806.25
3080.08821315912	20841.25
3082.09752538846	21042
3084.10629523454	20713.5
3086.11452294967	20974.5
3088.12220878592	20893.75
3090.12935299515	21019.5
3092.13595582898	20947.25
3094.1420175388	20987.75
3096.14753837579	21026.25
3098.15251859088	21007.75
3100.15695843477	21087.25
3102.16085815793	21153.5
3104.16421801061	21096.25
3106.16703824282	21148.5
3108.16931910432	21236
3110.17106084464	21112.75
3112.17226371308	21398.25
3114.17292795872	21391.25
3116.17305383034	21481.75
3118.17264157657	21305.5
3120.17169144571	21467.25
3122.17020368587	21336
3124.16817854492	21462.25
3126.16561627044	21499.5
3128.16251710982	21783
3130.15888131017	21823.75
3132.15470911837	21889.75
3134.15000078104	21783.25
3136.14475654455	21947.25
3138.13897665502	22008
3140.13266135835	21958.75
3142.12581090014	21911.75
3144.11842552577	22060.5
3146.11050548036	22295.75
3148.10205100875	22156.25
3150.09306235557	22298.5
3152.08353976515	22164.5
3154.07348348158	22042.5
3156.06289374869	22414
3158.05177081006	22141.25
3160.04011490899	22266
3162.02792628852	22476.5
3164.01520519145	22223.25
3166.00195186029	22338
3167.98816653728	22500.25
3169.97384946442	22446.75
3171.95900088344	22366.25
3173.94362103577	22505
3175.92771016259	22554.5
3177.91126850484	22644
3179.89429630312	22714.25
3181.87679379782	22612.5
3183.85876122903	22768.5
3185.84019883657	22760
3187.82110685997	22830.75
3189.80148553851	22790
3191.78133511116	22999.5
3193.76065581664	22955.5
3195.73944789337	22904.75
3197.7177115795	22980.25
3199.6954471129	23105.25
3201.67265473114	23081.75
3203.64933467153	23094.25
3205.62548717107	23227.25
3207.60111246648	23352
3209.57621079421	23242.5
3211.55078239041	23330.25
3213.52482749093	23276.25
3215.49834633133	23493.25
3217.4713391469	23745
3219.44380617262	23552.5
3221.41574764317	23704.25
3223.38716379296	23561.75
3225.35805485607	23694.75
3227.32842106631	23775.25
3229.29826265718	24024.25
3231.26757986187	23936.75
3233.2363729133	24082
3235.20464204405	24102.25
3237.17238748643	24125.75
3239.13960947243	24247.25
3241.10630823374	24386.25
3243.07248400174	24388.5
3245.03813700748	24632.5
3247.00326748177	24609.5
3248.96787565503	24581.25
3250.93196175742	24794.75
3252.89552601877	24679.25
3254.8585686686	24691
3256.82108993612	24934
3258.78309005022	24906.25
3260.74456923948	24757.75
3262.70552773215	25022.5
3264.66596575617	24923.75
3266.62588353916	24918.75
3268.58528130843	25036.75
3270.54415929094	24936
3272.50251771336	25074
3274.46035680201	25129.25
3276.4176767829	25233.75
3278.37447788171	25075.75
3280.33076032379	25248.75
3282.28652433416	25190
3284.24177013751	25209.5
3286.1964979582	25470.25
3288.15070802027	25382.75
3290.10440054741	25353.5
3292.05757576298	25340.5
3294.01023389001	25411
3295.96237515119	25539
3297.91399976887	25484.5
3299.86510796506	25582.5
3301.81569996142	25580.5
3303.76577597932	25505.5
3305.7153362397	25634.25
3307.66438096324	25625.5
3309.61291037024	25667.25
3311.56092468064	25665.5
3313.50842411404	25529
3315.45540888971	25815.75
3317.40187922656	25612.5
3319.34783534315	25700.5
3321.29327745768	25612
3323.23820578801	25476
3325.18262055164	25729
3327.1265219657	25802.5
3329.06991024699	25830
3331.01278561194	25901
3332.95514827662	25712.25
3334.89699845674	25939.75
3336.83833636766	25975.75
3338.77916222434	25630.5
3340.71947624143	25926.75
3342.65927863317	25975.75
3344.59856961346	25924
3346.53734939584	26182.5
3348.47561819344	26076.75
3350.41337621906	26047.5
3352.35062368513	26065.75
3354.28736080368	25975.25
3356.22358778637	26136
3358.15930484452	26121.75
3360.09451218904	26408
3362.02921003047	26298.25
3363.96339857898	26453.25
3365.89707804436	26384.75
3367.83024863602	26227.25
3369.76291056299	26378
3371.69506403389	26291.75
3373.62670925699	26434.25
3375.55784644016	26504.5
3377.4884757909	26444.5
3379.41859751629	26709.75
3381.34821182305	26652.75
3383.27731891749	26698
3385.20591900555	26751.25
3387.13401229276	26824.5
3389.06159898426	26958.25
3390.9886792848	27040.5
3392.91525339872	27055.75
3394.84132152998	27059.25
3396.76688388213	27025.5
3398.69194065833	27025.25
3400.61649206133	27060
3402.54053829348	27299
3404.46407955672	26998.75
3406.3871160526	27049.5
3408.30964798225	27284.5
3410.23167554639	27215.5
3412.15319894535	27370.75
3414.07421837904	27208.25
3415.99473404695	27324.5
3417.91474614817	27313.75
3419.83425488136	27463.5
3421.75326044479	27427.5
3423.67176303631	27394.25
3425.58976285332	27457.75
3427.50726009282	27273.25
3429.42425495143	27279.5
3431.34074762528	27175.5
3433.25673831012	27103.75
3435.17222720127	27324.5
3437.08721449362	27314.25
3439.00170038164	27001.5
3440.91568505936	27221.5
3442.82916872039	26941.5
3444.74215155791	27093.25
3446.65463376468	27007.25
3448.566615533	27073
3450.47809705476	27106
3452.3890785214	26988.25
3454.29956012393	27056
3456.20954205293	26981
3458.11902449853	26900.5
3460.02800765041	26889
3461.93649169784	26845.25
3463.84447682962	26840.25
3465.75196323412	26787.25
3467.65895109925	26699.75
3469.56544061249	26773
3471.47143196086	26699
3473.37692533093	26680.75
3475.28192090884	26537.75
3477.18641888026	26705
3479.09041943039	26649
3480.99392274402	26703
3482.89692900545	26547.5
3484.79943839853	26514.75
3486.70145110666	26596.5
3488.60296731277	26512.5
3490.50398719933	26456.25
3492.40451094836	26285
3494.30453874141	26251
3496.20407075956	26468
3498.10310718342	26477.75
3500.00164819315	26273.75