201.866871357051	802
204.754250281454	806.25
207.640596790938	813.25
210.525911876299	799.75
213.410196525689	806.75
216.293451724508	801.5
219.175678455485	804
222.056877698662	809.5
224.937050431388	810.25
227.816197628363	806.75
230.694320261602	814.25
233.571419300504	810.75
236.447495711764	816
239.322550459507	807
242.196584505182	811.5
245.069598807626	816.75
247.941594323078	806.75
250.812572005154	816.25
253.682532804884	819.75
256.551477670699	820
259.419407548456	829.5
262.286323381439	823
265.152226110364	816.25
268.017116673389	811.75
270.880996006115	807.25
273.743865041622	809.5
276.605724710436	812.5
279.466575940562	812.5
282.326419657496	817.75
285.1852567842	812.25
288.043088241157	825.75
290.899914946349	813.5
293.75573781526	817.5
296.610557760898	814.25
299.464375693817	822
302.317192522078	810.75
305.169009151297	807.25
308.019826484655	814.25
310.86964542287	817.25
313.718466864233	812.25
316.566291704614	816.75
319.413120837457	812.75
322.258955153804	817.75
325.103795542291	813.75
327.947642889128	820.75
330.79049807819	804.75
333.632361990927	816.25
336.473235506444	820.75
339.31311950145	818.5
342.152014850322	818
344.989922425062	822.25
347.826843095354	825.5
350.662777728528	818.75
353.497727189577	830
356.331692341195	835.75
359.164674043732	834.25
361.996673155267	834.5
364.827690531536	835
367.65772702602	827.5
370.486783489887	827.25
373.314860772047	834.5
376.14195971912	823.25
378.968081175466	828
381.793225983212	834.25
384.617394982201	840.25
387.44058901005	838.5
390.262808902131	834.75
393.08405549161	847.25
395.904329609395	839.75
398.723632084213	833
401.541963742569	843.75
404.359325408779	847
407.175717904938	849
409.991142050982	840.5
412.805598664665	838
415.619088561551	847.25
418.43161255505	850
421.243171456415	851.75
424.053766074758	853.75
426.863397217017	854.75
429.672065688024	866.25
432.479772290455	852.25
435.286517824879	864.75
438.092303089736	867.75
440.897128881359	860.5
443.70099599399	877.75
446.503905219761	862.75
449.305857348711	861
452.106853168796	856.5
454.906893465919	854.25
457.705979023885	852.25
460.504110624439	847.25
463.3012890473	856.5
466.097515070087	854.25
468.892789468424	857
471.687113015869	847.25
474.48048648395	852.25
477.272910642198	856
480.064386258109	855.25
482.854914097159	857.5
485.644494922839	857
488.433129496636	861
491.220818578047	864
494.007562924584	859
496.793363291785	851.5
499.578220433217	868
502.362135100473	867.5
505.145108043209	861.5
507.927140009098	862.75
510.708231743909	862
513.488383991433	875
516.267597493556	862.75
519.04587299022	865.75
521.82321121946	873.75
524.599612917398	857
527.375078818233	862
530.149609654287	864
532.923206155967	864.75
535.695869051804	856.75
538.467599068448	858
541.238396930665	866.75
544.008263361364	859.5
546.777199081578	857.25
549.545204810493	857.75
552.312281265436	870.5
555.078429161898	864.25
557.843649213533	859.75
560.607942132156	849.5
563.371308627753	864.5
566.133749408495	873.25
568.895265180756	878.5
571.655856649064	883
574.415524516189	875.5
577.174269483075	890
579.932092248884	886.25
582.688993510994	897
585.444973965023	903
588.200034304795	927.75
590.95417522237	927.5
593.70739740807	938.75
596.459701550433	930
599.21108833628	908.25
601.961558450668	892.75
604.711112576933	893.5
607.459751396673	894
610.207475589748	869
612.954285834338	892
615.700182806879	886
618.445167182101	873.25
621.189239633055	877.5
623.932400831087	875.5
626.674651445839	878.25
629.415992145303	856.25
632.156423595745	875
634.895946461813	870.5
637.634561406449	872.75
640.37226909096	874
643.109070174978	880.75
645.844965316508	880
648.579955171888	874.75
651.314040395846	873.25
654.047221641456	882.75
656.779499560176	877
659.510874801828	865.5
662.241348014642	868.5
664.97091984524	875.5
667.699590938606	879.5
670.427361938164	874.25
673.15423348573	891.75
675.880206221526	933.75
678.605280784206	960.5
681.329457810829	978.75
684.05273793692	956.25
686.775121796389	924.75
689.49661002163	891.25
692.217203243454	886.25
694.936902091144	888.25
697.655707192425	887.25
700.373619173493	865.25
703.09063865901	875.75
705.806766272093	872.5
708.522002634378	876.75
711.236348365946	877.5
713.94980408538	874.5
716.662370409762	881.25
719.374047954676	880.25
722.08483733419	881.75
724.794739160909	877.5
727.503754045949	887.75
730.21188259892	887.25
732.919125427998	890
735.625483139855	885
738.330956339723	879.75
741.035545631374	892.75
743.739251617106	903.75
746.44207489779	917.25
749.144016072852	936
751.845075740272	906.25
754.545254496603	895.75
757.244552936976	885.5
759.94297165508	880.5
762.640511243222	881.5
765.337172292249	903.5
768.032955391649	885
770.727861129482	899
773.421890092413	893.5
776.11504286572	903.75
778.807320033298	906
781.49872217765	899.75
784.18924987991	885.5
786.87890371984	891
789.567684275826	884.25
792.255592124908	878.25
794.94262784276	892.25
797.628792003703	881.75
800.314085180715	895
802.998507945427	894.5
805.682060868145	891.75
808.364744517821	896.25
811.046559462105	901.5
813.727506267311	890.25
816.407585498422	884.25
819.08679771913	895.5
821.765143491822	904.5
824.442623377563	897.25
827.119237936127	931.5
829.794987726003	916.5
832.469873304377	924
835.143895227167	924.75
837.817054048985	929.5
840.489350323205	924
843.160784601892	927.5
845.831357435894	923.25
848.501069374739	936.75
851.169920966753	927
853.837912758987	922.25
856.505045297232	923.25
859.171319126071	923
861.836734788823	912.5
864.501292827579	924.75
867.164993783208	905.75
869.827838195361	906.5
872.489826602454	919.25
875.150959541701	905.25
877.811237549104	897.75
880.470661159456	932.25
883.129230906357	907.5
885.786947322205	903.5
888.443810938206	904.5
891.099822284385	912.75
893.754981889586	913.5
896.409290281452	914.5
899.062747986485	904
901.715355529999	920
904.367113436154	911.75
907.01802222793	909.25
909.668082427172	903.5
912.317294554574	908.75
914.965659129659	901.5
917.613176670835	905.5
920.259847695364	908.25
922.90567271936	915.5
925.550652257825	917.75
928.194786824621	912.5
930.838076932512	905.5
933.480523093109	918.75
936.122125816953	903.25
938.762885613447	899.25
941.402802990899	921.75
944.041878456523	918.75
946.680112516428	931.5
949.31750567563	932.75
951.954058438081	949.5
954.589771306633	939.25
957.224644783048	929.5
959.858679368044	912.25
962.491875561238	912
965.12423386121	912.5
967.75575476545	914.5
970.386438770423	913.25
973.016286371501	918.25
975.645298063046	916.5
978.273474338355	906.5
980.900815689674	909.5
983.527322608243	920
986.152995584245	901.25
988.777835106834	919.25
991.401841664148	915.5
994.025015743307	903.5
996.647357830407	915.75
999.268868410534	917.75
1001.88954796777	927
1004.50939698518	925.5
1007.12841594484	935.75
1009.74660532783	930
1012.36396561423	933.25
1014.98049728314	927.25
1017.59620081267	925.5
1020.21107667995	928.25
1022.82512536112	926.5
1025.43834733138	922
1028.05074306493	936.25
1030.66231303501	940.75
1033.27305771392	934.75
1035.88297757299	948.25
1038.49207308257	962.75
1041.10034471211	958.75
1043.70779293008	967.5
1046.31441820402	946.75
1048.92022100052	957.5
1051.52520178525	977.25
1054.12936102295	970.75
1056.73269917742	1009.5
1059.33521671154	1038.25
1061.93691408729	1041.75
1064.53779176571	1024.5
1067.13785020694	1004.5
1069.73708987022	975.5
1072.33551121386	981.75
1074.93311469528	974.25
1077.52990077103	963
1080.12586989674	968
1082.72102252714	977
1085.31535911611	970.25
1087.90888011663	976.75
1090.50158598078	966.75
1093.09347715979	955.75
1095.68455410403	957.5
1098.27481726296	949.75
1100.86426708523	956
1103.45290401857	959.5
1106.04072850991	959.5
1108.6277410053	980.25
1111.21394194993	971.75
1113.79933178816	972.25
1116.3839109635	995.75
1118.96767991862	1006.75
1121.55063909539	1010
1124.13278893477	1043.75
1126.71412987696	1082
1129.29466236132	1076.25
1131.87438682637	1057.75
1134.45330370982	1026.5
1137.03141344858	1011.5
1139.60871647872	1039.75
1142.18521323554	1049
1144.7609041535	1057
1147.33578966629	1004.5
1149.90987020676	995
1152.48314620702	977.25
1155.05561809835	970.75
1157.62728631125	974
1160.19815127545	981.75
1162.76821341988	982.25
1165.33747317271	980.75
1167.90593096133	991.25
1170.47358721235	993.25
1173.04044235163	978.5
1175.60649680425	977.25
1178.17175099454	991.5
1180.73620534607	987.75
1183.29986028165	993.75
1185.86271622336	983.25
1188.42477359249	964.5
1190.98603280964	986.25
1193.54649429462	995.25
1196.10615846653	998.25
1198.66502574372	1000
1201.22309654385	992.25
1203.78037128378	990.75
1206.33685037971	988
1208.89253424709	987
1211.44742330063	992.75
1214.00151795438	985.75
1216.55481862163	1001.25
1219.10732571497	1001
1221.65903964631	1002.75
1224.20996082683	979.5
1226.760089667	987.5
1229.30942657664	977
1231.85797196483	1005
1234.40572623998	985.75
1236.95268980981	990.5
1239.49886308136	998
1242.04424646098	982.25
1244.58884035435	989.5
1247.13264516647	1008.75
1249.67566130166	1000.5
1252.21788916358	1010.75
1254.75932915524	1012.25
1257.29998167896	1008.25
1259.83984713639	1021.25
1262.37892592857	1009.5
1264.91721845586	1009.25
1267.45472511795	1025
1269.9914463139	1034.5
1272.52738244213	1029.25
1275.0625339004	1036.25
1277.59690108587	1041.75
1280.130484395	1053
1282.66328422367	1042.25
1285.19530096712	1059.75
1287.72653501993	1067
1290.25698677608	1126.5
1292.78665662894	1191
1295.31554497125	1222.75
1297.8436521951	1198.5
1300.37097869203	1152.25
1302.89752485292	1130
1305.42329106805	1135
1307.94827772713	1140.75
1310.47248521921	1111
1312.99591393279	1112.5
1315.51856425575	1093.5
1318.04043657536	1082
1320.56153127836	1100.25
1323.08184875083	1102.5
1325.6013893783	1097.5
1328.12015354572	1115.25
1330.63814163744	1130.75
1333.15535403727	1152.5
1335.67179112839	1240.25
1338.18745329347	1314.75
1340.70234091454	1360.75
1343.21645437314	1319.75
1345.72979405019	1244.25
1348.24236032607	1155.75
1350.75415358059	1132.25
1353.26517419303	1111
1355.7754225421	1123
1358.28489900594	1125
1360.79360396218	1141.5
1363.30153778787	1138
1365.80870085955	1148.75
1368.31509355319	1171.75
1370.82071624424	1160.25
1373.32556930762	1148.5
1375.8296531177	1143.25
1378.33296804832	1160.25
1380.83551447282	1149
1383.33729276399	1152.75
1385.83830329408	1146
1388.33854643489	1164
1390.83802255762	1159.75
1393.33673203301	1156.75
1395.83467523128	1157
1398.33185252211	1156
1400.82826427471	1177.25
1403.32391085777	1186.25
1405.81879263947	1188.25
1408.31290998752	1205.25
1410.80626326908	1202.75
1413.29885285087	1224.25
1415.79067909909	1251.5
1418.28174237944	1263.25
1420.77204305717	1239.75
1423.26158149702	1266.5
1425.75035806323	1271.5
1428.2383731196	1301
1430.72562702942	1324
1433.21212015554	1351
1435.69785286028	1361.75
1438.18282550555	1405.25
1440.66703845275	1408.75
1443.15049206284	1428
1445.6331866963	1470.5
1448.11512271316	1527.5
1450.59630047298	1614.5
1453.07672033486	1577.5
1455.55638265748	1503.25
1458.03528779902	1438.25
1460.51343611725	1422.25
1462.99082796946	1392.25
1465.46746371252	1406
1467.94334370285	1417.5
1470.41846829642	1403.5
1472.89283784878	1415.75
1475.36645271503	1406.25
1477.83931324983	1415.5
1480.31141980743	1407
1482.78277274164	1453.25
1485.25337240583	1418
1487.72321915297	1410.5
1490.19231333557	1404
1492.66065530578	1406.75
1495.12824541525	1396.75
1497.5950840153	1405.25
1500.06117145678	1396
1502.52650809014	1429
1504.99109426543	1439.25
1507.45493033227	1449.5
1509.91801663992	1440.5
1512.38035353717	1463.75
1514.84194137248	1479.75
1517.30278049386	1512.5
1519.76287124894	1584
1522.22221398497	1718.75
1524.68080904876	1894
1527.13865678681	2080.25
1529.59575754514	2098.75
1532.05211166945	1911.75
1534.50771950503	1721
1536.96258139678	1637
1539.41669768924	1610.25
1541.87006872656	1593.25
1544.32269485252	1577.25
1546.77457641051	1561.75
1549.22571374357	1580.25
1551.67610719434	1601
1554.12575710513	1609.75
1556.57466381785	1595.5
1559.02282767408	1589
1561.47024901499	1604.25
1563.91692818144	1642.75
1566.3628655139	1642.25
1568.80806135249	1649.75
1571.252516037	1631
1573.6962299068	1649.25
1576.13920330099	1676.75
1578.58143655828	1679.25
1581.02293001704	1705.25
1583.46368401528	1677
1585.90369889071	1728.75
1588.34297498065	1729.25
1590.7815126221	1737.25
1593.21931215173	1731
1595.65637390588	1752
1598.09269822053	1749.25
1600.52828543135	1744
1602.96313587367	1756.25
1605.3972498825	1743
1607.83062779252	1761.25
1610.26326993808	1763
1612.69517665322	1752.25
1615.12634827165	1763.75
1617.55678512676	1774.5
1619.98648755163	1754.75
1622.41545587902	1768
1624.84369044138	1762.25
1627.27119157085	1790
1629.69795959924	1790.25
1632.12399485808	1780.25
1634.54929767859	1780.25
1636.97386839165	1790
1639.39770732789	1812
1641.8208148176	1814.5
1644.24319119078	1815.5
1646.66483677715	1794
1649.0857519061	1810.75
1651.50593690677	1823.75
1653.92539210795	1819.5
1656.3441178382	1837.5
1658.76211442575	1871.25
1661.17938219855	1832.25
1663.59592148428	1845
1666.01173261032	1873
1668.42681590377	1879
1670.84117169145	1879.5
1673.25480029991	1884.5
1675.66770205541	1895.75
1678.07987728393	1886
1680.49132631119	1889
1682.90204946263	1887.5
1685.31204706342	1902.5
1687.72131943846	1950.5
1690.1298669124	1915.25
1692.53768980957	1948.25
1694.94478845411	1945.25
1697.35116316982	1951.75
1699.75681428031	1947.5
1702.16174210887	1951
1704.56594697858	1960.75
1706.96942921222	1967.5
1709.37218913235	1968.25
1711.77422706125	1957
1714.17554332098	1971.75
1716.5761382333	1990.75
1718.97601211977	1966.5
1721.37516530169	1975.5
1723.77359810006	1952
1726.17131083572	1971.75
1728.56830382922	1980.75
1730.96457740087	1995.5
1733.36013187075	1977.75
1735.75496755868	1982.75
1738.14908478428	1985
1740.54248386689	2003.5
1742.93516512565	2015.5
1745.32712887946	2001
1747.71837544697	2018
1750.10890514662	2037.25
1752.49871829661	2018.25
1754.88781521492	2045
1757.27619621929	2043.75
1759.66386162726	2030.75
1762.05081175612	2061.5
1764.43704692297	2051.25
1766.82256744465	2064.25
1769.20737363782	2089.75
1771.59146581887	2057
1773.97484430405	2102.25
1776.35750940932	2106.25
1778.73946145048	2111.5
1781.12070074309	2124.25
1783.50122760249	2116.5
1785.88104234385	2134.5
1788.26014528209	2128.25
1790.63853673196	2149
1793.01621700796	2168.75
1795.39318642443	2197.25
1797.76944529549	2163.75
1800.14499393503	2169
1802.51983265681	2169.5
1804.8939617743	2197.25
1807.26738160085	2244.75
1809.64009244957	2221
1812.01209463339	2202.25
1814.38338846504	2229
1816.75397425706	2241.5
1819.12385232181	2257
1821.49302297142	2247
1823.86148651789	2251
1826.22924327299	2235.5
1828.59629354831	2246.25
1830.96263765526	2241
1833.32827590507	2229
1835.69320860877	2250
1838.05743607724	2285.75
1840.42095862113	2257.75
1842.78377655097	2261
1845.14589017707	2280
1847.50729980956	2271.5
1849.86800575843	2277.75
1852.22800833346	2282.5
1854.58730784427	2326.25
1856.94590460032	2320.5
1859.30379891087	2322.25
1861.66099108503	2319.75
1864.01748143175	2338.75
1866.37327025978	2321
1868.72835787773	2344
1871.08274459403	2352.75
1873.43643071697	2357
1875.78941655464	2402.5
1878.14170241498	2389.5
1880.4932886058	2409.75
1882.84417543469	2386
1885.19436320915	2386.5
1887.54385223646	2421
1889.89264282378	2430
1892.24073527809	2428.75
1894.58812990625	2450.5
1896.93482701493	2458.75
1899.28082691067	2474.25
1901.62612989984	2484.5
1903.97073628868	2480.5
1906.31464638326	2490.5
1908.6578604895	2490.5
1911.00037891321	2535.25
1913.34220196	2506
1915.68332993537	2533.75
1918.02376314468	2518.75
1920.36350189311	2502.25
1922.70254648573	2509.25
1925.04089722744	2514.5
1927.37855442303	2528.25
1929.71551837715	2534.25
1932.05178939426	2514.25
1934.38736777876	2535.75
1936.72225383484	2531.5
1939.0564478666	2562
1941.38995017799	2549.5
1943.72276107283	2545.5
1946.05488085479	2554.5
1948.38630982744	2571.75
1950.71704829419	2539
1953.04709655832	2555.75
1955.376454923	2545.75
1957.70512369126	2522
1960.03310316599	2570.25
1962.36039364999	2597.5
1964.68699544589	2571
1967.01290885622	2559.25
1969.33813418338	2548.75
1971.66267172965	2573.25
1973.98652179718	2570.5
1976.309684688	2605.5
1978.63216070402	2594.75
1980.95395014705	2619
1983.27505331873	2602.5
1985.59547052063	2636.75
1987.9152020542	2621.75
1990.23424822074	2612
1992.55260932146	2636.25
1994.87028565746	2630
1997.18727752968	2633.5
1999.503585239	2683
2001.81920908618	2667.5
2004.13414937184	2668.5
2006.44840639651	2737.5
2008.7619804606	2733.75
2011.07487186442	2715.5
2013.38708090815	2740.5
2015.6986078919	2766.5
2018.00945311564	2787.75
2020.31961687923	2763.25
2022.62909948246	2789.25
2024.93790122498	2771.5
2027.24602240636	2780
2029.55346332604	2828.25
2031.86022428337	2800.25
2034.16630557761	2807.25
2036.47170750791	2816.5
2038.77643037331	2847.25
2041.08047447275	2816.25
2043.38384010509	2824.25
2045.68652756907	2842.5
2047.98853716335	2840.25
2050.28986918648	2895.75
2052.59052393692	2875.5
2054.89050171302	2875.5
2057.18980281306	2903
2059.4884275352	2920.5
2061.78637617753	2902.25
2064.08364903802	2921
2066.38024641457	2862.75
2068.67616860497	2924.75
2070.97141590694	2910.5
2073.26598861809	2909
2075.55988703595	2916.75
2077.85311145796	2923.75
2080.14566218145	2958.25
2082.43753950371	2959.5
2084.72874372188	2935.5
2087.01927513307	2971.5
2089.30913403428	2936.75
2091.59832072241	2967.75
2093.88683549429	2962.5
2096.17467864666	2967.75
2098.46185047619	3004
2100.74835127944	3006.5
2103.03418135292	3011.5
2105.31934099303	2993
2107.6038304961	3049.5
2109.88765015838	3035.5
2112.17080027602	3052.25
2114.45328114513	3083.5
2116.7350930617	3066.5
2119.01623632165	3063.5
2121.29671122085	3060.75
2123.57651805505	3075
2125.85565711996	3093.75
2128.13412871117	3068.5
2130.41193312424	3101.75
2132.68907065462	3112
2134.96554159771	3120
2137.24134624881	3121.75
2139.51648490317	3128.75
2141.79095785593	3163
2144.0647654022	3165.25
2146.33790783698	3151.5
2148.61038545524	3147.5
2150.88219855182	3186
2153.15334742154	3163.75
2155.42383235911	3189
2157.6936536592	3176.25
2159.9628116164	3189.25
2162.23130652522	3154.5
2164.49913868011	3175.25
2166.76630837544	3176.75
2169.03281590552	3167
2171.2986615646	3181.25
2173.56384564685	3197.25
2175.82836844637	3192.25
2178.0922302572	3206.75
2180.35543137332	3218.25
2182.61797208862	3171.5
2184.87985269695	3137.75
2187.14107349208	3205.75
2189.40163476773	3187.25
2191.66153681753	3197.75
2193.92077993507	3142
2196.17936441386	3157.75
2198.43729054735	3150.25
2200.69455862894	3145.25
2202.95116895194	3169
2205.20712180962	3140.5
2207.46241749519	3121.5
2209.71705630179	3166
2211.97103852248	3126
2214.2243644503	3137.75
2216.47703437819	3098.25
2218.72904859905	3117.25
2220.98040740571	3091.75
2223.23111109095	3093.25
2225.4811599475	3101.5
2227.73055426799	3086
2229.97929434504	3093.25
2232.22738047118	3063
2234.47481293889	3060.75
2236.72159204058	3081
2238.96771806864	3051.25
2241.21319131536	3050.25
2243.458012073	3023.5
2245.70218063374	3044.75
2247.94569728973	3039.5
2250.18856233304	3032
2252.4307760557	3002.75
2254.67233874967	3016.25
2256.91325070687	3010.75
2259.15351221915	2988
2261.39312357831	3010.25
2263.63208507611	2981.25
2265.87039700422	2987.5
2268.1080596543	2977.75
2270.34507331792	2979.5
2272.5814382866	2960.75
2274.81715485183	2984.25
2277.05222330502	2978.25
2279.28664393755	2978.75
2281.52041704072	2942.5
2283.75354290581	2953
2285.98602182401	2922.25
2288.21785408648	2937
2290.44903998434	2908.75
2292.67957980862	2912.75
2294.90947385033	2906.5
2297.1387224004	2883
2299.36732574975	2875.5
2301.59528418921	2897.25
2303.82259800958	2873
2306.04926750158	2893.5
2308.27529295593	2853.5
2310.50067466325	2847.5
2312.72541291412	2875.75
2314.9495079991	2855.5
2317.17296020866	2850.75
2319.39576983323	2858
2321.61793716322	2838.5
2323.83946248894	2801.5
2326.06034610069	2793.75
2328.28058828871	2802.75
2330.50018934317	2793.25
2332.7191495542	2782
2334.93746921192	2770.25
2337.15514860633	2766.25
2339.37218802743	2795.25
2341.58858776516	2750.75
2343.80434810941	2742.75
2346.01946935001	2733.5
2348.23395177675	2715.25
2350.44779567939	2722
2352.66100134759	2726
2354.87356907101	2756.25
2357.08549913925	2724.75
2359.29679184185	2704.5
2361.50744746829	2716.75
2363.71746630804	2709.75
2365.92684865048	2663.25
2368.13559478499	2633
2370.34370500083	2669.75
2372.55117958727	2675.5
2374.75801883352	2633.25
2376.96422302874	2649.25
2379.16979246202	2638.75
2381.37472742243	2618
2383.57902819898	2646.25
2385.78269508063	2631
2387.98572835629	2635.5
2390.18812831482	2589.5
2392.38989524505	2613.75
2394.59102943573	2588.25
2396.79153117559	2601.5
2398.9914007533	2601.5
2401.19063845748	2593.25
2403.38924457672	2585
2405.58721939951	2554.5
2407.78456321435	2552.25
2409.98127630966	2531.75
2412.17735897382	2536.5
2414.37281149517	2536.5
2416.56763416198	2560.25
2418.76182726249	2548.75
2420.95539108487	2539.75
2423.14832591726	2547.75
2425.34063204776	2516.5
2427.53230976439	2513
2429.72335935513	2516.5
2431.91378110795	2473.5
2434.10357531071	2503
2436.29274225125	2513
2438.48128221739	2490
2440.66919549683	2497
2442.8564823773	2448.25
2445.04314314641	2467
2447.22917809176	2458.75
2449.4145875009	2447.25
2451.59937166131	2451.5
2453.78353086044	2438.5
2455.96706538568	2436.25
2458.14997552436	2407.75
2460.33226156379	2409.25
2462.51392379119	2427.5
2464.69496249376	2393.75
2466.87537795862	2399.5
2469.05517047288	2372
2471.23434032357	2396.5
2473.41288779767	2401.5
2475.59081318211	2370.5
2477.76811676378	2380
2479.9447988295	2359
2482.12085966605	2384
2484.29629956016	2367.25
2486.4711187985	2343
2488.64531766769	2337
2490.8188964543	2347.25
2492.99185544484	2337.5
2495.16419492579	2329.75
2497.33591518353	2322
2499.50701650444	2332.25
2501.67749917482	2323.5
2503.84736348091	2325.75
2506.01660970891	2313
2508.18523814496	2271.25
2510.35324907514	2320.25
2512.52064278551	2314
2514.68741956201	2330.75
2516.85357969058	2331
2519.01912345709	2306.75
2521.18405114735	2293.75
2523.34836304711	2296.5
2525.51205944208	2324.5
2527.6751406179	2318.25
2529.83760686016	2292
2531.99945845439	2302.75
2534.16069568606	2288.25
2536.3213188406	2299.5
2538.48132820336	2284.75
2540.64072405965	2284.25
2542.79950669471	2279.25
2544.95767639373	2317
2547.11523344184	2299.25
2549.27217812411	2279.75
2551.42851072555	2266.25
2553.58423153111	2252.25
2555.73934082569	2244.5
2557.89383889412	2237.75
2560.04772602118	2264.5
2562.20100249158	2281
2564.35366858996	2237
2566.50572460093	2245.25
2568.65717080901	2219.25
2570.80800749867	2226
2572.95823495433	2211
2575.10785346031	2217.25
2577.25686330093	2196.25
2579.40526476038	2192.25
2581.55305812282	2194.5
2583.70024367237	2207.5
2585.84682169303	2194.5
2587.99279246879	2172.25
2590.13815628354	2187
2592.28291342112	2164
2594.42706416531	2201.75
2596.5706087998	2176.5
2598.71354760826	2189.75
2600.85588087425	2182.5
2602.99760888127	2196
2605.13873191278	2162
2607.27925025214	2151.75
2609.41916418269	2140.25
2611.55847398764	2172.25
2613.69717995017	2176.25
2615.83528235339	2161.5
2617.97278148034	2144.25
2620.10967761398	2150
2622.2459710372	2153.75
2624.38166203284	2172.5
2626.51675088365	2146.75
2628.65123787231	2136.75
2630.78512328145	2155.5
2632.9184073936	2168.5
2635.05109049124	2145.25
2637.18317285676	2134
2639.31465477248	2137.25
2641.44553652067	2144.5
2643.5758183835	2123.5
2645.70550064309	2143.75
2647.83458358144	2146.25
2649.96306748053	2145
2652.09095262223	2132.5
2654.21823928836	2143
2656.34492776063	2142
2658.47101832071	2100.5
2660.59651125015	2170.25
2662.72140683047	2148.5
2664.84570534309	2141
2666.96940706934	2142.5
2669.0925122905	2161.75
2671.21502128773	2156.75
2673.33693434215	2139.5
2675.45825173479	2166.5
2677.57897374658	2154.75
2679.69910065839	2168
2681.818632751	2155.25
2683.93757030511	2166.5
2686.05591360133	2145.75
2688.17366292021	2162
2690.29081854218	2169.25
2692.40738074762	2125.25
2694.52334981681	2137
2696.63872602995	2141.5
2698.75350966713	2156.5
2700.86770100841	2148.75
2702.98130033371	2159.5
2705.09430792289	2152.75
2707.20672405571	2185.75
2709.31854901185	2181.75
2711.42978307091	2194.25
2713.54042651238	2201.25
2715.65047961567	2209
2717.7599426601	2156.5
2719.86881592491	2179.5
2721.97709968924	2209
2724.08479423213	2176.75
2726.19189983255	2186.25
2728.29841676934	2168
2730.4043453213	2159.25
2732.5096857671	2170.5
2734.61443838532	2155
2736.71860345444	2148.5
2738.82218125286	2137.5
2740.92517205889	2144.75
2743.02757615072	2132.5
2745.12939380646	2143.75
2747.23062530411	2115
2749.33127092159	2108
2751.4313309367	2134.75
2753.53080562716	2113.25
2755.62969527058	2152.25
2757.72800014448	2124
2759.82572052625	2134.75
2761.92285669323	2118
2764.0194089226	2125.25
2766.11537749147	2132.75
2768.21076267686	2116.75
2770.30556475566	2108.5
2772.39978400465	2125.25
2774.49342070054	2116.75
2776.58647511991	2131.75
2778.67894753923	2123
2780.77083823487	2107.25
2782.8621474831	2124.75
2784.95287556007	2140.75
2787.04302274184	2129.25
2789.13258930433	2125
2791.22157552338	2121.75
2793.30998167471	2125.75
2795.39780803392	2147.25
2797.4850548765	2151.5
2799.57172247786	2118.25
2801.65781111324	2110
2803.74332105781	2135.25
2805.82825258661	2106.25
2807.91260597457	2147
2809.9963814965	2126.5
2812.07957942711	2157
2814.16220004096	2144
2816.24424361252	2156.5
2818.32571041614	2166.75
2820.40660072604	2191.75
2822.48691481631	2205.5
2824.56665296098	2201.5
2826.64581543388	2225.75
2828.72440250876	2281.5
2830.80241445925	2316.75
2832.87985155885	2391.25
2834.95671408093	2485.25
2837.03300229875	2643.5
2839.10871648544	2822.75
2841.18385691399	3086
2843.25842385729	3306
2845.33241758808	3506.75
2847.40583837898	3600.5
2849.4786865025	3602.75
2851.550962231	3503.75
2853.6226658367	3407.75
2855.69379759173	3242
2857.76435776806	3166.25
2859.83434663753	3137.25
2861.90376447184	3050.25
2863.97261154259	3016.5
2866.0408881212	3010.25
2868.10859447901	3004.75
2870.17573088717	3051.5
2872.24229761673	3063.25
2874.30829493859	3175.75
2876.37372312352	3347
2878.43858244215	3616.75
2880.50287316496	3848.5
2882.56659556231	3825.25
2884.62974990439	3622.5
2886.69233646129	3410
2888.75435550293	3282
2890.81580729909	3252
2892.87669211941	3202.25
2894.93701023339	3169.5
2896.99676191039	3134.25
2899.05594741961	3195
2901.1145670301	3095.75
2903.1726210108	3048.25
2905.23010963045	3012
2907.28703315768	2947.75
2909.34339186096	2919
2911.39918600861	2908.25
2913.45441586879	2851.5
2915.50908170952	2815.25
2917.56318379867	2821
2919.61672240395	2867.75
2921.66969779291	2830.25
2923.72211023295	2871.75
2925.77395999134	2841
2927.82524733515	2838.75
2929.87597253132	2860.75
2931.92613584663	2814
2933.97573754769	2767
2936.02477790097	2710.25
2938.07325717276	2640.5
2940.1211756292	2635.75
2942.16853353626	2584
2944.21533115976	2495.25
2946.26156876536	2441.75
2948.30724661853	2426.75
2950.3523649846	2361.25
2952.39692412872	2353.75
2954.44092431587	2383.75
2956.48436581089	2346
2958.52724887843	2369.25
2960.56957378296	2365.5
2962.6113407888	2337.5
2964.65255016011	2360.75
2966.69320216083	2360.75
2968.73329705479	2349.75
2970.77283510559	2325.25
2972.81181657671	2335.5
2974.8502417314	2333.5
2976.88811083279	2327.25
2978.92542414378	2348
2980.96218192713	2311.75
2982.99838444541	2332.75
2985.034031961	2331.75
2987.06912473612	2354.25
2989.1036630328	2305
2991.13764711288	2314.5
2993.17107723804	2317
2995.20395366974	2320.5
2997.23627666931	2318.75
2999.26804649782	2340.25
3001.29926341624	2347.5
3003.32992768528	2382.25
3005.3600395655	2339.5
3007.38959931726	2390.25
3009.41860720076	2370
3011.44706347595	2408
3013.47496840263	2369.5
3015.50232224041	2380.25
3017.5291252487	2386.25
3019.5553776867	2380.75
3021.58107981344	2383.25
3023.60623188773	2385.5
3025.63083416822	2371.5
3027.65488691331	2400.75
3029.67839038125	2390.75
3031.70134483007	2413
3033.72375051759	2407.75
3035.74560770144	2415
3037.76691663907	2407.25
3039.78767758768	2419.25
3041.80789080431	2412.5
3043.82755654577	2428.5
3045.84667506867	2425.75
3047.8652466294	2459.25
3049.88327148418	2457.25
3051.90074988899	2451.25
3053.91768209961	2470.75
3055.9340683716	2475.25
3057.94990896033	2443.5
3059.96520412095	2500
3061.97995410838	2494.5
3063.99415917734	2442.75
3066.00781958234	2403
3068.02093557766	2441.5
3070.03350741738	2433.75
3072.04553535535	2448.25
3074.05701964521	2438.5
3076.06796054036	2418
3078.078358294	2435.75
3080.08821315912	2418.75
3082.09752538846	2426
3084.10629523454	2415.25
3086.11452294967	2450.5
3088.12220878592	2429.75
3090.12935299515	2420.25
3092.13595582898	2420.25
3094.1420175388	2401
3096.14753837579	2406
3098.15251859088	2406.5
3100.15695843477	2423
3102.16085815793	2448.5
3104.16421801061	2413.25
3106.16703824282	2398.5
3108.16931910432	2431.5
3110.17106084464	2442
3112.17226371308	2429.75
3114.17292795872	2438
3116.17305383034	2432
3118.17264157657	2428.25
3120.17169144571	2437
3122.17020368587	2435.25
3124.16817854492	2457.25
3126.16561627044	2459.25
3128.16251710982	2476.5
3130.15888131017	2464.25
3132.15470911837	2484.25
3134.15000078104	2466.5
3136.14475654455	2463.25
3138.13897665502	2453.25
3140.13266135835	2469.75
3142.12581090014	2464.75
3144.11842552577	2484
3146.11050548036	2472.5
3148.10205100875	2504.75
3150.09306235557	2489.75
3152.08353976515	2479
3154.07348348158	2466.25
3156.06289374869	2464.25
3158.05177081006	2470.75
3160.04011490899	2495.75
3162.02792628852	2498.75
3164.01520519145	2489.5
3166.00195186029	2469.75
3167.98816653728	2501.5
3169.97384946442	2479.75
3171.95900088344	2518.75
3173.94362103577	2531.75
3175.92771016259	2496.5
3177.91126850484	2501.25
3179.89429630312	2497.25
3181.87679379782	2499.5
3183.85876122903	2530
3185.84019883657	2511.75
3187.82110685997	2533.75
3189.80148553851	2516.25
3191.78133511116	2539.5
3193.76065581664	2530.5
3195.73944789337	2516.75
3197.7177115795	2536.25
3199.6954471129	2547
3201.67265473114	2535
3203.64933467153	2509.25
3205.62548717107	2564.25
3207.60111246648	2519.25
3209.57621079421	2548.75
3211.55078239041	2570.5
3213.52482749093	2555.75
3215.49834633133	2531
3217.4713391469	2583.25
3219.44380617262	2560.5
3221.41574764317	2573.75
3223.38716379296	2571
3225.35805485607	2595.5
3227.32842106631	2568
3229.29826265718	2600.5
3231.26757986187	2627.25
3233.2363729133	2594
3235.20464204405	2589.25
3237.17238748643	2598.75
3239.13960947243	2634.75
3241.10630823374	2651.75
3243.07248400174	2615
3245.03813700748	2660.5
3247.00326748177	2630.25
3248.96787565503	2615.25
3250.93196175742	2648.25
3252.89552601877	2652.75
3254.8585686686	2643.25
3256.82108993612	2642.25
3258.78309005022	2632
3260.74456923948	2638.5
3262.70552773215	2683.25
3264.66596575617	2669.75
3266.62588353916	2639.5
3268.58528130843	2665.75
3270.54415929094	2655.5
3272.50251771336	2661.5
3274.46035680201	2704
3276.4176767829	2677
3278.37447788171	2667.25
3280.33076032379	2694.5
3282.28652433416	2683.75
3284.24177013751	2675.75
3286.1964979582	2677.75
3288.15070802027	2678.25
3290.10440054741	2684.25
3292.05757576298	2688.25
3294.01023389001	2675.5
3295.96237515119	2697.75
3297.91399976887	2699.25
3299.86510796506	2667.5
3301.81569996142	2688.75
3303.76577597932	2712
3305.7153362397	2684
3307.66438096324	2710.25
3309.61291037024	2675.25
3311.56092468064	2694.5
3313.50842411404	2682.75
3315.45540888971	2680.25
3317.40187922656	2697
3319.34783534315	2700
3321.29327745768	2685
3323.23820578801	2668
3325.18262055164	2675.75
3327.1265219657	2674.75
3329.06991024699	2700
3331.01278561194	2702.5
3332.95514827662	2684
3334.89699845674	2684.75
3336.83833636766	2696.25
3338.77916222434	2672.5
3340.71947624143	2686.25
3342.65927863317	2727
3344.59856961346	2687
3346.53734939584	2716.25
3348.47561819344	2718.25
3350.41337621906	2684.5
3352.35062368513	2700
3354.28736080368	2700.25
3356.22358778637	2703
3358.15930484452	2701.75
3360.09451218904	2735.5
3362.02921003047	2688.25
3363.96339857898	2710
3365.89707804436	2711.25
3367.83024863602	2724
3369.76291056299	2714.75
3371.69506403389	2703.5
3373.62670925699	2722.5
3375.55784644016	2716.25
3377.4884757909	2705.25
3379.41859751629	2717
3381.34821182305	2729.5
3383.27731891749	2746.5
3385.20591900555	2699.25
3387.13401229276	2737.75
3389.06159898426	2749.5
3390.9886792848	2754.5
3392.91525339872	2755.75
3394.84132152998	2742.25
3396.76688388213	2754
3398.69194065833	2728.75
3400.61649206133	2752.25
3402.54053829348	2779.75
3404.46407955672	2759.25
3406.3871160526	2747.75
3408.30964798225	2750.75
3410.23167554639	2769.25
3412.15319894535	2792
3414.07421837904	2749.5
3415.99473404695	2766.5
3417.91474614817	2746.75
3419.83425488136	2748.75
3421.75326044479	2774
3423.67176303631	2798.75
3425.58976285332	2778.75
3427.50726009282	2774.5
3429.42425495143	2750.25
3431.34074762528	2760.5
3433.25673831012	2743.75
3435.17222720127	2756
3437.08721449362	2763
3439.00170038164	2737.75
3440.91568505936	2784.5
3442.82916872039	2739.5
3444.74215155791	2760.25
3446.65463376468	2798.75
3448.566615533	2766
3450.47809705476	2737
3452.3890785214	2763.5
3454.29956012393	2789
3456.20954205293	2790.75
3458.11902449853	2777.5
3460.02800765041	2744.25
3461.93649169784	2797.75
3463.84447682962	2744
3465.75196323412	2733
3467.65895109925	2774.75
3469.56544061249	2774.75
3471.47143196086	2756.25
3473.37692533093	2775.25
3475.28192090884	2762.75
3477.18641888026	2760
3479.09041943039	2770.5
3480.99392274402	2765.25
3482.89692900545	2775
3484.79943839853	2763.5
3486.70145110666	2748.25
3488.60296731277	2758.5
3490.50398719933	2754.5
3492.40451094836	2734
3494.30453874141	2748
3496.20407075956	2786
3498.10310718342	2780.75
3500.00164819315	2742.25