201.866871357051	2775
204.754250281454	2785.60009765625
207.640596790938	2796.19995117187
210.525911876299	2811.60009765625
213.410196525689	2801.39990234375
216.293451724508	2786.60009765625
219.175678455485	2796.80004882813
222.056877698662	2822.39990234375
224.937050431388	2774.60009765625
227.816197628363	2814.19995117187
230.694320261602	2835
233.571419300504	2827
236.447495711764	2833.19995117187
239.322550459507	2849.80004882813
242.196584505182	2854.60009765625
245.069598807626	2887.60009765625
247.941594323078	2852.39990234375
250.812572005154	2879.39990234375
253.682532804884	2906.39990234375
256.551477670699	2896.19995117188
259.419407548456	2873.19995117187
262.286323381439	2874.60009765625
265.152226110364	2884.19995117188
268.017116673389	2903.80004882812
270.880996006115	2904.60009765625
273.743865041622	2887.60009765625
276.605724710436	2934.60009765625
279.466575940562	2917
282.326419657496	2926
285.1852567842	2933.39990234375
288.043088241157	2906.19995117188
290.899914946349	2911.80004882812
293.75573781526	2938.80004882812
296.610557760898	2940.60009765625
299.464375693817	2936.60009765625
302.317192522078	2965
305.169009151297	2945.60009765625
308.019826484655	2948
310.86964542287	2953.80004882812
313.718466864233	2943.39990234375
316.566291704614	2928
319.413120837457	2951
322.258955153804	2953.19995117188
325.103795542291	2917.19995117188
327.947642889128	2944.19995117188
330.79049807819	2948.60009765625
333.632361990927	2943
336.473235506444	2934.80004882812
339.31311950145	2950.19995117188
342.152014850322	2921.80004882812
344.989922425062	2966.80004882812
347.826843095354	2960.80004882812
350.662777728528	2979.19995117188
353.497727189577	2971.80004882812
356.331692341195	2993.60009765625
359.164674043732	3000.39990234375
361.996673155267	2993.60009765625
364.827690531536	3005.80004882812
367.65772702602	3000.19995117188
370.486783489887	3023.19995117188
373.314860772047	3019.19995117188
376.14195971912	3029.60009765625
378.968081175466	3006.39990234375
381.793225983212	2986
384.617394982201	3026.19995117188
387.44058901005	3038.80004882812
390.262808902131	3004.80004882812
393.08405549161	3013.60009765625
395.904329609395	2992
398.723632084213	2993.60009765625
401.541963742569	3016
404.359325408779	3012.80004882812
407.175717904938	3005.60009765625
409.991142050982	3032
412.805598664665	3040
415.619088561551	3039.39990234375
418.43161255505	3015.80004882812
421.243171456415	3019.80004882812
424.053766074758	3038.60009765625
426.863397217017	3001
429.672065688024	3027
432.479772290455	3041.60009765625
435.286517824879	3056
438.092303089736	3062.80004882812
440.897128881359	3031.80004882812
443.70099599399	3035.80004882812
446.503905219761	3018
449.305857348711	3040.80004882812
452.106853168796	3076
454.906893465919	3021.60009765625
457.705979023885	3029
460.504110624439	3049.39990234375
463.3012890473	3001.39990234375
466.097515070087	2989.80004882812
468.892789468424	2981.19995117188
471.687113015869	3006.39990234375
474.48048648395	2995.80004882812
477.272910642198	3008.60009765625
480.064386258109	2999.19995117188
482.854914097159	3006.19995117188
485.644494922839	3029.39990234375
488.433129496636	3015.60009765625
491.220818578047	3035.39990234375
494.007562924584	3052.80004882812
496.793363291785	3077
499.578220433217	3035
502.362135100473	3077.19995117188
505.145108043209	3066.80004882812
507.927140009098	3058
510.708231743909	3052.39990234375
513.488383991433	3069.80004882812
516.267597493556	3062.19995117188
519.04587299022	3070
521.82321121946	3037
524.599612917398	3063.60009765625
527.375078818233	3053.80004882812
530.149609654287	3031
532.923206155967	3055.80004882812
535.695869051804	3028.39990234375
538.467599068448	3039.60009765625
541.238396930665	3017
544.008263361364	3014
546.777199081578	3018.39990234375
549.545204810493	3002.39990234375
552.312281265436	3000.39990234375
555.078429161898	2992.19995117188
557.843649213533	2998.19995117188
560.607942132156	2974.60009765625
563.371308627753	3004.60009765625
566.133749408495	3012.80004882812
568.895265180756	3045.60009765625
571.655856649064	3014.60009765625
574.415524516189	3041.19995117188
577.174269483075	3019
579.932092248884	3071.39990234375
582.688993510994	3037.60009765625
585.444973965023	3069.80004882812
588.200034304795	3059.39990234375
590.95417522237	3017.60009765625
593.70739740807	3034.19995117188
596.459701550433	3059.39990234375
599.21108833628	3068.80004882812
601.961558450668	3038.19995117188
604.711112576933	3019.19995117188
607.459751396673	3043.60009765625
610.207475589748	3014.19995117188
612.954285834338	3036.19995117188
615.700182806879	2982.19995117188
618.445167182101	2983.19995117188
621.189239633055	2996.80004882812
623.932400831087	2968.60009765625
626.674651445839	2982.80004882812
629.415992145303	2979.19995117188
632.156423595745	2965.19995117188
634.895946461813	2919.39990234375
637.634561406449	2956.60009765625
640.37226909096	2945.80004882812
643.109070174978	2949.60009765625
645.844965316508	2989.80004882812
648.579955171888	2980.19995117188
651.314040395846	2979.80004882812
654.047221641456	2968
656.779499560176	2973.19995117188
659.510874801828	2957.60009765625
662.241348014642	2929.60009765625
664.97091984524	2992.39990234375
667.699590938606	2997.80004882812
670.427361938164	2974.19995117188
673.15423348573	2973
675.880206221526	3004.80004882812
678.605280784206	3024.80004882812
681.329457810829	2965.80004882812
684.05273793692	2995.19995117188
686.775121796389	3005.19995117188
689.49661002163	2978.80004882812
692.217203243454	2990.39990234375
694.936902091144	2962.19995117188
697.655707192425	2940
700.373619173493	2930.60009765625
703.09063865901	2927.80004882812
705.806766272093	2954
708.522002634378	2950.60009765625
711.236348365946	2963.19995117188
713.94980408538	2925.19995117188
716.662370409762	2925.60009765625
719.374047954676	2934.19995117188
722.08483733419	2912.80004882812
724.794739160909	2921.19995117188
727.503754045949	2954.80004882812
730.21188259892	2938.19995117188
732.919125427998	2909
735.625483139855	2935.39990234375
738.330956339723	2942.19995117188
741.035545631374	2967.19995117188
743.739251617106	2996.39990234375
746.44207489779	2943
749.144016072852	2956.80004882812
751.845075740272	2971.60009765625
754.545254496603	2953.39990234375
757.244552936976	2994
759.94297165508	2984.60009765625
762.640511243222	2934.39990234375
765.337172292249	2967.19995117188
768.032955391649	2936.80004882812
770.727861129482	2959.60009765625
773.421890092413	2958
776.11504286572	2976
778.807320033298	2940.60009765625
781.49872217765	2929.80004882812
784.18924987991	2923
786.87890371984	2917.19995117188
789.567684275826	2923.60009765625
792.255592124908	2930
794.94262784276	2932.39990234375
797.628792003703	2901.39990234375
800.314085180715	2885
802.998507945427	2902.80004882812
805.682060868145	2919.60009765625
808.364744517821	2938.19995117188
811.046559462105	2923.60009765625
813.727506267311	2879.80004882813
816.407585498422	2911.39990234375
819.08679771913	2927.60009765625
821.765143491822	2915.60009765625
824.442623377563	2955.80004882812
827.119237936127	2929.39990234375
829.794987726003	2942
832.469873304377	2959.80004882812
835.143895227167	2933.80004882812
837.817054048985	2942.19995117188
840.489350323205	2935.80004882812
843.160784601892	2951.60009765625
845.831357435894	2964.19995117188
848.501069374739	2951
851.169920966753	2952.39990234375
853.837912758987	2968
856.505045297232	2966.80004882812
859.171319126071	2964.60009765625
861.836734788823	2949.80004882812
864.501292827579	2982.39990234375
867.164993783208	2946.80004882812
869.827838195361	2954.39990234375
872.489826602454	2958
875.150959541701	2992.19995117188
877.811237549104	2941.19995117188
880.470661159456	2929.19995117188
883.129230906357	2951.39990234375
885.786947322205	2917.60009765625
888.443810938206	2919
891.099822284385	2911
893.754981889586	2887.39990234375
896.409290281452	2937
899.062747986485	2939.80004882812
901.715355529999	2923.19995117188
904.367113436154	2984.39990234375
907.01802222793	2958.19995117188
909.668082427172	2938
912.317294554574	2957.80004882812
914.965659129659	2956.80004882812
917.613176670835	2936.39990234375
920.259847695364	2979
922.90567271936	2961
925.550652257825	2964
928.194786824621	2975.80004882812
930.838076932512	2944.39990234375
933.480523093109	2986
936.122125816953	2985.60009765625
938.762885613447	2993.39990234375
941.402802990899	2986.39990234375
944.041878456523	2993.80004882812
946.680112516428	3010
949.31750567563	3000.39990234375
951.954058438081	3014.19995117188
954.589771306633	3013.60009765625
957.224644783048	3003.19995117188
959.858679368044	2999.80004882812
962.491875561238	3012.19995117188
965.12423386121	3010.80004882812
967.75575476545	2993
970.386438770423	3020.60009765625
973.016286371501	3013.39990234375
975.645298063046	3003.60009765625
978.273474338355	2994
980.900815689674	3052
983.527322608243	2999.19995117188
986.152995584245	3019.39990234375
988.777835106834	3036
991.401841664148	3018.60009765625
994.025015743307	3009.80004882812
996.647357830407	2979.80004882812
999.268868410534	3022.80004882812
1001.88954796777	3030.19995117188
1004.50939698518	3034.80004882812
1007.12841594484	3062.80004882812
1009.74660532783	3039.60009765625
1012.36396561423	3082.19995117188
1014.98049728314	3060.19995117188
1017.59620081267	3027.60009765625
1020.21107667995	3042.80004882812
1022.82512536112	3075.80004882812
1025.43834733138	3083.39990234375
1028.05074306493	3076.39990234375
1030.66231303501	3095.39990234375
1033.27305771392	3081.80004882812
1035.88297757299	3105.39990234375
1038.49207308257	3078
1041.10034471211	3103.60009765625
1043.70779293008	3109.39990234375
1046.31441820402	3117.80004882812
1048.92022100052	3131.19995117188
1051.52520178525	3135.60009765625
1054.12936102295	3120.60009765625
1056.73269917742	3175.39990234375
1059.33521671154	3157.39990234375
1061.93691408729	3121.19995117188
1064.53779176571	3169.60009765625
1067.13785020694	3129.39990234375
1069.73708987022	3166.19995117188
1072.33551121386	3149
1074.93311469528	3134.60009765625
1077.52990077103	3129.80004882812
1080.12586989674	3117.60009765625
1082.72102252714	3133
1085.31535911611	3149
1087.90888011663	3152.80004882812
1090.50158598078	3148.80004882812
1093.09347715979	3171
1095.68455410403	3179.80004882812
1098.27481726296	3158.19995117188
1100.86426708523	3194.80004882812
1103.45290401857	3183.19995117188
1106.04072850991	3195.80004882812
1108.6277410053	3185
1111.21394194993	3177.60009765625
1113.79933178816	3222.80004882812
1116.3839109635	3238
1118.96767991862	3218.39990234375
1121.55063909539	3262.39990234375
1124.13278893477	3239.80004882812
1126.71412987696	3282.39990234375
1129.29466236132	3286.80004882812
1131.87438682637	3288.19995117188
1134.45330370982	3293.60009765625
1137.03141344858	3306.80004882812
1139.60871647872	3301
1142.18521323554	3283.60009765625
1144.7609041535	3325.39990234375
1147.33578966629	3343.60009765625
1149.90987020676	3319.60009765625
1152.48314620702	3305.80004882812
1155.05561809835	3307
1157.62728631125	3362.19995117188
1160.19815127545	3367.80004882812
1162.76821341988	3348.19995117188
1165.33747317271	3354.80004882812
1167.90593096133	3350.39990234375
1170.47358721235	3368
1173.04044235163	3354.39990234375
1175.60649680425	3370
1178.17175099454	3350.80004882812
1180.73620534607	3385.39990234375
1183.29986028165	3366.19995117188
1185.86271622336	3354.19995117188
1188.42477359249	3392.39990234375
1190.98603280964	3377
1193.54649429462	3407
1196.10615846653	3390.19995117188
1198.66502574372	3373.39990234375
1201.22309654385	3430
1203.78037128378	3408
1206.33685037971	3401
1208.89253424709	3420
1211.44742330063	3389.19995117188
1214.00151795438	3446.60009765625
1216.55481862163	3441.19995117188
1219.10732571497	3457
1221.65903964631	3450.60009765625
1224.20996082683	3464.80004882812
1226.760089667	3471.19995117188
1229.30942657664	3484.60009765625
1231.85797196483	3554.39990234375
1234.40572623998	3532.19995117188
1236.95268980981	3563.19995117188
1239.49886308136	3554
1242.04424646098	3586.80004882812
1244.58884035435	3623
1247.13264516647	3608.60009765625
1249.67566130166	3629.39990234375
1252.21788916358	3643.39990234375
1254.75932915524	3687
1257.29998167896	3713
1259.83984713639	3725.19995117188
1262.37892592857	3744
1264.91721845586	3749.39990234375
1267.45472511795	3765.60009765625
1269.9914463139	3765.60009765625
1272.52738244213	3798.19995117188
1275.0625339004	3779.60009765625
1277.59690108587	3844.39990234375
1280.130484395	3847.60009765625
1282.66328422367	3829.60009765625
1285.19530096712	3852.60009765625
1287.72653501993	3947
1290.25698677608	3888.60009765625
1292.78665662894	3970.39990234375
1295.31554497125	3946.19995117188
1297.8436521951	3972
1300.37097869203	3981
1302.89752485292	3967.39990234375
1305.42329106805	3992.19995117188
1307.94827772713	4041
1310.47248521921	4002.19995117188
1312.99591393279	4065.39990234375
1315.51856425575	4079.60009765625
1318.04043657536	4108.39990234375
1320.56153127836	4107.60009765625
1323.08184875083	4174.60009765625
1325.6013893783	4176
1328.12015354572	4212.2001953125
1330.63814163744	4253
1333.15535403727	4278.39990234375
1335.67179112839	4324.39990234375
1338.18745329347	4342
1340.70234091454	4376.39990234375
1343.21645437314	4383.60009765625
1345.72979405019	4426.39990234375
1348.24236032607	4432.2001953125
1350.75415358059	4486.60009765625
1353.26517419303	4556.60009765625
1355.7754225421	4544.7998046875
1358.28489900594	4575.39990234375
1360.79360396218	4633.39990234375
1363.30153778787	4661.2001953125
1365.80870085955	4639
1368.31509355319	4653.2001953125
1370.82071624424	4685.7998046875
1373.32556930762	4731.60009765625
1375.8296531177	4752.39990234375
1378.33296804832	4771.60009765625
1380.83551447282	4767.39990234375
1383.33729276399	4795.2001953125
1385.83830329408	4827.39990234375
1388.33854643489	4871.60009765625
1390.83802255762	4859.2001953125
1393.33673203301	4915.60009765625
1395.83467523128	4912.60009765625
1398.33185252211	4907.39990234375
1400.82826427471	4949.7998046875
1403.32391085777	4993.2001953125
1405.81879263947	5009
1408.31290998752	5071.2001953125
1410.80626326908	5078.7998046875
1413.29885285087	5138.2001953125
1415.79067909909	5160.7998046875
1418.28174237944	5208.39990234375
1420.77204305717	5248.2001953125
1423.26158149702	5308
1425.75035806323	5392.2001953125
1428.2383731196	5371.2001953125
1430.72562702942	5444.60009765625
1433.21212015554	5507
1435.69785286028	5611
1438.18282550555	5693
1440.66703845275	5688.39990234375
1443.15049206284	5721.39990234375
1445.6331866963	5825.60009765625
1448.11512271316	5887.2001953125
1450.59630047298	5966
1453.07672033486	5988.2001953125
1455.55638265748	6080.60009765625
1458.03528779902	6125.7998046875
1460.51343611725	6204.7998046875
1462.99082796946	6282.60009765625
1465.46746371252	6292.7998046875
1467.94334370285	6367.39990234375
1470.41846829642	6374.7998046875
1472.89283784878	6447.7998046875
1475.36645271503	6539
1477.83931324983	6523.7998046875
1480.31141980743	6651
1482.78277274164	6720.60009765625
1485.25337240583	6677.7998046875
1487.72321915297	6725.39990234375
1490.19231333557	6829.2001953125
1492.66065530578	6842.39990234375
1495.12824541525	6890.60009765625
1497.5950840153	7032.39990234375
1500.06117145678	7022
1502.52650809014	7114.39990234375
1504.99109426543	7180.60009765625
1507.45493033227	7240.2001953125
1509.91801663992	7277.2001953125
1512.38035353717	7392.2001953125
1514.84194137248	7414.60009765625
1517.30278049386	7512
1519.76287124894	7629.60009765625
1522.22221398497	7577.39990234375
1524.68080904876	7698.60009765625
1527.13865678681	7763.60009765625
1529.59575754514	7854.39990234375
1532.05211166945	8012.39990234375
1534.50771950503	8090
1536.96258139678	8136.39990234375
1539.41669768924	8215
1541.87006872656	8270
1544.32269485252	8372.2001953125
1546.77457641051	8415
1549.22571374357	8617.599609375
1551.67610719434	8666.400390625
1554.12575710513	8737.599609375
1556.57466381785	8817.599609375
1559.02282767408	8903
1561.47024901499	9008
1563.91692818144	9140
1566.3628655139	9223.599609375
1568.80806135249	9280.2001953125
1571.252516037	9328.599609375
1573.6962299068	9488.400390625
1576.13920330099	9520.2001953125
1578.58143655828	9679
1581.02293001704	9727.7998046875
1583.46368401528	9788.7998046875
1585.90369889071	9860.2001953125
1588.34297498065	9945.599609375
1590.7815126221	10052
1593.21931215173	10144.2001953125
1595.65637390588	10189
1598.09269822053	10157.400390625
1600.52828543135	10317
1602.96313587367	10331.2001953125
1605.3972498825	10371.599609375
1607.83062779252	10366
1610.26326993808	10451.7998046875
1612.69517665322	10505.7998046875
1615.12634827165	10556.7998046875
1617.55678512676	10599.7998046875
1619.98648755163	10554.599609375
1622.41545587902	10594
1624.84369044138	10705
1627.27119157085	10754.7998046875
1629.69795959924	10903.599609375
1632.12399485808	10799.400390625
1634.54929767859	10881.400390625
1636.97386839165	11018.7998046875
1639.39770732789	10994
1641.8208148176	11066.7998046875
1644.24319119078	11119
1646.66483677715	11167.7998046875
1649.0857519061	11301.599609375
1651.50593690677	11367.2001953125
1653.92539210795	11515
1656.3441178382	11445.400390625
1658.76211442575	11548.599609375
1661.17938219855	11553.599609375
1663.59592148428	11751.599609375
1666.01173261032	11746
1668.42681590377	11894.2001953125
1670.84117169145	11900.400390625
1673.25480029991	11920.400390625
1675.66770205541	11943.7998046875
1678.07987728393	12109.7998046875
1680.49132631119	12215.2001953125
1682.90204946263	12246
1685.31204706342	12321
1687.72131943846	12354
1690.1298669124	12373.2001953125
1692.53768980957	12526
1694.94478845411	12461.2001953125
1697.35116316982	12537.599609375
1699.75681428031	12591.2001953125
1702.16174210887	12546.599609375
1704.56594697858	12577.2001953125
1706.96942921222	12804
1709.37218913235	12766.7998046875
1711.77422706125	12729.599609375
1714.17554332098	12755.2001953125
1716.5761382333	12918.2001953125
1718.97601211977	12873.7998046875
1721.37516530169	12881
1723.77359810006	12832.599609375
1726.17131083572	12848.7998046875
1728.56830382922	12942.599609375
1730.96457740087	13042.400390625
1733.36013187075	12965
1735.75496755868	13052
1738.14908478428	13057
1740.54248386689	13094.2001953125
1742.93516512565	13046.599609375
1745.32712887946	13244
1747.71837544697	13161.599609375
1750.10890514662	13295.599609375
1752.49871829661	13268.599609375
1754.88781521492	13362.400390625
1757.27619621929	13450.400390625
1759.66386162726	13392
1762.05081175612	13529.599609375
1764.43704692297	13603.2001953125
1766.82256744465	13590.400390625
1769.20737363782	13767.2001953125
1771.59146581887	13665.599609375
1773.97484430405	13865.400390625
1776.35750940932	13957
1778.73946145048	13942.7998046875
1781.12070074309	14034.400390625
1783.50122760249	14157.599609375
1785.88104234385	14213.599609375
1788.26014528209	14238
1790.63853673196	14290.400390625
1793.01621700796	14380.599609375
1795.39318642443	14514.400390625
1797.76944529549	14513.400390625
1800.14499393503	14645
1802.51983265681	14573.400390625
1804.8939617743	14806
1807.26738160085	14925.400390625
1809.64009244957	14886.7998046875
1812.01209463339	14870.599609375
1814.38338846504	15079.599609375
1816.75397425706	14951.2001953125
1819.12385232181	15147.7998046875
1821.49302297142	15153.2001953125
1823.86148651789	15204.400390625
1826.22924327299	15130.7998046875
1828.59629354831	15395.400390625
1830.96263765526	15256.400390625
1833.32827590507	15357.2001953125
1835.69320860877	15400.7998046875
1838.05743607724	15501
1840.42095862113	15560.2001953125
1842.78377655097	15483.7998046875
1845.14589017707	15542.2001953125
1847.50729980956	15635.599609375
1849.86800575843	15670.2001953125
1852.22800833346	15699.2001953125
1854.58730784427	15817
1856.94590460032	15931
1859.30379891087	16019.2001953125
1861.66099108503	16056.7998046875
1864.01748143175	16201.2001953125
1866.37327025978	16185
1868.72835787773	16149
1871.08274459403	16362.400390625
1873.43643071697	16371.2001953125
1875.78941655464	16541.400390625
1878.14170241498	16495.400390625
1880.4932886058	16637.400390625
1882.84417543469	16766
1885.19436320915	16836
1887.54385223646	16808.19921875
1889.89264282378	17077.599609375
1892.24073527809	17088.19921875
1894.58812990625	17211.80078125
1896.93482701493	17374
1899.28082691067	17385
1901.62612989984	17537.400390625
1903.97073628868	17626
1906.31464638326	17704.19921875
1908.6578604895	17793.400390625
1911.00037891321	17883.400390625
1913.34220196	17939.19921875
1915.68332993537	17997.599609375
1918.02376314468	18055
1920.36350189311	18057
1922.70254648573	18154
1925.04089722744	18187
1927.37855442303	18215.80078125
1929.71551837715	18339.599609375
1932.05178939426	18223.400390625
1934.38736777876	18308.599609375
1936.72225383484	18260.19921875
1939.0564478666	18667.400390625
1941.38995017799	18517.80078125
1943.72276107283	18663.599609375
1946.05488085479	18564.80078125
1948.38630982744	18485.80078125
1950.71704829419	18639
1953.04709655832	18628.80078125
1955.376454923	18562.400390625
1957.70512369126	18707.19921875
1960.03310316599	18769.80078125
1962.36039364999	18757.400390625
1964.68699544589	18850.19921875
1967.01290885622	18880.19921875
1969.33813418338	19001
1971.66267172965	19095.599609375
1973.98652179718	19100.400390625
1976.309684688	19293.19921875
1978.63216070402	19377.80078125
1980.95395014705	19684
1983.27505331873	19431
1985.59547052063	19594.599609375
1987.9152020542	19765.400390625
1990.23424822074	19741
1992.55260932146	19779
1994.87028565746	19954.80078125
1997.18727752968	20017.599609375
1999.503585239	20248.599609375
2001.81920908618	20233.80078125
2004.13414937184	20361.599609375
2006.44840639651	20724.80078125
2008.7619804606	20760.19921875
2011.07487186442	20963.599609375
2013.38708090815	21235.19921875
2015.6986078919	21137.80078125
2018.00945311564	21346.400390625
2020.31961687923	21479
2022.62909948246	21638.80078125
2024.93790122498	21741.400390625
2027.24602240636	21990.400390625
2029.55346332604	21956.599609375
2031.86022428337	22129.80078125
2034.16630557761	22443.19921875
2036.47170750791	22394.400390625
2038.77643037331	22530.400390625
2041.08047447275	22798.80078125
2043.38384010509	22735.599609375
2045.68652756907	22979.400390625
2047.98853716335	22983
2050.28986918648	23109
2052.59052393692	23330.400390625
2054.89050171302	23419.400390625
2057.18980281306	23603.400390625
2059.4884275352	23693.19921875
2061.78637617753	23655.400390625
2064.08364903802	23800
2066.38024641457	23806.80078125
2068.67616860497	24085
2070.97141590694	24076.80078125
2073.26598861809	24155.400390625
2075.55988703595	24218
2077.85311145796	24373.19921875
2080.14566218145	24568.400390625
2082.43753950371	24699.400390625
2084.72874372188	24710.400390625
2087.01927513307	24718.400390625
2089.30913403428	24921.599609375
2091.59832072241	25044.19921875
2093.88683549429	25037.599609375
2096.17467864666	25209.599609375
2098.46185047619	25507
2100.74835127944	25710.80078125
2103.03418135292	25873
2105.31934099303	25600.19921875
2107.6038304961	26025.599609375
2109.88765015838	26106.400390625
2112.17080027602	26114.80078125
2114.45328114513	26425.19921875
2116.7350930617	26496.80078125
2119.01623632165	26627.19921875
2121.29671122085	26486.599609375
2123.57651805505	26812.599609375
2125.85565711996	27011.400390625
2128.13412871117	27061.400390625
2130.41193312424	27287.19921875
2132.68907065462	27328.19921875
2134.96554159771	27392.599609375
2137.24134624881	27364.19921875
2139.51648490317	27675.599609375
2141.79095785593	27752
2144.0647654022	27794.19921875
2146.33790783698	27784
2148.61038545524	27782.80078125
2150.88219855182	28073
2153.15334742154	28078.19921875
2155.42383235911	28220.80078125
2157.6936536592	28234.599609375
2159.9628116164	28171.80078125
2162.23130652522	28253.19921875
2164.49913868011	28285.19921875
2166.76630837544	28347.80078125
2169.03281590552	28386.599609375
2171.2986615646	28395.19921875
2173.56384564685	28157.80078125
2175.82836844637	28253
2178.0922302572	28253.19921875
2180.35543137332	28363.80078125
2182.61797208862	28344
2184.87985269695	28138.599609375
2187.14107349208	28075.80078125
2189.40163476773	28289
2191.66153681753	28140.80078125
2193.92077993507	27981.80078125
2196.17936441386	27948.80078125
2198.43729054735	28024.19921875
2200.69455862894	27910
2202.95116895194	27897.19921875
2205.20712180962	27744.19921875
2207.46241749519	27820
2209.71705630179	27702
2211.97103852248	27539.599609375
2214.2243644503	27557.80078125
2216.47703437819	27429.599609375
2218.72904859905	27213.19921875
2220.98040740571	27334.599609375
2223.23111109095	27219.400390625
2225.4811599475	27022.599609375
2227.73055426799	27060.599609375
2229.97929434504	26924
2232.22738047118	26678.80078125
2234.47481293889	26743.599609375
2236.72159204058	26889.599609375
2238.96771806864	26561.599609375
2241.21319131536	26372.80078125
2243.458012073	26274
2245.70218063374	26184
2247.94569728973	26264.599609375
2250.18856233304	26035.80078125
2252.4307760557	25631
2254.67233874967	25813
2256.91325070687	25622.599609375
2259.15351221915	25570.400390625
2261.39312357831	25366.400390625
2263.63208507611	25179.80078125
2265.87039700422	25262.400390625
2268.1080596543	25175.19921875
2270.34507331792	24947.19921875
2272.5814382866	24813
2274.81715485183	24891.19921875
2277.05222330502	24678.400390625
2279.28664393755	24612.400390625
2281.52041704072	24463.19921875
2283.75354290581	24359.400390625
2285.98602182401	24151
2288.21785408648	24063.599609375
2290.44903998434	24083.19921875
2292.67957980862	23912.599609375
2294.90947385033	23626.80078125
2297.1387224004	23586.599609375
2299.36732574975	23617.80078125
2301.59528418921	23479.80078125
2303.82259800958	23362.80078125
2306.04926750158	23282.400390625
2308.27529295593	23040.400390625
2310.50067466325	22977.19921875
2312.72541291412	22846.599609375
2314.9495079991	22729.599609375
2317.17296020866	22455
2319.39576983323	22504
2321.61793716322	22464.80078125
2323.83946248894	22167.19921875
2326.06034610069	22253.19921875
2328.28058828871	22050.400390625
2330.50018934317	21949.19921875
2332.7191495542	21801.19921875
2334.93746921192	21736
2337.15514860633	21540.80078125
2339.37218802743	21553.80078125
2341.58858776516	21250.80078125
2343.80434810941	21289.599609375
2346.01946935001	21094.19921875
2348.23395177675	21071.400390625
2350.44779567939	20973.80078125
2352.66100134759	20760.19921875
2354.87356907101	20845.599609375
2357.08549913925	20575.80078125
2359.29679184185	20442
2361.50744746829	20586
2363.71746630804	20381.400390625
2365.92684865048	20186.400390625
2368.13559478499	20152.19921875
2370.34370500083	20027.400390625
2372.55117958727	19938.599609375
2374.75801883352	19851
2376.96422302874	19691.19921875
2379.16979246202	19569.599609375
2381.37472742243	19467
2383.57902819898	19436.599609375
2385.78269508063	19227.80078125
2387.98572835629	19179.400390625
2390.18812831482	19166
2392.38989524505	19080
2394.59102943573	19026.599609375
2396.79153117559	18898
2398.9914007533	18853.80078125
2401.19063845748	18844
2403.38924457672	18727
2405.58721939951	18536.599609375
2407.78456321435	18503
2409.98127630966	18432.80078125
2412.17735897382	18486.599609375
2414.37281149517	18339.400390625
2416.56763416198	18286
2418.76182726249	18362.19921875
2420.95539108487	18111.80078125
2423.14832591726	18060
2425.34063204776	17940.599609375
2427.53230976439	17866.19921875
2429.72335935513	17946.19921875
2431.91378110795	17786.80078125
2434.10357531071	17690.19921875
2436.29274225125	17810.80078125
2438.48128221739	17543.599609375
2440.66919549683	17505.80078125
2442.8564823773	17478
2445.04314314641	17416.19921875
2447.22917809176	17358
2449.4145875009	17302.80078125
2451.59937166131	17151.80078125
2453.78353086044	17241
2455.96706538568	17057
2458.14997552436	16928.19921875
2460.33226156379	16885.599609375
2462.51392379119	16933
2464.69496249376	16663.599609375
2466.87537795862	16651.80078125
2469.05517047288	16617.599609375
2471.23434032357	16549
2473.41288779767	16594.19921875
2475.59081318211	16469
2477.76811676378	16382
2479.9447988295	16341
2482.12085966605	16180.2001953125
2484.29629956016	16183.2001953125
2486.4711187985	16200.400390625
2488.64531766769	16126.2001953125
2490.8188964543	16093.7998046875
2492.99185544484	16034.2001953125
2495.16419492579	15988
2497.33591518353	15993.2001953125
2499.50701650444	15863.400390625
2501.67749917482	15859.2001953125
2503.84736348091	15787.7998046875
2506.01660970891	15773.599609375
2508.18523814496	15679.599609375
2510.35324907514	15644.599609375
2512.52064278551	15608.2001953125
2514.68741956201	15613.400390625
2516.85357969058	15767.2001953125
2519.01912345709	15695.400390625
2521.18405114735	15467.2001953125
2523.34836304711	15479.400390625
2525.51205944208	15489.400390625
2527.6751406179	15379.2001953125
2529.83760686016	15435.2001953125
2531.99945845439	15365.599609375
2534.16069568606	15360.599609375
2536.3213188406	15315
2538.48132820336	15173.400390625
2540.64072405965	15185.2001953125
2542.79950669471	15127.2001953125
2544.95767639373	15241.400390625
2547.11523344184	15126.599609375
2549.27217812411	15054.7998046875
2551.42851072555	15023.400390625
2553.58423153111	14969.400390625
2555.73934082569	14794.599609375
2557.89383889412	14789.400390625
2560.04772602118	14828.2001953125
2562.20100249158	14704.2001953125
2564.35366858996	14662.400390625
2566.50572460093	14588.599609375
2568.65717080901	14538.7998046875
2570.80800749867	14602.400390625
2572.95823495433	14443.2001953125
2575.10785346031	14367.2001953125
2577.25686330093	14314.7998046875
2579.40526476038	14179.2001953125
2581.55305812282	14116.7998046875
2583.70024367237	14053.7998046875
2585.84682169303	14026.2001953125
2587.99279246879	13978
2590.13815628354	13918
2592.28291342112	13888.599609375
2594.42706416531	13934.2001953125
2596.5706087998	13814.599609375
2598.71354760826	13943.7998046875
2600.85588087425	13818.400390625
2602.99760888127	13786.599609375
2605.13873191278	13691
2607.27925025214	13591.2001953125
2609.41916418269	13618
2611.55847398764	13619
2613.69717995017	13518.400390625
2615.83528235339	13693.2001953125
2617.97278148034	13612.400390625
2620.10967761398	13567.400390625
2622.2459710372	13599.400390625
2624.38166203284	13572.7998046875
2626.51675088365	13504
2628.65123787231	13419.7998046875
2630.78512328145	13439.2001953125
2632.9184073936	13419.2001953125
2635.05109049124	13428.400390625
2637.18317285676	13376.7998046875
2639.31465477248	13446.2001953125
2641.44553652067	13405.400390625
2643.5758183835	13309
2645.70550064309	13356
2647.83458358144	13323
2649.96306748053	13333.7998046875
2652.09095262223	13337
2654.21823928836	13327.599609375
2656.34492776063	13259.2001953125
2658.47101832071	13233.7998046875
2660.59651125015	13198.2001953125
2662.72140683047	13281.599609375
2664.84570534309	13152.7998046875
2666.96940706934	13192.400390625
2669.0925122905	13081.400390625
2671.21502128773	13142.599609375
2673.33693434215	13157.599609375
2675.45825173479	13123
2677.57897374658	13071.2001953125
2679.69910065839	13174.2001953125
2681.818632751	13094.7998046875
2683.93757030511	13055.599609375
2686.05591360133	12939
2688.17366292021	13017
2690.29081854218	12993.7998046875
2692.40738074762	12783.2001953125
2694.52334981681	12939.599609375
2696.63872602995	12915.2001953125
2698.75350966713	12983.2001953125
2700.86770100841	12998.2001953125
2702.98130033371	12884
2705.09430792289	12861.2001953125
2707.20672405571	12852
2709.31854901185	12951.400390625
2711.42978307091	12879
2713.54042651238	12882.2001953125
2715.65047961567	12965
2717.7599426601	12875
2719.86881592491	12916.599609375
2721.97709968924	12866.2001953125
2724.08479423213	12800.400390625
2726.19189983255	12865.7998046875
2728.29841676934	12873.599609375
2730.4043453213	12882
2732.5096857671	12963.599609375
2734.61443838532	12802
2736.71860345444	12758
2738.82218125286	12868.400390625
2740.92517205889	12897.400390625
2743.02757615072	12944.7998046875
2745.12939380646	12802.2001953125
2747.23062530411	12863.7998046875
2749.33127092159	12874.7998046875
2751.4313309367	12841.599609375
2753.53080562716	12902.2001953125
2755.62969527058	12962.599609375
2757.72800014448	12880.7998046875
2759.82572052625	12913.400390625
2761.92285669323	12875
2764.0194089226	12819
2766.11537749147	12814
2768.21076267686	12901.599609375
2770.30556475566	12757.599609375
2772.39978400465	12880.2001953125
2774.49342070054	12776.2001953125
2776.58647511991	12876.2001953125
2778.67894753923	12801.2001953125
2780.77083823487	12926.599609375
2782.8621474831	12708.2001953125
2784.95287556007	12802.2001953125
2787.04302274184	12797.599609375
2789.13258930433	12807.7998046875
2791.22157552338	12785.7998046875
2793.30998167471	12770.400390625
2795.39780803392	12822.599609375
2797.4850548765	12805
2799.57172247786	12739
2801.65781111324	12672.7998046875
2803.74332105781	12840.400390625
2805.82825258661	12806.400390625
2807.91260597457	12775.400390625
2809.9963814965	12769.2001953125
2812.07957942711	12774
2814.16220004096	12721.2001953125
2816.24424361252	12741.2001953125
2818.32571041614	12799.400390625
2820.40660072604	12821.7998046875
2822.48691481631	12875
2824.56665296098	12878.599609375
2826.64581543388	12856.400390625
2828.72440250876	12957.400390625
2830.80241445925	12867
2832.87985155885	12905
2834.95671408093	12985.7998046875
2837.03300229875	13020.599609375
2839.10871648544	13039.7998046875
2841.18385691399	13157.2001953125
2843.25842385729	13201.400390625
2845.33241758808	13115.7998046875
2847.40583837898	13255
2849.4786865025	13259.599609375
2851.550962231	13333.2001953125
2853.6226658367	13290.400390625
2855.69379759173	13258.400390625
2857.76435776806	13266.599609375
2859.83434663753	13303.2001953125
2861.90376447184	13293.599609375
2863.97261154259	13294.599609375
2866.0408881212	13365.400390625
2868.10859447901	13316
2870.17573088717	13365.599609375
2872.24229761673	13355.7998046875
2874.30829493859	13429.400390625
2876.37372312352	13432.599609375
2878.43858244215	13569.2001953125
2880.50287316496	13564
2882.56659556231	13545.400390625
2884.62974990439	13554.599609375
2886.69233646129	13554.7998046875
2888.75435550293	13586
2890.81580729909	13597.2001953125
2892.87669211941	13510.599609375
2894.93701023339	13555.599609375
2896.99676191039	13560.599609375
2899.05594741961	13614.599609375
2901.1145670301	13588
2903.1726210108	13512.7998046875
2905.23010963045	13639.2001953125
2907.28703315768	13510.400390625
2909.34339186096	13663.599609375
2911.39918600861	13728
2913.45441586879	13576
2915.50908170952	13633.599609375
2917.56318379867	13682.400390625
2919.61672240395	13681.7998046875
2921.66969779291	13667.7998046875
2923.72211023295	13782.400390625
2925.77395999134	13694.2001953125
2927.82524733515	13797.400390625
2929.87597253132	13805.599609375
2931.92613584663	13786.7998046875
2933.97573754769	13705.7998046875
2936.02477790097	13694.7998046875
2938.07325717276	13615.599609375
2940.1211756292	13823.2001953125
2942.16853353626	13765.599609375
2944.21533115976	13790.7998046875
2946.26156876536	13621.400390625
2948.30724661853	13687
2950.3523649846	13791.2001953125
2952.39692412872	13760
2954.44092431587	13759.400390625
2956.48436581089	13707.599609375
2958.52724887843	13726
2960.56957378296	13766.599609375
2962.6113407888	13885.400390625
2964.65255016011	13876.400390625
2966.69320216083	13933.400390625
2968.73329705479	13796.7998046875
2970.77283510559	13842.400390625
2972.81181657671	13943
2974.8502417314	13966.7998046875
2976.88811083279	13963.400390625
2978.92542414378	14062.7998046875
2980.96218192713	14022
2982.99838444541	14066.2001953125
2985.034031961	14161.7998046875
2987.06912473612	14180.2001953125
2989.1036630328	14162.400390625
2991.13764711288	14131.2001953125
2993.17107723804	14166.2001953125
2995.20395366974	14331.400390625
2997.23627666931	14297.7998046875
2999.26804649782	14276.2001953125
3001.29926341624	14444
3003.32992768528	14339.7998046875
3005.3600395655	14398.400390625
3007.38959931726	14472.7998046875
3009.41860720076	14559.599609375
3011.44706347595	14677.599609375
3013.47496840263	14549.599609375
3015.50232224041	14709
3017.5291252487	14802.7998046875
3019.5553776867	14624.2001953125
3021.58107981344	14852.7998046875
3023.60623188773	14846
3025.63083416822	14914
3027.65488691331	14976.7998046875
3029.67839038125	14989.599609375
3031.70134483007	14867.599609375
3033.72375051759	15024.7998046875
3035.74560770144	15107.7998046875
3037.76691663907	15034.599609375
3039.78767758768	15168.7998046875
3041.80789080431	15131.7998046875
3043.82755654577	15182.400390625
3045.84667506867	15118.2001953125
3047.8652466294	15257.2001953125
3049.88327148418	15179.2001953125
3051.90074988899	15166.599609375
3053.91768209961	15178.400390625
3055.9340683716	15097.2001953125
3057.94990896033	15167.7998046875
3059.96520412095	15349
3061.97995410838	15298
3063.99415917734	15230.2001953125
3066.00781958234	15204.7998046875
3068.02093557766	15306.599609375
3070.03350741738	15207.7998046875
3072.04553535535	15339.7998046875
3074.05701964521	15286
3076.06796054036	15332.400390625
3078.078358294	15303
3080.08821315912	15306.599609375
3082.09752538846	15433
3084.10629523454	15266.7998046875
3086.11452294967	15383.400390625
3088.12220878592	15365.400390625
3090.12935299515	15510
3092.13595582898	15360.7998046875
3094.1420175388	15361
3096.14753837579	15449.599609375
3098.15251859088	15455.7998046875
3100.15695843477	15415.599609375
3102.16085815793	15472
3104.16421801061	15490.599609375
3106.16703824282	15465.599609375
3108.16931910432	15523.2001953125
3110.17106084464	15527
3112.17226371308	15573.400390625
3114.17292795872	15728
3116.17305383034	15677.2001953125
3118.17264157657	15619.400390625
3120.17169144571	15634.7998046875
3122.17020368587	15589
3124.16817854492	15687
3126.16561627044	15662.7998046875
3128.16251710982	15944.599609375
3130.15888131017	15924.7998046875
3132.15470911837	15947.400390625
3134.15000078104	15942.2001953125
3136.14475654455	16002
3138.13897665502	16054.2001953125
3140.13266135835	16023.2001953125
3142.12581090014	15976.7998046875
3144.11842552577	16074.599609375
3146.11050548036	16150.2001953125
3148.10205100875	16164
3150.09306235557	16267.400390625
3152.08353976515	16060.599609375
3154.07348348158	16023.400390625
3156.06289374869	16219
3158.05177081006	16134.7998046875
3160.04011490899	16243
3162.02792628852	16309
3164.01520519145	16218
3166.00195186029	16231.7998046875
3167.98816653728	16340.400390625
3169.97384946442	16368.400390625
3171.95900088344	16350.599609375
3173.94362103577	16315
3175.92771016259	16440.80078125
3177.91126850484	16473.19921875
3179.89429630312	16486.400390625
3181.87679379782	16322.7998046875
3183.85876122903	16550.19921875
3185.84019883657	16660.599609375
3187.82110685997	16639.599609375
3189.80148553851	16491.400390625
3191.78133511116	16703.80078125
3193.76065581664	16712.80078125
3195.73944789337	16687.19921875
3197.7177115795	16720.599609375
3199.6954471129	16773.599609375
3201.67265473114	16815.80078125
3203.64933467153	16780.80078125
3205.62548717107	16899.400390625
3207.60111246648	16901.400390625
3209.57621079421	16939.400390625
3211.55078239041	16983.400390625
3213.52482749093	16919.19921875
3215.49834633133	17073.80078125
3217.4713391469	17196.80078125
3219.44380617262	17038.400390625
3221.41574764317	17239.80078125
3223.38716379296	17222.400390625
3225.35805485607	17266
3227.32842106631	17276
3229.29826265718	17372.599609375
3231.26757986187	17476
3233.2363729133	17479.599609375
3235.20464204405	17541.400390625
3237.17238748643	17492
3239.13960947243	17628.599609375
3241.10630823374	17691.599609375
3243.07248400174	17748.19921875
3245.03813700748	17924.19921875
3247.00326748177	17787.400390625
3248.96787565503	17752
3250.93196175742	17879.400390625
3252.89552601877	17875.19921875
3254.8585686686	17824.400390625
3256.82108993612	18015
3258.78309005022	18049.599609375
3260.74456923948	17908.80078125
3262.70552773215	18093.400390625
3264.66596575617	18092.400390625
3266.62588353916	18022.599609375
3268.58528130843	18059.19921875
3270.54415929094	18083.400390625
3272.50251771336	18119.80078125
3274.46035680201	18120.80078125
3276.4176767829	18302
3278.37447788171	18151
3280.33076032379	18279
3282.28652433416	18250.19921875
3284.24177013751	18347.599609375
3286.1964979582	18351.19921875
3288.15070802027	18394.19921875
3290.10440054741	18391.400390625
3292.05757576298	18326.80078125
3294.01023389001	18392
3295.96237515119	18512.80078125
3297.91399976887	18483.80078125
3299.86510796506	18546.400390625
3301.81569996142	18539
3303.76577597932	18551.400390625
3305.7153362397	18557.19921875
3307.66438096324	18600.80078125
3309.61291037024	18625.19921875
3311.56092468064	18555.80078125
3313.50842411404	18489
3315.45540888971	18729.400390625
3317.40187922656	18542
3319.34783534315	18696.80078125
3321.29327745768	18704.80078125
3323.23820578801	18439.599609375
3325.18262055164	18605.400390625
3327.1265219657	18544
3329.06991024699	18681.599609375
3331.01278561194	18674.19921875
3332.95514827662	18601.599609375
3334.89699845674	18801.19921875
3336.83833636766	18779.599609375
3338.77916222434	18546.400390625
3340.71947624143	18701.599609375
3342.65927863317	18851
3344.59856961346	18706
3346.53734939584	18900.599609375
3348.47561819344	18727.80078125
3350.41337621906	18716.400390625
3352.35062368513	18824.80078125
3354.28736080368	18846.599609375
3356.22358778637	18931.599609375
3358.15930484452	18886.400390625
3360.09451218904	19001.80078125
3362.02921003047	18989.19921875
3363.96339857898	19089.80078125
3365.89707804436	18963
3367.83024863602	18921.80078125
3369.76291056299	18931.19921875
3371.69506403389	18939.19921875
3373.62670925699	19089.80078125
3375.55784644016	19155.599609375
3377.4884757909	19073.599609375
3379.41859751629	19249
3381.34821182305	19267.599609375
3383.27731891749	19219.80078125
3385.20591900555	19424.80078125
3387.13401229276	19364.400390625
3389.06159898426	19389.400390625
3390.9886792848	19533
3392.91525339872	19567.400390625
3394.84132152998	19496.80078125
3396.76688388213	19513.599609375
3398.69194065833	19682.19921875
3400.61649206133	19700.400390625
3402.54053829348	19787.19921875
3404.46407955672	19665.19921875
3406.3871160526	19668.599609375
3408.30964798225	19724
3410.23167554639	19752.400390625
3412.15319894535	19884.599609375
3414.07421837904	19835.400390625
3415.99473404695	20009.19921875
3417.91474614817	19968.400390625
3419.83425488136	20027.80078125
3421.75326044479	20002.19921875
3423.67176303631	20095.19921875
3425.58976285332	20056.400390625
3427.50726009282	20092
3429.42425495143	20046
3431.34074762528	20131.599609375
3433.25673831012	19989.80078125
3435.17222720127	20042.599609375
3437.08721449362	20193
3439.00170038164	20018.599609375
3440.91568505936	20079.19921875
3442.82916872039	20047.80078125
3444.74215155791	20189.80078125
3446.65463376468	20078
3448.566615533	20084.400390625
3450.47809705476	20258.400390625
3452.3890785214	20188.80078125
3454.29956012393	20288.599609375
3456.20954205293	20328.599609375
3458.11902449853	20215
3460.02800765041	20177.80078125
3461.93649169784	20304.400390625
3463.84447682962	20238.400390625
3465.75196323412	20345.19921875
3467.65895109925	20371.599609375
3469.56544061249	20344.599609375
3471.47143196086	20324.599609375
3473.37692533093	20370.80078125
3475.28192090884	20372
3477.18641888026	20526.19921875
3479.09041943039	20456.19921875
3480.99392274402	20410
3482.89692900545	20458.599609375
3484.79943839853	20501.19921875
3486.70145110666	20448.80078125
3488.60296731277	20459.19921875
3490.50398719933	20512.80078125
3492.40451094836	20377.599609375
3494.30453874141	20504.80078125
3496.20407075956	20650.400390625
3498.10310718342	20679.80078125
3500.00164819315	20574.80078125