200.090469251521	1299.75
202.974751419364	1294.5
205.858021632265	1288.75
208.740280737522	1286.5
211.621529580445	1299
214.501769004372	1289.75
217.380999850628	1290
220.259222958593	1281.75
223.136439165649	1279.25
226.012649307235	1280.25
228.887854216822	1299
231.762054725918	1303
234.635251664113	1288.25
237.507445859023	1295.75
240.378638136347	1300
243.248829319856	1299.25
246.118020231373	1321.5
248.986211690827	1295
251.853404516227	1324.5
254.719599523657	1332.5
257.584797527337	1319.75
260.448999339541	1346.25
263.312205770686	1337.5
266.174417629303	1320.5
269.035635722017	1322
271.89586085361	1339.25
274.755093826979	1334.25
277.613335443147	1326
280.470586501312	1352
283.326847798768	1327.25
286.18212013102	1332.5
289.036404291687	1345.75
291.889701072576	1339.5
294.742011263643	1326
297.593335653049	1357.25
300.443675027094	1329.25
303.293030170298	1338.75
306.141401865367	1347.5
308.988790893176	1331
311.835198032838	1329.75
314.680624061637	1354.5
317.525069755113	1328.25
320.36853588697	1345.25
323.211023229181	1339.5
326.052532551923	1336
328.893064623606	1382.5
331.732620210886	1354.75
334.571200078671	1350.25
337.408804990093	1359.75
340.245435706565	1366.5
343.081092987735	1376.75
345.915777591524	1386.75
348.749490274149	1386.75
351.582231790051	1391.75
354.414002892	1378.25
357.244804331024	1370.5
360.074636856445	1382.75
362.903501215886	1377.75
365.731398155266	1393.75
368.558328418816	1405.5
371.384292749062	1426.75
374.209291886871	1426.5
377.033326571409	1433
379.856397540173	1417
382.678505529011	1433
385.499651272066	1446.5
388.319835501873	1455.25
391.139058949262	1455.5
393.957322343455	1467
396.774626412012	1487
399.590971880849	1485
402.406359474259	1492.5
405.220789914895	1498.75
408.034263923803	1498.25
410.846782220402	1489
413.658345522482	1473.5
416.468954546245	1470.5
419.278610006279	1478.75
422.087312615559	1455
424.895063085505	1465.25
427.701862125904	1461.5
430.507710444984	1447
433.312608749369	1473
436.116557744146	1449.5
438.919558132792	1457
441.72161061724	1447.25
444.522715897858	1456
447.322874673459	1464
450.122087641299	1440.5
452.920355497093	1461
455.71767893501	1457.75
458.514058647682	1451.25
461.30949532622	1469
464.10398966019	1460.75
466.897542337651	1480
469.690154045117	1457
472.481825467627	1449
475.272557288677	1472.25
478.062350190282	1447
480.851204852952	1474.25
483.639121955686	1473
486.426102176009	1465.25
489.212146189958	1487.75
491.997254672092	1493
494.781428295473	1484.75
497.564667731718	1516
500.346973650961	1501.5
503.12834672188	1496.25
505.908787611691	1501
508.688296986151	1506
511.466875509572	1515.25
514.244523844834	1512
517.021242653355	1519
519.797032595132	1494.5
522.571894328732	1504
525.34582851128	1520.25
528.118835798493	1513.5
530.890916844657	1504
533.66207230267	1514
536.432302823987	1506.75
539.201609058685	1491.25
541.969991655422	1502.5
544.737451261476	1499
547.503988522724	1528.75
550.269604083663	1520.25
553.034298587396	1522
555.798072675669	1531
558.560926988819	1546
561.322862165851	1560.75
564.083878844371	1563.25
566.843977660657	1568.75
569.603159249605	1546.5
572.361424244772	1581.5
575.118773278369	1606.25
577.875206981241	1600.25
580.630725982908	1599.75
583.385330911566	1575
586.139022394078	1562
588.891801055957	1571.25
591.643667521408	1567.25
594.394622413318	1568.75
597.144666353275	1542.25
599.893799961513	1576.25
602.642023857012	1562
605.389338657416	1580.25
608.13574497909	1570
610.881243437093	1577
613.625834645192	1582.75
616.369519215883	1576.25
619.112297760377	1594.25
621.854170888605	1616.5
624.595139209227	1626
627.335203329614	1661
630.074363855917	1729.25
632.81262139299	1785.25
635.549976544439	1792.25
638.286429912615	1771.75
641.021982098637	1701.5
643.756633702364	1652.5
646.490385322412	1607.25
649.223237556177	1606.5
651.955190999809	1603.5
654.686246248224	1613.5
657.416403895136	1600.75
660.145664533012	1621.75
662.874028753135	1619.5
665.601497145537	1621.5
668.328070299073	1620
671.05374880138	1618.75
673.778533238886	1620.5
676.502424196839	1654.5
679.225422259297	1649.75
681.947528009102	1690.75
684.66874202793	1693.5
687.389064896282	1685
690.108497193467	1671
692.827039497622	1695.5
695.544692385727	1717.25
698.261456433588	1782
700.97733221585	1863.5
703.692320305984	1923
706.406421276339	1914
709.119635698082	1862.25
711.831964141257	1811.75
714.543407174743	1771
717.253965366306	1736.5
719.963639282554	1739.5
722.672429488964	1748.75
725.380336549907	1784.5
728.087361028599	1813.75
730.793503487167	1825.75
733.498764486595	1868.75
736.203144586759	1823
738.906644346449	1789.75
741.609264323313	1771.5
744.311005073915	1761.5
747.01186715373	1738
749.711851117123	1736.25
752.410957517377	1768.25
755.109186906677	1776.25
757.806539836135	1780.75
760.503016855782	1778.5
763.198618514553	1756.75
765.893345360349	1748.75
768.587197939965	1772.25
771.280176799143	1747.5
773.972282482569	1768.75
776.66351553386	1754.5
779.353876495577	1757.75
782.043365909243	1752.5
784.731984315328	1753.75
787.419732253236	1718.5
790.106610261368	1738.5
792.792618877059	1758.75
795.477758636619	1761.25
798.162030075316	1753.5
800.845433727424	1766.75
803.527970126152	1800.75
806.209639803714	1829
808.890443291307	1838
811.5703811191	1855.75
814.249453816264	1849.75
816.927661910961	1854.25
819.605005930361	1877.75
822.281486400606	1876.25
824.957103846867	1890.25
827.631858793319	1904
830.305751763137	1923.25
832.978783278521	1905.25
835.650953860679	1887.25
838.322264029851	1856.25
840.992714305294	1866
843.662305205292	1874.25
846.331037247159	1852
848.998910947244	1848.75
851.665926820937	1862
854.332085382674	1849
856.997387145915	1854
859.661832623193	1844
862.325422326067	1854.25
864.988156765174	1840.25
867.650036450184	1915.75
870.311061889847	1901.75
872.971233591961	1926.75
875.630552063409	2007.25
878.28901781013	2081.5
880.946631337141	2196.25
883.603393148535	2295.5
886.259303747486	2344
888.914363636247	2333
891.568573316158	2217
894.22193328767	2072.75
896.874444050283	1985.25
899.526106102627	1917.5
902.176919942417	1915.75
904.826886066483	1865.75
907.47600497075	1901.25
910.124277150257	1885.25
912.771703099131	1940.25
915.418283310643	1971.25
918.064018277177	1977.5
920.708908490222	1996.75
923.352954440405	1992.75
925.996156617489	1972
928.638515510336	1949.5
931.280031606966	1937.5
933.920705394522	1965.5
936.560537359305	1944
939.19952798674	1948
941.837677761394	1941.75
944.474987167007	1939.75
947.111456686439	1933.25
949.747086801736	1941.75
952.381877994073	1918.75
955.015830743793	1935.25
957.648945530419	1935.75
960.281222832634	1922
962.912663128263	1909.25
965.543266894337	1933.25
968.173034607059	1904.75
970.80196674178	1932.75
973.430063773072	1937.5
976.057326174661	1955.75
978.683754419475	1930.25
981.309348979625	1946.75
983.934110326421	1944
986.558038930362	1942.25
989.181135261147	1957.5
991.803399787692	1967.5
994.424832978086	1980.25
997.045435299653	2007.75
999.665207218908	2003.25
1002.2841492016	2002.75
1004.90226171266	2011.75
1007.51954521628	2037.75
1010.13600017584	2036.25
1012.75162705397	2008.25
1015.3664263125	2005.75
1017.98039841251	2010
1020.5935438143	2012
1023.20586297741	2026.75
1025.81735636063	2046.75
1028.42802442196	2026
1031.03786761869	2040
1033.64688640732	2007
1036.2550812436	2013.75
1038.86245258256	2025
1041.46900087844	2028
1044.07472658479	2056
1046.67963015438	2083.75
1049.28371203926	2079.5
1051.88697269076	2051.75
1054.48941255943	2036
1057.09103209513	2053.25
1059.691831747	2087
1062.29181196343	2052
1064.89097319211	2053.75
1067.48931587999	2073.75
1070.08684047333	2042.75
1072.68354741766	2081.25
1075.2794371578	2084.25
1077.87451013787	2105
1080.46876680127	2105.25
1083.06220759071	2104.25
1085.65483294822	2112.75
1088.24664331509	2098.75
1090.83763913194	2110.75
1093.4278208387	2113.5
1096.01718887459	2142.25
1098.60574367818	2176.25
1101.19348568732	2263.75
1103.78041533919	2332.75
1106.3665330703	2441
1108.95183931646	2529
1111.53633451284	2506
1114.12001909391	2460.5
1116.70289349349	2348
1119.28495814471	2240.25
1121.86621348006	2220.75
1124.44665993134	2201.5
1127.02629792974	2162
1129.60512790574	2179
1132.18315028919	2171.25
1134.76036550929	2179.25
1137.3367739946	2187.5
1139.912376173	2195.25
1142.48717247176	2188.5
1145.06116331749	2231.5
1147.63434913616	2213.75
1150.20673035312	2217.75
1152.77830739307	2237
1155.34908068007	2215.5
1157.91905063757	2241.5
1160.48821768838	2232.5
1163.05658225471	2251.75
1165.6241447581	2249
1168.19090561951	2294.75
1170.75686525927	2316.5
1173.32202409709	2396.75
1175.88638255206	2424.75
1178.44994104269	2449.75
1181.01269998685	2418
1183.57465980182	2387.75
1186.13582090427	2312.75
1188.69618371026	2311
1191.25574863529	2288.5
1193.8145160942	2266.75
1196.37248650129	2300.25
1198.92966027025	2294.25
1201.48603781417	2265.75
1204.04161954556	2252.25
1206.59640587635	2291.5
1209.15039721788	2284.75
1211.70359398092	2344.5
1214.25599657564	2388.5
1216.80760541166	2409
1219.35842089801	2439.25
1221.90844344314	2465.25
1224.45767345496	2512
1227.00611134077	2538
1229.55375750736	2537.25
1232.10061236092	2577.75
1234.64667630707	2596.5
1237.1919497509	2606
1239.73643309692	2593.25
1242.28012674912	2599.75
1244.82303111089	2538.25
1247.36514658511	2568.5
1249.90647357411	2516
1252.44701247964	2457
1254.98676370294	2435.25
1257.52572764469	2419.5
1260.06390470506	2388.75
1262.60129528365	2359.75
1265.13789977955	2361.75
1267.67371859128	2386.25
1270.20875211688	2383
1272.74300075384	2369.75
1275.2764648991	2354
1277.80914494911	2383.75
1280.34104129979	2382.5
1282.87215434652	2404.75
1285.40248448419	2362.5
1287.93203210715	2434.25
1290.46079760927	2409.75
1292.98878138385	2424.25
1295.51598382375	2434.25
1298.04240532127	2420.25
1300.56804626823	2446.5
1303.09290705594	2418.75
1305.6169880752	2437.75
1308.14028971632	2446.75
1310.66281236913	2433
1313.18455642292	2429.5
1315.70552226653	2422.25
1318.22571028829	2421
1320.74512087603	2400.5
1323.26375441711	2403.75
1325.7816112984	2413.25
1328.29869190629	2399.25
1330.81499662667	2425.75
1333.33052584497	2440
1335.84527994613	2459.75
1338.35925931464	2494
1340.87246433447	2477.75
1343.38489538916	2496.75
1345.89655286177	2482.5
1348.40743713487	2462
1350.91754859059	2473.75
1353.42688761059	2474.75
1355.93545457606	2466.5
1358.44324986772	2460.5
1360.95027386588	2508.25
1363.45652695032	2471
1365.96200950043	2484.5
1368.4667218951	2477
1370.97066451281	2477
1373.47383773156	2469
1375.97624192891	2474
1378.47787748199	2445
1380.97874476746	2475.75
1383.47884416157	2477.75
1385.9781760401	2465.5
1388.4767407784	2451.75
1390.9745387514	2455
1393.47157033358	2445
1395.96783589898	2439.5
1398.46333582124	2475.75
1400.95807047355	2435
1403.45204022865	2457
1405.94524545889	2462.25
1408.4376865362	2433
1410.92936383205	2445.5
1413.42027771753	2484.75
1415.91042856328	2413.75
1418.39981673955	2445.25
1420.88844261615	2433.75
1423.37630656249	2440.5
1425.86340894757	2452.25
1428.34975013999	2436.75
1430.83533050792	2444.75
1433.32015041912	2462
1435.80421024098	2492
1438.28751034046	2517.5
1440.77005108411	2520.5
1443.25183283812	2535.75
1445.73285596824	2560.5
1448.21312083984	2539.75
1450.69262781791	2541.25
1453.17137726702	2565.5
1455.64936955137	2565.75
1458.12660503477	2576.5
1460.60308408063	2587.5
1463.07880705198	2576
1465.55377431145	2557.75
1468.02798622133	2563.75
1470.50144314349	2556.25
1472.97414543941	2528.75
1475.44609347025	2567.5
1477.91728759673	2504.25
1480.38772817924	2513.5
1482.85741557777	2512.5
1485.32635015194	2476.25
1487.79453226103	2495.5
1490.26196226392	2498.25
1492.72864051911	2516.5
1495.1945673848	2504
1497.65974321875	2531
1500.1241683784	2504.25
1502.58784322083	2500.5
1505.05076810274	2490.75
1507.51294338049	2483.25
1509.97436941009	2476.75
1512.43504654718	2487.5
1514.89497514704	2507
1517.35415556462	2476.75
1519.8125881545	2489
1522.27027327095	2479.25
1524.72721126785	2520.75
1527.18340249875	2500.5
1529.63884731684	2494.5
1532.09354607502	2532
1534.5474991258	2537.25
1537.00070682136	2546
1539.45316951355	2542.25
1541.90488755388	2553
1544.35586129354	2556
1546.80609108336	2572
1549.25557727385	2546.25
1551.70432021519	2553
1554.15232025725	2579.25
1556.59957774954	2573.5
1559.04609304125	2580.75
1561.49186648127	2561.25
1563.93689841815	2599.25
1566.38118920011	2574.5
1568.82473917506	2615.75
1571.2675486906	2637.5
1573.70961809399	2651.25
1576.15094773219	2638.75
1578.59153795185	2659
1581.03138909928	2641.75
1583.47050152051	2686.5
1585.90887556123	2747.5
1588.34651156686	2777.5
1590.78340988246	2814.75
1593.21957085283	2870
1595.65499482245	2920.25
1598.08968213547	2971.25
1600.52363313578	3039.75
1602.95684816695	3014
1605.38932757224	2989
1607.82107169462	2847
1610.25208087678	2777.25
1612.68235546107	2686.25
1615.1118957896	2644
1617.54070220415	2561
1619.96877504622	2576
1622.39611465702	2551.5
1624.82272137746	2559.25
1627.24859554818	2523.75
1629.67373750953	2502
1632.09814760155	2490.5
1634.52182616404	2490.5
1636.94477353648	2483.25
1639.36699005807	2459.25
1641.78847606776	2471.25
1644.20923190419	2486.25
1646.62925790573	2456.5
1649.04855441048	2460.25
1651.46712175628	2463.25
1653.88496028066	2461.25
1656.3020703209	2484
1658.71845221401	2456
1661.13410629671	2464
1663.54903290548	2504.75
1665.96323237649	2471
1668.37670504571	2491.25
1670.78945124877	2465.25
1673.20147132109	2483.5
1675.61276559779	2504
1678.02333441377	2492.75
1680.43317810362	2486
1682.84229700171	2491
1685.25069144213	2477.25
1687.65836175872	2505.25
1690.06530828507	2515.75
1692.47153135451	2495.5
1694.8770313001	2502
1697.28180845468	2506.25
1699.6858631508	2493
1702.08919572081	2540.75
1704.49180649676	2508.75
1706.89369581049	2497.75
1709.29486399356	2463
1711.69531137731	2461.25
1714.09503829282	2503.75
1716.49404507096	2502.5
1718.89233204229	2483
1721.28989953721	2452.25
1723.68674788581	2489.5
1726.08287741798	2492.5
1728.47828846338	2475.25
1730.87298135139	2439.75
1733.26695641119	2517
1735.66021397173	2455.25
1738.05275436169	2449.25
1740.44457790955	2466.5
1742.83568494355	2437.25
1745.22607579168	2496.25
1747.61575078175	2445.25
1750.00471024128	2475.75
1752.39295449761	2490.75
1754.78048387783	2464.5
1757.16729870881	2478
1759.5533993172	2489.25
1761.93878602942	2475
1764.32345917168	2504.5
1766.70741906995	2536.25
1769.09066604999	2529
1771.47320043736	2549.75
1773.85502255735	2564
1776.2361327351	2524
1778.61653129548	2534.5
1780.99621856318	2509.25
1783.37519486264	2533.5
1785.75346051813	2502.25
1788.13101585368	2539.75
1790.50786119311	2529.25
1792.88399686002	2519.5
1795.25942317785	2505.5
1797.63414046977	2492.5
1800.00814905878	2520
1802.38144926766	2502.25
1804.75404141898	2477.5
1807.12592583514	2497
1809.49710283829	2543.25
1811.86757275039	2520.5
1814.23733589322	2527.75
1816.60639258834	2477
1818.97474315712	2532.75
1821.34238792073	2515.25
1823.70932720012	2497.75
1826.07556131608	2519.25
1828.44109058918	2492.75
1830.8059153398	2495
1833.17003588812	2467.25
1835.53345255413	2517.75
1837.89616565765	2487
1840.25817551827	2480.25
1842.61948245541	2504.5
1844.9800867883	2503.25
1847.33998883598	2495.5
1849.6991889173	2489.75
1852.05768735091	2512
1854.4154844553	2500
1856.77258054875	2472.25
1859.12897594938	2488.25
1861.48467097511	2509.75
1863.83966594367	2483.75
1866.19396117261	2502
1868.54755697932	2481.5
1870.90045368099	2497.5
1873.25265159463	2510.75
1875.60415103708	2493
1877.95495232501	2562.25
1880.30505577487	2500
1882.65446170299	2525
1885.00317042549	2569
1887.35118225832	2541
1889.69849751726	2514
1892.04511651792	2555.25
1894.39103957574	2548
1896.73626700596	2576.5
1899.08079912369	2567.5
1901.42463624384	2584.75
1903.76777868116	2594.25
1906.11022675025	2583
1908.4519807655	2590
1910.79304104117	2615.25
1913.13340789134	2608
1915.47308162993	2602.25
1917.81206257067	2579.5
1920.15035102718	2624
1922.48794731286	2603.75
1924.82485174096	2611.25
1927.16106462461	2615.75
1929.49658627672	2617.25
1931.83141701008	2598.5
1934.1655571373	2617
1936.49900697085	2582.5
1938.83176682301	2598.5
1941.16383700594	2615.5
1943.49521783161	2581.5
1945.82590961186	2589
1948.15591265835	2581.25
1950.48522728262	2597.5
1952.81385379602	2594
1955.14179250976	2570.75
1957.46904373489	2574.5
1959.79560778233	2574.75
1962.12148496284	2600
1964.44667558701	2594.75
1966.77117996529	2577.75
1969.094998408	2598.25
1971.41813122527	2591.25
1973.74057872714	2609.5
1976.06234122345	2629.25
1978.38341902391	2618.75
1980.7038124381	2633.25
1983.02352177544	2629.25
1985.34254734518	2626
1987.66088945649	2639
1989.97854841833	2651.25
1992.29552453956	2633
1994.61181812887	2643.25
1996.92742949483	2648
1999.24235894586	2646.75
2001.55660679023	2673
2003.87017333609	2665.75
2006.18305889143	2662.5
2008.49526376413	2683.25
2010.80678826189	2670.25
2013.1176326923	2679.75
2015.42779736282	2693
2017.73728258075	2715.5
2020.04608865326	2712
2022.35421588741	2695.5
2024.66166459008	2730.75
2026.96843506807	2703.25
2029.274527628	2725.25
2031.57994257638	2719
2033.88468021957	2714.5
2036.18874086383	2760.25
2038.49212481526	2747.5
2040.79483237983	2718
2043.0968638634	2741.25
2045.39821957169	2734.75
2047.69889981028	2758.25
2049.99890488462	2755.75
2052.29823510007	2758.25
2054.59689076181	2728.25
2056.89487217492	2702
2059.19217964437	2736.25
2061.48881347497	2745.25
2063.7847739714	2771.5
2066.08006143827	2748.5
2068.37467618	2753.75
2070.66861850093	2777
2072.96188870527	2737.75
2075.25448709708	2749.5
2077.54641398031	2775.5
2079.83766965881	2762.5
2082.12825443629	2751
2084.41816861634	2764.25
2086.70741250242	2724
2088.99598639789	2762.5
2091.28389060597	2779.25
2093.57112542978	2730
2095.85769117232	2774.75
2098.14358813644	2727
2100.42881662491	2745.25
2102.71337694037	2802
2104.99726938533	2748.5
2107.28049426219	2754
2109.56305187326	2781
2111.84494252069	2790.75
2114.12616650655	2766.75
2116.40672413278	2776.5
2118.68661570121	2762.25
2120.96584151355	2810.25
2123.24440187139	2786.75
2125.52229707622	2772
2127.79952742943	2791.25
2130.07609323227	2835
2132.35199478588	2807
2134.62723239132	2848.5
2136.90180634949	2854.75
2139.17571696123	2819.75
2141.44896452723	2851
2143.72154934809	2865.25
2145.9934717243	2829.75
2148.26473195623	2877.75
2150.53533034415	2865.5
2152.80526718822	2895.5
2155.07454278848	2868.75
2157.3431574449	2906
2159.61111145728	2896.75
2161.87840512538	2887.5
2164.1450387488	2880
2166.41101262707	2916.5
2168.67632705959	2918.25
2170.94098234567	2905.75
2173.20497878451	2911.5
2175.4683166752	2915.75
2177.73099631673	2926
2179.99301800797	2920
2182.25438204773	2916.25
2184.51508873466	2899
2186.77513836735	2918.75
2189.03453124427	2916
2191.29326766378	2936.75
2193.55134792416	2916.75
2195.80877232355	2961
2198.06554116004	2925.5
2200.32165473157	2935
2202.577113336	2929
2204.83191727111	2933.5
2207.08606683453	2922.5
2209.33956232384	2913.25
2211.59240403649	2966.5
2213.84459226982	2967
2216.09612732112	2963.25
2218.34700948753	2962.5
2220.59723906612	2959.25
2222.84681635385	2974
2225.09574164758	2943.25
2227.34401524408	2982.25
2229.59163744002	2950.5
2231.83860853197	2956
2234.08492881639	2973
2236.33059858968	2956
2238.5756181481	2985.5
2240.81998778785	2987.75
2243.06370780499	3000
2245.30677849555	2998.5
2247.54920015539	2976
2249.79097308033	3009
2252.03209756607	3009.5
2254.27257390822	3026.75
2256.51240240228	3006
2258.75158334369	3013.25
2260.99011702777	3010
2263.22800374976	2985.25
2265.46524380477	2999.75
2267.70183748787	2990.25
2269.93778509399	3003.5
2272.17308691801	3019.75
2274.40774325467	3031.5
2276.64175439866	3005.25
2278.87512064454	3008
2281.10784228682	3044.5
2283.33991961987	3041
2285.571352938	3033
2287.80214253541	3043
2290.03228870623	3045.5
2292.26179174449	3042.75
2294.4906519441	3030.5
2296.71886959893	3063.75
2298.94644500271	3019.5
2301.1733784491	3048.75
2303.39967023169	3023.75
2305.62532064395	3018.25
2307.85032997926	3037
2310.07469853093	3068.75
2312.29842659216	3049.75
2314.52151445608	3082
2316.7439624157	3047
2318.96577076398	3067.5
2321.18693979374	3072.75
2323.40746979777	3064.5
2325.62736106873	3050.5
2327.8466138992	3106
2330.06522858166	3072.5
2332.28320540853	3055
2334.50054467212	3086
2336.71724666465	3031.5
2338.93331167827	3076
2341.14874000501	3088
2343.36353193685	3044.25
2345.57768776564	3060
2347.79120778319	3062
2350.00409228117	3075.75
2352.21634155121	3123.75
2354.42795588482	3075.75
2356.63893557343	3071.5
2358.84928090839	3049.5
2361.05899218094	3066
2363.26806968228	3036.5
2365.47651370347	3088.75
2367.68432453552	3081.75
2369.89150246933	3072.75
2372.09804779571	3084.25
2374.30396080541	3053.5
2376.50924178907	3097
2378.71389103725	3073.75
2380.91790884042	3090.5
2383.12129548898	3064.75
2385.32405127321	3067.5
2387.52617648332	3052.75
2389.72767140946	3069.5
2391.92853634165	3060.25
2394.12877156985	3086.75
2396.32837738393	3066
2398.52735407365	3046.25
2400.72570192873	3069.25
2402.92342123875	3069
2405.12051229325	3071.75
2407.31697538167	3038.5
2409.51281079334	3109.25
2411.70801881751	3026
2413.90259974339	3105.75
2416.09655386005	3066
2418.28988145648	3058.5
2420.48258282163	3044.25
2422.6746582443	3068.5
2424.86610801325	3091.25
2427.05693241713	3070.75
2429.24713174452	3076.5
2431.43670628389	3054
2433.62565632365	3073
2435.81398215213	3046.25
2438.00168405752	3039.75
2440.18876232799	3082.5
2442.37521725158	3050.25
2444.56104911628	3034
2446.74625820994	3059.5
2448.93084482038	3038.25
2451.1148092353	3073
2453.29815174233	3050.75
2455.480872629	3032.5
2457.66297218276	3012.25
2459.84445069097	3014.25
2462.02530844092	3042.5
2464.2055457198	3032.5
2466.38516281471	3019
2468.56416001267	2996.75
2470.74253760061	3016
2472.92029586537	3020
2475.09743509372	2999
2477.27395557232	3007.75
2479.44985758777	3049.5
2481.62514142655	2995.75
2483.79980737509	2986.75
2485.97385571969	3023.75
2488.1472867466	3001.25
2490.32010074198	2992.25
2492.49229799188	2996.25
2494.66387878228	3025.75
2496.83484339905	3014.5
2499.00519212802	3022.75
2501.17492525489	3027.25
2503.34404306528	3064
2505.51254584473	3024.25
2507.6804338787	3024.5
2509.84770745254	3032
2512.01436685153	3039
2514.18041236085	3040.25
2516.34584426561	3033.5
2518.51066285081	3045.75
2520.67486840138	3077.25
2522.83846120214	3075
2525.00144153785	3036
2527.16380969314	3079.75
2529.32556595261	3054
2531.48671060072	3037
2533.64724392186	3062.25
2535.80716620033	3086
2537.96647772035	3056.75
2540.12517876602	3061.75
2542.2832696214	3054.25
2544.44075057041	3048.25
2546.59762189692	3039.25
2548.75388388467	3045.75
2550.90953681735	3041
2553.06458097853	3058.25
2555.21901665172	3009
2557.37284412031	3077
2559.5260636676	3037
2561.67867557684	3057.5
2563.83068013113	3057.75
2565.98207761352	3065.25
2568.13286830695	3041.75
2570.28305249429	3010
2572.43263045829	3068.5
2574.58160248163	2996.75
2576.72996884689	3043.25
2578.87772983656	3003.75
2581.02488573303	3062.5
2583.1714368186	3021.5
2585.3173833755	3020.25
2587.46272568582	3031
2589.60746403161	3029.5
2591.75159869479	3014.5
2593.89512995722	3021.25
2596.03805810062	3026
2598.18038340665	3004
2600.32210615686	3013.25
2602.46322663274	3023.75
2604.60374511563	3002
2606.74366188683	3010.75
2608.88297722751	3019.5
2611.02169141875	2972
2613.15980474156	3009
2615.29731747681	3023.5
2617.43422990532	2991
2619.57054230779	2967.5
2621.70625496483	2988.25
2623.84136815695	2970.75
2625.97588216456	2994.5
2628.10979726799	2983
2630.24311374746	3031
2632.3758318831	2999
2634.50795195493	2971
2636.6394742429	3018.5
2638.77039902682	3025.25
2640.90072658645	3008.75
2643.0304572014	3007
2645.15959115123	2982
2647.28812871538	3039
2649.41607017319	3000.5
2651.5434158039	3036.5
2653.67016588665	3007.25
2655.79632070049	3032
2657.92188052436	3050.75
2660.04684563712	3041.25
2662.17121631749	2998.25
2664.29499284413	3037.25
2666.41817549558	3030
2668.54076455028	3040.75
2670.66276028656	3034
2672.78416298267	3016.75
2674.90497291675	2994.5
2677.02519036682	3047.5
2679.14481561082	3042
2681.26384892658	3034
2683.38229059183	2999.25
2685.50014088417	3033.25
2687.61740008115	3009
2689.73406846017	3017.75
2691.85014629854	3029.5
2693.96563387347	3010.25
2696.08053146206	3036.5
2698.1948393413	2997.25
2700.3085577881	3017
2702.42168707924	3022.75
2704.53422749139	3002.25
2706.64617930112	3025.25
2708.75754278492	3031.25
2710.86831821914	3035.75
2712.97850588002	3076
2715.08810604372	3067
2717.19711898628	3085.25
2719.30554498363	3049.25
2721.41338431159	3062.75
2723.52063724587	3043.5
2725.62730406207	3020
2727.73338503569	3019.75
2729.83888044213	3010.25
2731.94379055665	3069.5
2734.04811565441	3028.75
2736.15185601048	3063
2738.25501189979	3035.75
2740.35758359718	3011.5
2742.45957137738	3026.25
2744.56097551499	3043.25
2746.6617962845	3060.25
2748.7620339603	3044.5
2750.86168881666	3058.25
2752.96076112774	3047.5
2755.05925116759	3063
2757.15715921013	3075.75
2759.25448552917	3064
2761.35123039843	3061.25
2763.44739409148	3084.75
2765.54297688181	3088.25
2767.63797904275	3062.75
2769.73240084756	3076.25
2771.82624256935	3057.25
2773.91950448113	3044.75
2776.01218685579	3072.25
2778.10428996609	3064.5
2780.1958140847	3080.75
2782.28675948414	3071
2784.37712643683	3083
2786.46691521507	3042.75
2788.55612609103	3056.25
2790.64475933678	3030.25
2792.73281522425	3055.25
2794.82029402525	3024.5
2796.90719601149	3044
2798.99352145453	3013.5
2801.07927062583	3015.25
2803.16444379672	3029.5
2805.24904123841	3029.5
2807.33306322197	3063.5
2809.41651001838	3060.75
2811.49938189847	3058.5
2813.58167913296	3055.25
2815.66340199243	3049.5
2817.74455074734	3010
2819.82512566805	3028.5
2821.90512702475	3035
2823.98455508754	3077.75
2826.06341012637	3078.25
2828.14169241109	3058.5
2830.2194022114	3075
2832.29653979686	3055
2834.37310543694	3072.5
2836.44909940096	3092
2838.52452195811	3058
2840.59937337745	3073
2842.67365392791	3088.5
2844.7473638783	3051.25
2846.82050349728	3099.75
2848.8930730534	3128.5
2850.96507281507	3080.5
2853.03650305056	3140
2855.10736402802	3134.75
2857.17765601545	3165.75
2859.24737928075	3199.5
2861.31653409164	3200.25
2863.38512071574	3264.75
2865.45313942054	3287.75
2867.52059047335	3340.25
2869.58747414139	3388
2871.65379069173	3386.25
2873.7195403913	3409.75
2875.78472350688	3390.25
2877.84934030515	3339.25
2879.91339105262	3326.75
2881.97687601567	3338.5
2884.03979546054	3273.25
2886.10214965333	3301.5
2888.16393886001	3363
2890.22516334639	3345.25
2892.28582337816	3354.5
2894.34591922087	3382.5
2896.40545113992	3399
2898.46441940054	3411.5
2900.52282426787	3361
2902.58066600687	3393.5
2904.63794488237	3464.75
2906.69466115906	3465.5
2908.75081510147	3513.5
2910.806406974	3502.75
2912.86143704089	3543.25
2914.91590556626	3538.75
2916.96981281405	3485
2919.02315904807	3484.25
2921.07594453199	3465
2923.12816952932	3481
2925.17983430343	3504.25
2927.23093911753	3485.25
2929.28148423469	3500.75
2931.33146991782	3480.5
2933.3808964297	3518.75
2935.42976403294	3506.5
2937.47807299	3509.25
2939.5258235632	3460.75
2941.57301601469	3469.75
2943.61965060648	3440.25
2945.66572760042	3464
2947.71124725823	3397
2949.75620984144	3394.25
2951.80061561143	3371
2953.84446482945	3377.25
2955.88775775656	3399
2957.9304946537	3345.25
2959.97267578162	3410
2962.01430140095	3458.25
2964.05537177211	3470.75
2966.09588715541	3511
2968.13584781097	3518
2970.17525399875	3544
2972.21410597859	3531.75
2974.25240401012	3522.75
2976.29014835283	3539
2978.32733926604	3474.5
2980.36397700893	3500.25
2982.40006184049	3433.25
2984.43559401955	3421.25
2986.4705738048	3412.5
2988.50500145474	3387.75
2990.53887722771	3395
2992.57220138189	3350.75
2994.6049741753	3355.25
2996.63719586576	3383
2998.66886671097	3355.5
3000.69998696843	3359.75
3002.73055689549	3352.5
3004.7605767493	3357.25
3006.79004678688	3320.5
3008.81896726505	3324
3010.84733844048	3307.5
3012.87516056966	3305.5
3014.9024339089	3287
3016.92915871434	3301.75
3018.95533524196	3328.25
3020.98096374756	3322.5
3023.00604448676	3318.5
3025.030577715	3290.5
3027.05456368757	3315.25
3029.07800265956	3333.25
3031.10089488589	3335.5
3033.12324062131	3380.5
3035.14504012038	3406.5
3037.16629363749	3385.5
3039.18700142685	3428
3041.20716374249	3416.25
3043.22678083826	3443.5
3045.24585296783	3510.5
3047.26438038468	3551.5
3049.28236334212	3573.75
3051.29980209329	3660
3053.31669689111	3744.25
3055.33304798835	3829.25
3057.34885563757	3880
3059.36412009117	3964.25
3061.37884160135	4007.25
3063.39302042012	4128.5
3065.40665679932	4178.25
3067.41975099059	4227
3069.43230324538	4247.5
3071.44431381495	4283.25
3073.45578295041	4290.75
3075.46671090261	4257.5
3077.47709792227	4146
3079.48694425989	4081
3081.49625016579	3990.25
3083.50501589008	3873.25
3085.51324168271	3836.25
3087.5209277934	3743.75
3089.52807447169	3632.25
3091.53468196695	3566
3093.54075052832	3511.5
3095.54628040476	3483
3097.55127184503	3434.75
3099.55572509769	3404.5
3101.55964041111	3399
3103.56301803346	3413
3105.5658582127	3367.5
3107.56816119661	3385
3109.56992723275	3329.25
3111.5711565685	3346.5
3113.57184945101	3347.25
3115.57200612724	3329.75
3117.57162684397	3331.25
3119.57071184775	3353.5
3121.56926138493	3354.75
3123.56727570166	3329.5
3125.56475504389	3358
3127.56169965735	3313.75
3129.55810978757	3339.25
3131.55398567988	3329.5
3133.54932757938	3331.25
3135.54413573099	3344.25
3137.53841037939	3312.5
3139.53215176909	3294.5
3141.52536014435	3304.25
3143.51803574925	3330.5
3145.51017882762	3330.75
3147.50178962312	3351
3149.49286837916	3337.75
3151.48341533897	3275.75
3153.47343074553	3341
3155.46291484164	3313.75
3157.45186786985	3322.25
3159.44029007252	3309
3161.42818169179	3295.75
3163.41554296956	3368.75
3165.40237414753	3333.75
3167.38867546717	3354.5
3169.37444716976	3321.25
3171.35968949631	3387.75
3173.34440268765	3345.25
3175.32858698436	3360
3177.31224262683	3369.5
3179.29536985518	3365.5
3181.27796890934	3349.25
3183.26004002902	3316.75
3185.24158345368	3359.25
3187.22259942256	3343.25
3189.2030881747	3345
3191.18304994886	3393.75
3193.16248498363	3351.25
3195.14139351733	3374
3197.11977578807	3348.5
3199.09763203372	3379.75
3201.07496249191	3364.75
3203.05176740007	3325
3205.02804699537	3387
3207.00380151475	3397.25
3208.97903119493	3350
3210.95373627239	3366.75
3212.92791698335	3361.5
3214.90157356383	3346.75
3216.8747062496	3379.75
3218.84731527619	3390.5
3220.81940087889	3378
3222.79096329275	3367
3224.76200275259	3376.75
3226.73251949298	3397.25
3228.70251374826	3430.75
3230.67198575251	3385.5
3232.64093573959	3368.5
3234.6093639431	3431.5
3236.57727059641	3419
3238.54465593262	3420.25
3240.51152018462	3419
3242.47786358502	3403.5
3244.44368636621	3410.25
3246.40898876032	3401
3248.37377099923	3386.5
3250.33803331458	3444
3252.30177593775	3431
3254.26499909988	3455.5
3256.22770303184	3436.5
3258.18988796427	3436.25
3260.15155412755	3426.25
3262.1127017518	3412.25
3264.0733310669	3437.75
3266.03344230246	3433
3267.99303568784	3397.25
3269.95211145215	3444
3271.91066982422	3425.25
3273.86871103267	3446.25
3275.82623530581	3433.25
3277.78324287171	3434
3279.73973395818	3451.75
3281.69570879278	3446.25
3283.65116760281	3469
3285.60611061527	3448.75
3287.56053805694	3473
3289.51445015432	3454.75
3291.46784713364	3438.25
3293.42072922088	3466
3295.37309664173	3426.5
3297.32494962163	3424.75
3299.27628838576	3402.75
3301.22711315901	3457.75
3303.17742416601	3437.5
3305.12722163114	3485.75
3307.07650577848	3451.5
3309.02527683185	3461.5
3310.9735350148	3455.5
3312.9212805506	3478.25
3314.86851366225	3448.5
3316.81523457249	3464.25
3318.76144350377	3474.75
3320.70714067825	3477.5
3322.65232631784	3448.25
3324.59700064415	3443.75
3326.54116387854	3454.75
3328.48481624207	3434
3330.42795795552	3428.25
3332.37058923938	3422.5
3334.31271031389	3472.75
3336.25432139899	3382.75
3338.19542271433	3416.5
3340.13601447927	3449.5
3342.07609691292	3456
3344.01567023407	3455.75
3345.95473466125	3435.25
3347.89329041266	3427.5
3349.83133770628	3438.75
3351.76887675973	3443.75
3353.70590779039	3431.5
3355.64243101534	3467.75
3357.57844665135	3426.25
3359.51395491492	3450.75
3361.44895602224	3412.5
3363.38345018922	3460.25
3365.31743763148	3469
3367.25091856432	3483.75
3369.18389320278	3470
3371.11636176156	3442
3373.0483244551	3441.25
3374.97978149754	3491.75
3376.91073310269	3478
3378.84117948409	3503.75
3380.77112085498	3489.75
3382.70055742827	3487.75
3384.62948941659	3485.75
3386.55791703227	3475.25
3388.48584048733	3459.75
3390.41325999348	3510.5
3392.34017576214	3517
3394.26658800441	3520
3396.19249693107	3507.25
3398.11790275263	3482.5
3400.04280567926	3540.25
3401.96720592084	3528.5
3403.89110368692	3497
3405.81449918675	3549
3407.73739262928	3497.5
3409.65978422312	3502.75
3411.58167417659	3558.25
3413.50306269768	3526.25
3415.42394999408	3531.5
3417.34433627316	3562.25
3419.26422174196	3489.5
3421.18360660721	3528.5
3423.10249107532	3508.5
3425.0208753524	3501
3426.93875964421	3517.25
3428.85614415621	3515.5
3430.77302909353	3499.5
3432.68941466097	3502.75
3434.60530106302	3528
3436.52068850384	3528
3438.43557718726	3561.75
3440.34996731681	3522.5
3442.26385909565	3505.75
3444.17725272664	3526.25
3446.09014841231	3540.5
3448.00254635485	3487.75
3449.91444675614	3518.75
3451.82584981771	3541.5
3453.73675574076	3485.5
3455.64716472616	3496.75
3457.55707697445	3478.25
3459.46649268584	3470
3461.37541206019	3463.25
3463.28383529703	3504
3465.19176259556	3485.25
3467.09919415464	3500.25
3469.00613017278	3487
3470.91257084817	3503.25
3472.81851637863	3490
3474.72396696168	3495.25
3476.62892279446	3481
3478.5333840738	3480.5
3480.43735099614	3490
3482.34082375764	3460.75
3484.24380255404	3471
3486.1462875808	3480.25
3488.048279033	3498.5
3489.94977710537	3503.5
3491.85078199231	3479.25
3493.75129388784	3474.5
3495.65131298566	3446.75
3497.5508394791	3491
3499.44987356115	3430.25