201.866871357051	933
204.754250281454	929.75
207.640596790938	927.5
210.525911876299	930.75
213.410196525689	942
216.293451724508	928.5
219.175678455485	947.5
222.056877698662	937.75
224.937050431388	941.25
227.816197628363	933
230.694320261602	945.75
233.571419300504	949.25
236.447495711764	956.5
239.322550459507	962.25
242.196584505182	963.75
245.069598807626	966.25
247.941594323078	974.5
250.812572005154	972.25
253.682532804884	971
256.551477670699	973
259.419407548456	975.5
262.286323381439	982.75
265.152226110364	979.5
268.017116673389	989.25
270.880996006115	1007.25
273.743865041622	1007.25
276.605724710436	1020.5
279.466575940562	1046.5
282.326419657496	1046
285.1852567842	1029.25
288.043088241157	1003.25
290.899914946349	994.75
293.75573781526	979
296.610557760898	975.5
299.464375693817	972
302.317192522078	966
305.169009151297	981.5
308.019826484655	977.75
310.86964542287	965
313.718466864233	976
316.566291704614	976.25
319.413120837457	967.25
322.258955153804	979.25
325.103795542291	973.75
327.947642889128	972.25
330.79049807819	969
333.632361990927	973.25
336.473235506444	976.25
339.31311950145	972
342.152014850322	970.5
344.989922425062	983
347.826843095354	984.5
350.662777728528	973
353.497727189577	983.25
356.331692341195	996
359.164674043732	989.5
361.996673155267	990.25
364.827690531536	997.75
367.65772702602	1005.5
370.486783489887	988.5
373.314860772047	998
376.14195971912	995
378.968081175466	990.5
381.793225983212	1010
384.617394982201	1006.5
387.44058901005	999.5
390.262808902131	1027.75
393.08405549161	1035
395.904329609395	1043.5
398.723632084213	1059.75
401.541963742569	1046
404.359325408779	1032.75
407.175717904938	1016.5
409.991142050982	1023
412.805598664665	1006.75
415.619088561551	1025.75
418.43161255505	1018.25
421.243171456415	1022.25
424.053766074758	1014.5
426.863397217017	1014.75
429.672065688024	1002.25
432.479772290455	1022.25
435.286517824879	1017.25
438.092303089736	1009
440.897128881359	1029
443.70099599399	1032.5
446.503905219761	1036
449.305857348711	1048.75
452.106853168796	1048.25
454.906893465919	1059
457.705979023885	1054.5
460.504110624439	1048
463.3012890473	1043.5
466.097515070087	1025.75
468.892789468424	1006.75
471.687113015869	1026.75
474.48048648395	1026.75
477.272910642198	1011
480.064386258109	1021.25
482.854914097159	1026
485.644494922839	1024.5
488.433129496636	1023.25
491.220818578047	1017.75
494.007562924584	1038.5
496.793363291785	1039.5
499.578220433217	1031.5
502.362135100473	1019
505.145108043209	1043.5
507.927140009098	1028.75
510.708231743909	1037.75
513.488383991433	1037.75
516.267597493556	1051.75
519.04587299022	1051.75
521.82321121946	1053.25
524.599612917398	1062.75
527.375078818233	1054
530.149609654287	1058.75
532.923206155967	1051
535.695869051804	1043.25
538.467599068448	1045.5
541.238396930665	1031
544.008263361364	1023.75
546.777199081578	1029
549.545204810493	1037
552.312281265436	1044.5
555.078429161898	1048.75
557.843649213533	1034.25
560.607942132156	1046.5
563.371308627753	1022.75
566.133749408495	1047.5
568.895265180756	1034.25
571.655856649064	1054
574.415524516189	1046.5
577.174269483075	1058.75
579.932092248884	1050.75
582.688993510994	1048.5
585.444973965023	1052.5
588.200034304795	1043
590.95417522237	1069.5
593.70739740807	1060.75
596.459701550433	1061
599.21108833628	1058.25
601.961558450668	1049.75
604.711112576933	1055
607.459751396673	1054
610.207475589748	1063
612.954285834338	1061
615.700182806879	1054.75
618.445167182101	1052.25
621.189239633055	1031
623.932400831087	1046.25
626.674651445839	1044
629.415992145303	1048
632.156423595745	1044.75
634.895946461813	1041.75
637.634561406449	1047.75
640.37226909096	1039.25
643.109070174978	1049.25
645.844965316508	1055.75
648.579955171888	1052.75
651.314040395846	1053.75
654.047221641456	1056
656.779499560176	1049.5
659.510874801828	1050.5
662.241348014642	1049
664.97091984524	1064.25
667.699590938606	1066.75
670.427361938164	1059
673.15423348573	1061.25
675.880206221526	1052.5
678.605280784206	1072.75
681.329457810829	1069.25
684.05273793692	1056.75
686.775121796389	1061.25
689.49661002163	1067
692.217203243454	1072.5
694.936902091144	1062.5
697.655707192425	1063.5
700.373619173493	1065
703.09063865901	1052.75
705.806766272093	1077
708.522002634378	1099
711.236348365946	1097.5
713.94980408538	1089
716.662370409762	1086
719.374047954676	1066.25
722.08483733419	1058.25
724.794739160909	1075.25
727.503754045949	1058.25
730.21188259892	1076
732.919125427998	1060.25
735.625483139855	1069
738.330956339723	1069
741.035545631374	1053.75
743.739251617106	1076.25
746.44207489779	1069.75
749.144016072852	1085.75
751.845075740272	1076
754.545254496603	1067
757.244552936976	1089.25
759.94297165508	1077
762.640511243222	1093
765.337172292249	1070.75
768.032955391649	1082.75
770.727861129482	1083.25
773.421890092413	1080
776.11504286572	1100.5
778.807320033298	1087.5
781.49872217765	1081.75
784.18924987991	1062.25
786.87890371984	1083.25
789.567684275826	1085
792.255592124908	1101
794.94262784276	1097.75
797.628792003703	1112
800.314085180715	1124.75
802.998507945427	1206.5
805.682060868145	1240
808.364744517821	1269.5
811.046559462105	1265.75
813.727506267311	1222.75
816.407585498422	1168.25
819.08679771913	1118.25
821.765143491822	1110.75
824.442623377563	1133.5
827.119237936127	1120.25
829.794987726003	1124.75
832.469873304377	1127
835.143895227167	1129.5
837.817054048985	1150.25
840.489350323205	1144
843.160784601892	1134.5
845.831357435894	1135.5
848.501069374739	1120.75
851.169920966753	1113
853.837912758987	1126
856.505045297232	1121.5
859.171319126071	1123.25
861.836734788823	1113.5
864.501292827579	1095.75
867.164993783208	1116.75
869.827838195361	1095.75
872.489826602454	1108
875.150959541701	1092
877.811237549104	1108.5
880.470661159456	1099.75
883.129230906357	1102
885.786947322205	1083
888.443810938206	1087
891.099822284385	1092
893.754981889586	1119.75
896.409290281452	1123.75
899.062747986485	1118
901.715355529999	1105.75
904.367113436154	1109
907.01802222793	1119.25
909.668082427172	1111.25
912.317294554574	1109.5
914.965659129659	1122.25
917.613176670835	1122
920.259847695364	1129.5
922.90567271936	1102
925.550652257825	1104
928.194786824621	1131.5
930.838076932512	1115
933.480523093109	1120
936.122125816953	1128.5
938.762885613447	1144
941.402802990899	1142
944.041878456523	1156
946.680112516428	1124.5
949.31750567563	1129.75
951.954058438081	1146.25
954.589771306633	1137.75
957.224644783048	1136
959.858679368044	1127.25
962.491875561238	1147
965.12423386121	1162.25
967.75575476545	1192
970.386438770423	1221.25
973.016286371501	1247.25
975.645298063046	1215
978.273474338355	1181.75
980.900815689674	1165.75
983.527322608243	1146.25
986.152995584245	1142.5
988.777835106834	1154
991.401841664148	1146.5
994.025015743307	1156.5
996.647357830407	1143.5
999.268868410534	1163.75
1001.88954796777	1149.75
1004.50939698518	1139.75
1007.12841594484	1141
1009.74660532783	1150.75
1012.36396561423	1166
1014.98049728314	1144.75
1017.59620081267	1150.5
1020.21107667995	1152.25
1022.82512536112	1147.75
1025.43834733138	1163.25
1028.05074306493	1167.5
1030.66231303501	1163
1033.27305771392	1165.75
1035.88297757299	1179.25
1038.49207308257	1190.25
1041.10034471211	1178.75
1043.70779293008	1178.75
1046.31441820402	1178.75
1048.92022100052	1164.75
1051.52520178525	1176.25
1054.12936102295	1176.75
1056.73269917742	1182.5
1059.33521671154	1175.5
1061.93691408729	1191.25
1064.53779176571	1170.75
1067.13785020694	1175.5
1069.73708987022	1175
1072.33551121386	1188
1074.93311469528	1179.25
1077.52990077103	1190.5
1080.12586989674	1237
1082.72102252714	1328
1085.31535911611	1392.75
1087.90888011663	1384
1090.50158598078	1282
1093.09347715979	1207
1095.68455410403	1184
1098.27481726296	1188.5
1100.86426708523	1187.25
1103.45290401857	1194.25
1106.04072850991	1191.25
1108.6277410053	1203
1111.21394194993	1191.75
1113.79933178816	1183.5
1116.3839109635	1199
1118.96767991862	1191.25
1121.55063909539	1198.75
1124.13278893477	1202.5
1126.71412987696	1216.25
1129.29466236132	1217
1131.87438682637	1212.5
1134.45330370982	1216.75
1137.03141344858	1213.5
1139.60871647872	1228.5
1142.18521323554	1223.25
1144.7609041535	1246.5
1147.33578966629	1255.5
1149.90987020676	1257.5
1152.48314620702	1284.5
1155.05561809835	1264.25
1157.62728631125	1281.5
1160.19815127545	1304.5
1162.76821341988	1346.25
1165.33747317271	1352.25
1167.90593096133	1377
1170.47358721235	1351.75
1173.04044235163	1316.25
1175.60649680425	1308
1178.17175099454	1289
1180.73620534607	1269.25
1183.29986028165	1262.25
1185.86271622336	1250
1188.42477359249	1238.25
1190.98603280964	1243.5
1193.54649429462	1243.5
1196.10615846653	1239.5
1198.66502574372	1238.25
1201.22309654385	1243
1203.78037128378	1253
1206.33685037971	1235
1208.89253424709	1238.5
1211.44742330063	1262.5
1214.00151795438	1253.25
1216.55481862163	1263.5
1219.10732571497	1271.25
1221.65903964631	1282
1224.20996082683	1269.75
1226.760089667	1275.25
1229.30942657664	1273
1231.85797196483	1271
1234.40572623998	1263.25
1236.95268980981	1282.75
1239.49886308136	1272.75
1242.04424646098	1263
1244.58884035435	1301
1247.13264516647	1304
1249.67566130166	1290.75
1252.21788916358	1294.25
1254.75932915524	1320.5
1257.29998167896	1324.25
1259.83984713639	1287.25
1262.37892592857	1307.25
1264.91721845586	1298
1267.45472511795	1303
1269.9914463139	1309
1272.52738244213	1316.5
1275.0625339004	1323.75
1277.59690108587	1325
1280.130484395	1338
1282.66328422367	1321.5
1285.19530096712	1330.75
1287.72653501993	1343.5
1290.25698677608	1336.25
1292.78665662894	1345.5
1295.31554497125	1354.25
1297.8436521951	1370.5
1300.37097869203	1358.5
1302.89752485292	1365.25
1305.42329106805	1359.75
1307.94827772713	1379
1310.47248521921	1361.5
1312.99591393279	1355.75
1315.51856425575	1378
1318.04043657536	1383.5
1320.56153127836	1380
1323.08184875083	1421
1325.6013893783	1421.75
1328.12015354572	1450.5
1330.63814163744	1475.25
1333.15535403727	1431
1335.67179112839	1422.25
1338.18745329347	1434.75
1340.70234091454	1402.5
1343.21645437314	1416.5
1345.72979405019	1433
1348.24236032607	1405.75
1350.75415358059	1417
1353.26517419303	1445.25
1355.7754225421	1451.5
1358.28489900594	1489
1360.79360396218	1476.75
1363.30153778787	1460
1365.80870085955	1441.25
1368.31509355319	1469
1370.82071624424	1436
1373.32556930762	1456.25
1375.8296531177	1462.75
1378.33296804832	1457.75
1380.83551447282	1452.5
1383.33729276399	1435.5
1385.83830329408	1440.25
1388.33854643489	1439.25
1390.83802255762	1455
1393.33673203301	1446
1395.83467523128	1443.5
1398.33185252211	1435.5
1400.82826427471	1438.75
1403.32391085777	1447.75
1405.81879263947	1460.75
1408.31290998752	1467
1410.80626326908	1461.25
1413.29885285087	1461.25
1415.79067909909	1477
1418.28174237944	1497
1420.77204305717	1503.75
1423.26158149702	1490.25
1425.75035806323	1488.75
1428.2383731196	1500
1430.72562702942	1512.25
1433.21212015554	1551.5
1435.69785286028	1565
1438.18282550555	1574.5
1440.66703845275	1570.75
1443.15049206284	1574.5
1445.6331866963	1595.25
1448.11512271316	1603.5
1450.59630047298	1612.75
1453.07672033486	1661.5
1455.55638265748	1665.75
1458.03528779902	1687.25
1460.51343611725	1683
1462.99082796946	1671
1465.46746371252	1646.25
1467.94334370285	1635.5
1470.41846829642	1617.75
1472.89283784878	1610.75
1475.36645271503	1602.25
1477.83931324983	1595.25
1480.31141980743	1612
1482.78277274164	1587.75
1485.25337240583	1614.75
1487.72321915297	1610.25
1490.19231333557	1607.75
1492.66065530578	1629.25
1495.12824541525	1606.5
1497.5950840153	1619.25
1500.06117145678	1622.25
1502.52650809014	1617.25
1504.99109426543	1625.25
1507.45493033227	1625
1509.91801663992	1625.5
1512.38035353717	1622.5
1514.84194137248	1632.25
1517.30278049386	1663.5
1519.76287124894	1650.25
1522.22221398497	1628.25
1524.68080904876	1649.25
1527.13865678681	1632.5
1529.59575754514	1668.5
1532.05211166945	1674.5
1534.50771950503	1671.75
1536.96258139678	1692
1539.41669768924	1688.5
1541.87006872656	1713.5
1544.32269485252	1722.5
1546.77457641051	1716.25
1549.22571374357	1750
1551.67610719434	1738.5
1554.12575710513	1712.25
1556.57466381785	1732
1559.02282767408	1746.5
1561.47024901499	1750
1563.91692818144	1766.5
1566.3628655139	1783
1568.80806135249	1789.75
1571.252516037	1766.75
1573.6962299068	1796.5
1576.13920330099	1785.5
1578.58143655828	1800.5
1581.02293001704	1817
1583.46368401528	1817
1585.90369889071	1813.75
1588.34297498065	1840.75
1590.7815126221	1832.75
1593.21931215173	1856.75
1595.65637390588	1907.25
1598.09269822053	1910.5
1600.52828543135	1920.5
1602.96313587367	1934.5
1605.3972498825	1907.75
1607.83062779252	1897.5
1610.26326993808	1898.25
1612.69517665322	1933.5
1615.12634827165	1922.25
1617.55678512676	1901.25
1619.98648755163	1852.75
1622.41545587902	1861
1624.84369044138	1856
1627.27119157085	1845
1629.69795959924	1852
1632.12399485808	1877
1634.54929767859	1869.5
1636.97386839165	1879.5
1639.39770732789	1870
1641.8208148176	1883.75
1644.24319119078	1879.75
1646.66483677715	1868.5
1649.0857519061	1896.25
1651.50593690677	1890.5
1653.92539210795	1900.75
1656.3441178382	1896.5
1658.76211442575	1899.25
1661.17938219855	1931
1663.59592148428	1905.25
1666.01173261032	1922.75
1668.42681590377	1950.25
1670.84117169145	1958
1673.25480029991	1949.75
1675.66770205541	1948.75
1678.07987728393	1961.5
1680.49132631119	1965.5
1682.90204946263	1948.25
1685.31204706342	1988.75
1687.72131943846	2000.5
1690.1298669124	1990
1692.53768980957	1999.75
1694.94478845411	2021.75
1697.35116316982	2004.25
1699.75681428031	1984
1702.16174210887	2017.25
1704.56594697858	2025.25
1706.96942921222	2025.25
1709.37218913235	2025.75
1711.77422706125	2033.75
1714.17554332098	2018.25
1716.5761382333	2051.25
1718.97601211977	2053.75
1721.37516530169	2039.25
1723.77359810006	2038.5
1726.17131083572	2046
1728.56830382922	2060.75
1730.96457740087	2056.5
1733.36013187075	2071.5
1735.75496755868	2042.5
1738.14908478428	2042.75
1740.54248386689	2046
1742.93516512565	2075.25
1745.32712887946	2088.75
1747.71837544697	2060.75
1750.10890514662	2091.75
1752.49871829661	2061
1754.88781521492	2099.75
1757.27619621929	2100.25
1759.66386162726	2077
1762.05081175612	2071
1764.43704692297	2118
1766.82256744465	2097
1769.20737363782	2115.75
1771.59146581887	2100.5
1773.97484430405	2105.5
1776.35750940932	2142.5
1778.73946145048	2122.25
1781.12070074309	2122.75
1783.50122760249	2123.25
1785.88104234385	2166
1788.26014528209	2144
1790.63853673196	2153.75
1793.01621700796	2163.75
1795.39318642443	2174
1797.76944529549	2165
1800.14499393503	2176.25
1802.51983265681	2187.5
1804.8939617743	2179
1807.26738160085	2230.25
1809.64009244957	2209
1812.01209463339	2182.75
1814.38338846504	2225
1816.75397425706	2211
1819.12385232181	2211.75
1821.49302297142	2213.25
1823.86148651789	2201.25
1826.22924327299	2194.5
1828.59629354831	2249
1830.96263765526	2228.75
1833.32827590507	2212.75
1835.69320860877	2243
1838.05743607724	2238.25
1840.42095862113	2226.25
1842.78377655097	2243.75
1845.14589017707	2244.25
1847.50729980956	2284.25
1849.86800575843	2241.25
1852.22800833346	2239.25
1854.58730784427	2243.5
1856.94590460032	2282.5
1859.30379891087	2250.5
1861.66099108503	2274
1864.01748143175	2283.5
1866.37327025978	2291.75
1868.72835787773	2278.75
1871.08274459403	2288
1873.43643071697	2324
1875.78941655464	2318.5
1878.14170241498	2284.25
1880.4932886058	2302
1882.84417543469	2321.5
1885.19436320915	2340
1887.54385223646	2361
1889.89264282378	2341.75
1892.24073527809	2364.25
1894.58812990625	2381.5
1896.93482701493	2390.25
1899.28082691067	2356.5
1901.62612989984	2379
1903.97073628868	2382.5
1906.31464638326	2406.5
1908.6578604895	2414.25
1911.00037891321	2439
1913.34220196	2444.5
1915.68332993537	2439.75
1918.02376314468	2453.25
1920.36350189311	2435.75
1922.70254648573	2459.5
1925.04089722744	2448.25
1927.37855442303	2441
1929.71551837715	2445.25
1932.05178939426	2471.75
1934.38736777876	2493
1936.72225383484	2440.75
1939.0564478666	2479.75
1941.38995017799	2456.5
1943.72276107283	2483.75
1946.05488085479	2458
1948.38630982744	2451.25
1950.71704829419	2481.75
1953.04709655832	2477.5
1955.376454923	2489.5
1957.70512369126	2478.75
1960.03310316599	2482
1962.36039364999	2487.25
1964.68699544589	2475.25
1967.01290885622	2497.75
1969.33813418338	2476.25
1971.66267172965	2509.75
1973.98652179718	2502.25
1976.309684688	2512.75
1978.63216070402	2536
1980.95395014705	2541
1983.27505331873	2514.25
1985.59547052063	2543
1987.9152020542	2558.5
1990.23424822074	2548
1992.55260932146	2535.75
1994.87028565746	2548.5
1997.18727752968	2575.75
1999.503585239	2595.25
2001.81920908618	2583.25
2004.13414937184	2590.25
2006.44840639651	2626
2008.7619804606	2625.75
2011.07487186442	2648.25
2013.38708090815	2672.75
2015.6986078919	2658
2018.00945311564	2682.75
2020.31961687923	2652.5
2022.62909948246	2674.5
2024.93790122498	2664.75
2027.24602240636	2704.75
2029.55346332604	2719.75
2031.86022428337	2716
2034.16630557761	2724
2036.47170750791	2723.5
2038.77643037331	2718.5
2041.08047447275	2729
2043.38384010509	2714.75
2045.68652756907	2757.5
2047.98853716335	2745
2050.28986918648	2748.25
2052.59052393692	2746.75
2054.89050171302	2756.5
2057.18980281306	2762.75
2059.4884275352	2793.75
2061.78637617753	2743.75
2064.08364903802	2775.25
2066.38024641457	2796.75
2068.67616860497	2772.75
2070.97141590694	2768.5
2073.26598861809	2765.75
2075.55988703595	2765.25
2077.85311145796	2786.75
2080.14566218145	2762.75
2082.43753950371	2797
2084.72874372188	2797.75
2087.01927513307	2770.5
2089.30913403428	2791.75
2091.59832072241	2784
2093.88683549429	2792.25
2096.17467864666	2780.5
2098.46185047619	2812.5
2100.74835127944	2826
2103.03418135292	2822
2105.31934099303	2806.5
2107.6038304961	2796
2109.88765015838	2826.25
2112.17080027602	2829
2114.45328114513	2852.5
2116.7350930617	2827.25
2119.01623632165	2817
2121.29671122085	2827.5
2123.57651805505	2831
2125.85565711996	2845.25
2128.13412871117	2837.75
2130.41193312424	2834.25
2132.68907065462	2849.75
2134.96554159771	2875.25
2137.24134624881	2840.25
2139.51648490317	2858
2141.79095785593	2842.25
2144.0647654022	2897.5
2146.33790783698	2847.25
2148.61038545524	2847.25
2150.88219855182	2871.75
2153.15334742154	2876.75
2155.42383235911	2865
2157.6936536592	2896.25
2159.9628116164	2917
2162.23130652522	2864.25
2164.49913868011	2852.75
2166.76630837544	2901.5
2169.03281590552	2896
2171.2986615646	2931.5
2173.56384564685	2904.75
2175.82836844637	2876
2178.0922302572	2911
2180.35543137332	2880.25
2182.61797208862	2892.5
2184.87985269695	2890.5
2187.14107349208	2857
2189.40163476773	2883
2191.66153681753	2863.25
2193.92077993507	2860
2196.17936441386	2890.25
2198.43729054735	2863
2200.69455862894	2875
2202.95116895194	2848.25
2205.20712180962	2847.75
2207.46241749519	2827.25
2209.71705630179	2843.5
2211.97103852248	2865.25
2214.2243644503	2874.5
2216.47703437819	2856.5
2218.72904859905	2859
2220.98040740571	2842.25
2223.23111109095	2841
2225.4811599475	2851
2227.73055426799	2844
2229.97929434504	2865
2232.22738047118	2824.75
2234.47481293889	2840.75
2236.72159204058	2835.5
2238.96771806864	2855.25
2241.21319131536	2859.75
2243.458012073	2812.75
2245.70218063374	2849.25
2247.94569728973	2854.5
2250.18856233304	2849.25
2252.4307760557	2808
2254.67233874967	2872.25
2256.91325070687	2821
2259.15351221915	2812.75
2261.39312357831	2828.25
2263.63208507611	2817.5
2265.87039700422	2833.75
2268.1080596543	2828.25
2270.34507331792	2804.25
2272.5814382866	2838.75
2274.81715485183	2843
2277.05222330502	2790.25
2279.28664393755	2827.25
2281.52041704072	2809
2283.75354290581	2828.75
2285.98602182401	2798.25
2288.21785408648	2819.5
2290.44903998434	2783.25
2292.67957980862	2826
2294.90947385033	2780.25
2297.1387224004	2822
2299.36732574975	2821
2301.59528418921	2806.25
2303.82259800958	2804
2306.04926750158	2838
2308.27529295593	2832.5
2310.50067466325	2799.25
2312.72541291412	2803.75
2314.9495079991	2779.25
2317.17296020866	2815.75
2319.39576983323	2846.5
2321.61793716322	2771.75
2323.83946248894	2760.5
2326.06034610069	2810
2328.28058828871	2796.25
2330.50018934317	2791.25
2332.7191495542	2785.5
2334.93746921192	2780.25
2337.15514860633	2789.5
2339.37218802743	2804.5
2341.58858776516	2751.5
2343.80434810941	2777
2346.01946935001	2754
2348.23395177675	2771
2350.44779567939	2764.25
2352.66100134759	2755
2354.87356907101	2767.5
2357.08549913925	2759.75
2359.29679184185	2770.25
2361.50744746829	2790
2363.71746630804	2772
2365.92684865048	2754.25
2368.13559478499	2723.75
2370.34370500083	2730.25
2372.55117958727	2737.75
2374.75801883352	2739.75
2376.96422302874	2727.75
2379.16979246202	2711.5
2381.37472742243	2719.25
2383.57902819898	2733
2385.78269508063	2712
2387.98572835629	2710
2390.18812831482	2697.25
2392.38989524505	2716
2394.59102943573	2719.5
2396.79153117559	2693.75
2398.9914007533	2694.5
2401.19063845748	2700
2403.38924457672	2672.75
2405.58721939951	2682.75
2407.78456321435	2686
2409.98127630966	2684
2412.17735897382	2683.25
2414.37281149517	2708
2416.56763416198	2672.25
2418.76182726249	2687.25
2420.95539108487	2667.25
2423.14832591726	2682
2425.34063204776	2649.75
2427.53230976439	2665.75
2429.72335935513	2654
2431.91378110795	2656
2434.10357531071	2641
2436.29274225125	2632.25
2438.48128221739	2611.25
2440.66919549683	2635.75
2442.8564823773	2630.75
2445.04314314641	2651.5
2447.22917809176	2654.25
2449.4145875009	2660.5
2451.59937166131	2597.75
2453.78353086044	2588.5
2455.96706538568	2644.5
2458.14997552436	2626.75
2460.33226156379	2600.25
2462.51392379119	2594.75
2464.69496249376	2574.25
2466.87537795862	2592
2469.05517047288	2588
2471.23434032357	2583.75
2473.41288779767	2620.5
2475.59081318211	2578.75
2477.76811676378	2552.5
2479.9447988295	2579.25
2482.12085966605	2568.5
2484.29629956016	2557
2486.4711187985	2572.75
2488.64531766769	2586.25
2490.8188964543	2580.75
2492.99185544484	2579.75
2495.16419492579	2550.5
2497.33591518353	2561
2499.50701650444	2563.25
2501.67749917482	2562.5
2503.84736348091	2549
2506.01660970891	2545.75
2508.18523814496	2544.5
2510.35324907514	2561.5
2512.52064278551	2562.75
2514.68741956201	2529.25
2516.85357969058	2585.75
2519.01912345709	2573.25
2521.18405114735	2537.25
2523.34836304711	2567.5
2525.51205944208	2555
2527.6751406179	2546.75
2529.83760686016	2567
2531.99945845439	2566.75
2534.16069568606	2560
2536.3213188406	2551.75
2538.48132820336	2570.75
2540.64072405965	2590.5
2542.79950669471	2564.75
2544.95767639373	2588
2547.11523344184	2546.25
2549.27217812411	2569.5
2551.42851072555	2569.5
2553.58423153111	2566
2555.73934082569	2531
2557.89383889412	2549
2560.04772602118	2557
2562.20100249158	2549.25
2564.35366858996	2530.5
2566.50572460093	2543.5
2568.65717080901	2515.75
2570.80800749867	2520.25
2572.95823495433	2531.75
2575.10785346031	2489.5
2577.25686330093	2487
2579.40526476038	2495.5
2581.55305812282	2514.75
2583.70024367237	2485.25
2585.84682169303	2495.25
2587.99279246879	2497.25
2590.13815628354	2467.5
2592.28291342112	2491.5
2594.42706416531	2461.75
2596.5706087998	2482.75
2598.71354760826	2481
2600.85588087425	2465
2602.99760888127	2496.5
2605.13873191278	2492
2607.27925025214	2462.25
2609.41916418269	2474.5
2611.55847398764	2481
2613.69717995017	2455.75
2615.83528235339	2514.75
2617.97278148034	2483.25
2620.10967761398	2461
2622.2459710372	2485.75
2624.38166203284	2492.5
2626.51675088365	2492.5
2628.65123787231	2484.5
2630.78512328145	2483.75
2632.9184073936	2485.75
2635.05109049124	2478
2637.18317285676	2452
2639.31465477248	2524
2641.44553652067	2489
2643.5758183835	2501.75
2645.70550064309	2470.5
2647.83458358144	2474.5
2649.96306748053	2500
2652.09095262223	2493.5
2654.21823928836	2494.5
2656.34492776063	2492.5
2658.47101832071	2484.75
2660.59651125015	2491.5
2662.72140683047	2505
2664.84570534309	2520.25
2666.96940706934	2490
2669.0925122905	2484.5
2671.21502128773	2496.75
2673.33693434215	2496.5
2675.45825173479	2501.75
2677.57897374658	2514.75
2679.69910065839	2512
2681.818632751	2507.5
2683.93757030511	2500.25
2686.05591360133	2492.5
2688.17366292021	2504.75
2690.29081854218	2502.75
2692.40738074762	2492.25
2694.52334981681	2490.75
2696.63872602995	2512.75
2698.75350966713	2497
2700.86770100841	2516.25
2702.98130033371	2517.75
2705.09430792289	2513.25
2707.20672405571	2530.5
2709.31854901185	2561.75
2711.42978307091	2542.75
2713.54042651238	2529.25
2715.65047961567	2578.5
2717.7599426601	2581
2719.86881592491	2595.75
2721.97709968924	2601.75
2724.08479423213	2568.75
2726.19189983255	2568
2728.29841676934	2578.25
2730.4043453213	2584
2732.5096857671	2574.75
2734.61443838532	2550.75
2736.71860345444	2544
2738.82218125286	2562
2740.92517205889	2568.25
2743.02757615072	2577.75
2745.12939380646	2550.25
2747.23062530411	2543.25
2749.33127092159	2579
2751.4313309367	2536.5
2753.53080562716	2568.25
2755.62969527058	2559.25
2757.72800014448	2523.25
2759.82572052625	2533
2761.92285669323	2569.75
2764.0194089226	2556.5
2766.11537749147	2559.75
2768.21076267686	2558
2770.30556475566	2547.25
2772.39978400465	2543.25
2774.49342070054	2566.25
2776.58647511991	2549
2778.67894753923	2534.75
2780.77083823487	2536.25
2782.8621474831	2534.25
2784.95287556007	2519
2787.04302274184	2538.5
2789.13258930433	2549
2791.22157552338	2544.5
2793.30998167471	2576
2795.39780803392	2565.75
2797.4850548765	2585.75
2799.57172247786	2554.25
2801.65781111324	2552.75
2803.74332105781	2576
2805.82825258661	2572.75
2807.91260597457	2583.5
2809.9963814965	2553.5
2812.07957942711	2575.25
2814.16220004096	2577.25
2816.24424361252	2599.25
2818.32571041614	2589.25
2820.40660072604	2577.75
2822.48691481631	2607
2824.56665296098	2632.25
2826.64581543388	2658
2828.72440250876	2680.25
2830.80241445925	2736.5
2832.87985155885	2793.75
2834.95671408093	2876
2837.03300229875	2967.5
2839.10871648544	2997.5
2841.18385691399	3010.75
2843.25842385729	2971.5
2845.33241758808	2894
2847.40583837898	2873.5
2849.4786865025	2868.25
2851.550962231	2833.25
2853.6226658367	2817.75
2855.69379759173	2824.5
2857.76435776806	2883
2859.83434663753	2927
2861.90376447184	2991.5
2863.97261154259	3159.25
2866.0408881212	3243
2868.10859447901	3241.75
2870.17573088717	3265
2872.24229761673	3280.5
2874.30829493859	3292
2876.37372312352	3322.5
2878.43858244215	3415.5
2880.50287316496	3494.75
2882.56659556231	3514
2884.62974990439	3488.75
2886.69233646129	3437.25
2888.75435550293	3374
2890.81580729909	3353.5
2892.87669211941	3257.5
2894.93701023339	3256.5
2896.99676191039	3233.25
2899.05594741961	3234.25
2901.1145670301	3235.5
2903.1726210108	3293.75
2905.23010963045	3344
2907.28703315768	3320
2909.34339186096	3330
2911.39918600861	3272.25
2913.45441586879	3214.5
2915.50908170952	3173.5
2917.56318379867	3198.5
2919.61672240395	3172.25
2921.66969779291	3182
2923.72211023295	3179
2925.77395999134	3167.75
2927.82524733515	3156
2929.87597253132	3096.25
2931.92613584663	3052
2933.97573754769	2996.25
2936.02477790097	2919.5
2938.07325717276	2935
2940.1211756292	2916.25
2942.16853353626	2944
2944.21533115976	2947.25
2946.26156876536	3005
2948.30724661853	3097.75
2950.3523649846	3179
2952.39692412872	3238
2954.44092431587	3295.5
2956.48436581089	3385.5
2958.52724887843	3515
2960.56957378296	3611
2962.6113407888	3609.5
2964.65255016011	3519.25
2966.69320216083	3411.75
2968.73329705479	3256.75
2970.77283510559	3145
2972.81181657671	3021
2974.8502417314	2928.5
2976.88811083279	2891
2978.92542414378	2878.75
2980.96218192713	2836.75
2982.99838444541	2799.5
2985.034031961	2775
2987.06912473612	2728.25
2989.1036630328	2738.75
2991.13764711288	2767.5
2993.17107723804	2729.25
2995.20395366974	2762.25
2997.23627666931	2744.5
2999.26804649782	2751.25
3001.29926341624	2735.5
3003.32992768528	2783.25
3005.3600395655	2762
3007.38959931726	2754.25
3009.41860720076	2748.5
3011.44706347595	2789.25
3013.47496840263	2781.25
3015.50232224041	2786.5
3017.5291252487	2788.5
3019.5553776867	2739.75
3021.58107981344	2771.5
3023.60623188773	2788.25
3025.63083416822	2775.5
3027.65488691331	2796.25
3029.67839038125	2787.25
3031.70134483007	2769
3033.72375051759	2826.25
3035.74560770144	2803.75
3037.76691663907	2820
3039.78767758768	2801.5
3041.80789080431	2823.75
3043.82755654577	2847
3045.84667506867	2829.75
3047.8652466294	2844.75
3049.88327148418	2823
3051.90074988899	2825
3053.91768209961	2816.5
3055.9340683716	2805.5
3057.94990896033	2816.75
3059.96520412095	2826.25
3061.97995410838	2828.5
3063.99415917734	2847.25
3066.00781958234	2799.5
3068.02093557766	2841.75
3070.03350741738	2821
3072.04553535535	2822.5
3074.05701964521	2803.25
3076.06796054036	2808.5
3078.078358294	2809.25
3080.08821315912	2805.75
3082.09752538846	2863
3084.10629523454	2805.25
3086.11452294967	2838.5
3088.12220878592	2809.25
3090.12935299515	2836.25
3092.13595582898	2819
3094.1420175388	2826.75
3096.14753837579	2837.25
3098.15251859088	2828.75
3100.15695843477	2824.5
3102.16085815793	2820.5
3104.16421801061	2784
3106.16703824282	2822.25
3108.16931910432	2815.5
3110.17106084464	2813.25
3112.17226371308	2819.5
3114.17292795872	2830.75
3116.17305383034	2843
3118.17264157657	2835
3120.17169144571	2816
3122.17020368587	2822.5
3124.16817854492	2804.5
3126.16561627044	2844.75
3128.16251710982	2867
3130.15888131017	2878.25
3132.15470911837	2853.75
3134.15000078104	2866.75
3136.14475654455	2886
3138.13897665502	2865.5
3140.13266135835	2882.75
3142.12581090014	2894.25
3144.11842552577	2899.25
3146.11050548036	2895.25
3148.10205100875	2853.5
3150.09306235557	2897.5
3152.08353976515	2879.75
3154.07348348158	2870.25
3156.06289374869	2881.75
3158.05177081006	2875.25
3160.04011490899	2837
3162.02792628852	2909.25
3164.01520519145	2854.5
3166.00195186029	2873.25
3167.98816653728	2870.25
3169.97384946442	2909.75
3171.95900088344	2895.25
3173.94362103577	2876.5
3175.92771016259	2906.75
3177.91126850484	2893
3179.89429630312	2914.75
3181.87679379782	2878.75
3183.85876122903	2906.75
3185.84019883657	2934.25
3187.82110685997	2895.75
3189.80148553851	2919.25
3191.78133511116	2885.25
3193.76065581664	2920.25
3195.73944789337	2900.75
3197.7177115795	2925
3199.6954471129	2904.5
3201.67265473114	2897
3203.64933467153	2921
3205.62548717107	2929
3207.60111246648	2938.25
3209.57621079421	2921.75
3211.55078239041	2908.75
3213.52482749093	2893.5
3215.49834633133	2917.75
3217.4713391469	2915
3219.44380617262	2944.25
3221.41574764317	2930.5
3223.38716379296	2930.5
3225.35805485607	2917.75
3227.32842106631	2929.25
3229.29826265718	2973.25
3231.26757986187	2995.25
3233.2363729133	2969.75
3235.20464204405	2948.75
3237.17238748643	2951.25
3239.13960947243	2947.5
3241.10630823374	2963.5
3243.07248400174	2935.5
3245.03813700748	2951.25
3247.00326748177	2963.75
3248.96787565503	2972.25
3250.93196175742	3002.75
3252.89552601877	2976
3254.8585686686	2945
3256.82108993612	2980.75
3258.78309005022	2954.75
3260.74456923948	2970.25
3262.70552773215	2979.5
3264.66596575617	2974.5
3266.62588353916	2978
3268.58528130843	2976.75
3270.54415929094	2957.5
3272.50251771336	2969
3274.46035680201	2976.25
3276.4176767829	2985.25
3278.37447788171	2973.5
3280.33076032379	2951.5
3282.28652433416	2960
3284.24177013751	3006
3286.1964979582	3005.25
3288.15070802027	2942.75
3290.10440054741	2978.25
3292.05757576298	2958.5
3294.01023389001	2968
3295.96237515119	3002
3297.91399976887	2971.5
3299.86510796506	2978.75
3301.81569996142	2982.75
3303.76577597932	2974.5
3305.7153362397	2987.25
3307.66438096324	2978
3309.61291037024	2990
3311.56092468064	2969
3313.50842411404	3009.5
3315.45540888971	2994.5
3317.40187922656	2966
3319.34783534315	2979
3321.29327745768	2982.75
3323.23820578801	2955.25
3325.18262055164	2980.25
3327.1265219657	2969.5
3329.06991024699	2972
3331.01278561194	2972
3332.95514827662	2964.25
3334.89699845674	2968
3336.83833636766	2987.5
3338.77916222434	2914
3340.71947624143	2958.5
3342.65927863317	2997
3344.59856961346	2966.5
3346.53734939584	2966
3348.47561819344	2970
3350.41337621906	2968.5
3352.35062368513	2976.25
3354.28736080368	2964.75
3356.22358778637	2984.25
3358.15930484452	2966.5
3360.09451218904	2994.75
3362.02921003047	2958
3363.96339857898	2972.5
3365.89707804436	2957.25
3367.83024863602	2963
3369.76291056299	2968
3371.69506403389	2970.75
3373.62670925699	2972.5
3375.55784644016	2983
3377.4884757909	2956
3379.41859751629	3032.75
3381.34821182305	3003
3383.27731891749	2997.75
3385.20591900555	2982
3387.13401229276	3015.5
3389.06159898426	3014.75
3390.9886792848	3036.75
3392.91525339872	3021.75
3394.84132152998	3035
3396.76688388213	3037.5
3398.69194065833	3003.75
3400.61649206133	2995.5
3402.54053829348	3012.25
3404.46407955672	3004.5
3406.3871160526	3015.5
3408.30964798225	3023.5
3410.23167554639	3009.5
3412.15319894535	3060.5
3414.07421837904	3023
3415.99473404695	3022
3417.91474614817	3030.25
3419.83425488136	3024.75
3421.75326044479	3036.25
3423.67176303631	3012.75
3425.58976285332	3039.25
3427.50726009282	3004.5
3429.42425495143	2994
3431.34074762528	3014
3433.25673831012	2981.25
3435.17222720127	2995.5
3437.08721449362	3023.75
3439.00170038164	2992
3440.91568505936	3011.25
3442.82916872039	2985.75
3444.74215155791	2986.25
3446.65463376468	3003.25
3448.566615533	2994
3450.47809705476	2990
3452.3890785214	3021.25
3454.29956012393	2982.25
3456.20954205293	3010
3458.11902449853	3012.25
3460.02800765041	2985.5
3461.93649169784	2964.5
3463.84447682962	2972.5
3465.75196323412	3002.5
3467.65895109925	2967
3469.56544061249	2981.25
3471.47143196086	2973.75
3473.37692533093	2941.25
3475.28192090884	2928.25
3477.18641888026	2991
3479.09041943039	2956.75
3480.99392274402	2969
3482.89692900545	2975.5
3484.79943839853	2974.75
3486.70145110666	2974
3488.60296731277	2956
3490.50398719933	2959.25
3492.40451094836	2941.75
3494.30453874141	2934.75
3496.20407075956	2948.25
3498.10310718342	2955