201.866871357051	651
204.754250281454	654.25
207.640596790938	651.75
210.525911876299	656.5
213.410196525689	657.25
216.293451724508	660.5
219.175678455485	658.25
222.056877698662	662.5
224.937050431388	658.5
227.816197628363	662
230.694320261602	659
233.571419300504	665.25
236.447495711764	656.75
239.322550459507	664
242.196584505182	664
245.069598807626	670.5
247.941594323078	665.75
250.812572005154	666.5
253.682532804884	662.5
256.551477670699	670
259.419407548456	668
262.286323381439	663.75
265.152226110364	668.5
268.017116673389	658.75
270.880996006115	659.5
273.743865041622	662.5
276.605724710436	659.25
279.466575940562	654.75
282.326419657496	663
285.1852567842	655.75
288.043088241157	656.75
290.899914946349	662
293.75573781526	663
296.610557760898	657.25
299.464375693817	655
302.317192522078	663.5
305.169009151297	658.75
308.019826484655	659
310.86964542287	662.5
313.718466864233	663.25
316.566291704614	665
319.413120837457	670
322.258955153804	671.25
325.103795542291	671
327.947642889128	664.5
330.79049807819	655
333.632361990927	662.25
336.473235506444	659.25
339.31311950145	657.5
342.152014850322	661.25
344.989922425062	666.5
347.826843095354	665.25
350.662777728528	660.5
353.497727189577	662.75
356.331692341195	671
359.164674043732	659
361.996673155267	661.5
364.827690531536	661.75
367.65772702602	665.25
370.486783489887	671.25
373.314860772047	676.5
376.14195971912	680.75
378.968081175466	662.5
381.793225983212	676.75
384.617394982201	670.5
387.44058901005	677.75
390.262808902131	692.75
393.08405549161	717.75
395.904329609395	738.75
398.723632084213	759
401.541963742569	739.25
404.359325408779	726.5
407.175717904938	700.25
409.991142050982	691.75
412.805598664665	690
415.619088561551	696
418.43161255505	683.25
421.243171456415	684
424.053766074758	695.75
426.863397217017	692.5
429.672065688024	700
432.479772290455	703.25
435.286517824879	704
438.092303089736	703.75
440.897128881359	715
443.70099599399	713.5
446.503905219761	727
449.305857348711	719.75
452.106853168796	728
454.906893465919	717.25
457.705979023885	718.25
460.504110624439	713.25
463.3012890473	708
466.097515070087	690.5
468.892789468424	687
471.687113015869	684.25
474.48048648395	689
477.272910642198	680.25
480.064386258109	677
482.854914097159	672
485.644494922839	681.25
488.433129496636	676.5
491.220818578047	665.25
494.007562924584	675.5
496.793363291785	677.75
499.578220433217	677.5
502.362135100473	677
505.145108043209	672
507.927140009098	682
510.708231743909	676.5
513.488383991433	675.75
516.267597493556	689.25
519.04587299022	684.5
521.82321121946	687.75
524.599612917398	697.25
527.375078818233	700.25
530.149609654287	688.75
532.923206155967	688
535.695869051804	691.75
538.467599068448	679.25
541.238396930665	681.5
544.008263361364	676.25
546.777199081578	683.75
549.545204810493	683.25
552.312281265436	673.75
555.078429161898	677
557.843649213533	682
560.607942132156	681.75
563.371308627753	674.5
566.133749408495	689
568.895265180756	680.5
571.655856649064	688.75
574.415524516189	684.5
577.174269483075	690
579.932092248884	696.75
582.688993510994	693.25
585.444973965023	698.75
588.200034304795	697
590.95417522237	700
593.70739740807	704.5
596.459701550433	715
599.21108833628	716
601.961558450668	713.25
604.711112576933	715.75
607.459751396673	713.25
610.207475589748	722.5
612.954285834338	717.5
615.700182806879	712
618.445167182101	721
621.189239633055	713.5
623.932400831087	713.25
626.674651445839	700
629.415992145303	696.5
632.156423595745	682
634.895946461813	695.25
637.634561406449	681.75
640.37226909096	691.5
643.109070174978	685.25
645.844965316508	691
648.579955171888	674
651.314040395846	691.25
654.047221641456	682.25
656.779499560176	682.75
659.510874801828	686
662.241348014642	679.25
664.97091984524	682.25
667.699590938606	674.75
670.427361938164	676
673.15423348573	681.5
675.880206221526	678.5
678.605280784206	691.5
681.329457810829	674
684.05273793692	684.75
686.775121796389	690
689.49661002163	674.25
692.217203243454	682.5
694.936902091144	686
697.655707192425	681.25
700.373619173493	680.5
703.09063865901	678
705.806766272093	674.5
708.522002634378	683.5
711.236348365946	680.5
713.94980408538	679.25
716.662370409762	679.25
719.374047954676	676.75
722.08483733419	677.75
724.794739160909	673
727.503754045949	684.5
730.21188259892	673.25
732.919125427998	683
735.625483139855	686.25
738.330956339723	678.25
741.035545631374	677.75
743.739251617106	672.25
746.44207489779	674
749.144016072852	674
751.845075740272	672.25
754.545254496603	675
757.244552936976	678.5
759.94297165508	686.5
762.640511243222	681
765.337172292249	684.25
768.032955391649	681
770.727861129482	687.25
773.421890092413	685
776.11504286572	681.75
778.807320033298	682.25
781.49872217765	680
784.18924987991	681.25
786.87890371984	682
789.567684275826	682.75
792.255592124908	686
794.94262784276	691.25
797.628792003703	690.25
800.314085180715	703.75
802.998507945427	726
805.682060868145	762.75
808.364744517821	755.25
811.046559462105	752.75
813.727506267311	732.5
816.407585498422	710
819.08679771913	702
821.765143491822	705
824.442623377563	701.75
827.119237936127	701.75
829.794987726003	708
832.469873304377	719.25
835.143895227167	736.5
837.817054048985	769
840.489350323205	793
843.160784601892	792.5
845.831357435894	755
848.501069374739	722.25
851.169920966753	705.5
853.837912758987	694.75
856.505045297232	693.5
859.171319126071	690.5
861.836734788823	690.75
864.501292827579	692.5
867.164993783208	683.75
869.827838195361	680.25
872.489826602454	687.25
875.150959541701	686.25
877.811237549104	682.25
880.470661159456	677.75
883.129230906357	685.75
885.786947322205	686.75
888.443810938206	681.5
891.099822284385	688.25
893.754981889586	695.25
896.409290281452	698.75
899.062747986485	692.5
901.715355529999	700
904.367113436154	694.25
907.01802222793	689
909.668082427172	680.75
912.317294554574	685.5
914.965659129659	685
917.613176670835	682.5
920.259847695364	685.75
922.90567271936	684.75
925.550652257825	692
928.194786824621	683.25
930.838076932512	691.25
933.480523093109	692.25
936.122125816953	699.5
938.762885613447	695
941.402802990899	700.5
944.041878456523	703
946.680112516428	690
949.31750567563	689.25
951.954058438081	689.5
954.589771306633	688.25
957.224644783048	689.75
959.858679368044	686.75
962.491875561238	689.25
965.12423386121	702.5
967.75575476545	699.25
970.386438770423	716.75
973.016286371501	713.5
975.645298063046	708
978.273474338355	713.75
980.900815689674	691
983.527322608243	689.25
986.152995584245	687.5
988.777835106834	694.25
991.401841664148	710.25
994.025015743307	714.25
996.647357830407	729
999.268868410534	727.75
1001.88954796777	723.5
1004.50939698518	699.25
1007.12841594484	702.25
1009.74660532783	701
1012.36396561423	695
1014.98049728314	696.5
1017.59620081267	699
1020.21107667995	694
1022.82512536112	702.75
1025.43834733138	700.5
1028.05074306493	698.5
1030.66231303501	710.75
1033.27305771392	717.75
1035.88297757299	721.5
1038.49207308257	720.75
1041.10034471211	727.25
1043.70779293008	715.25
1046.31441820402	713.75
1048.92022100052	706.75
1051.52520178525	702
1054.12936102295	695
1056.73269917742	689.75
1059.33521671154	695
1061.93691408729	693.25
1064.53779176571	698
1067.13785020694	690.75
1069.73708987022	691
1072.33551121386	691
1074.93311469528	695
1077.52990077103	692.5
1080.12586989674	689.25
1082.72102252714	698.5
1085.31535911611	693.5
1087.90888011663	701.25
1090.50158598078	693
1093.09347715979	699.25
1095.68455410403	700
1098.27481726296	693
1100.86426708523	702.75
1103.45290401857	703.75
1106.04072850991	707
1108.6277410053	690.5
1111.21394194993	694.25
1113.79933178816	699.75
1116.3839109635	699.75
1118.96767991862	697.25
1121.55063909539	692
1124.13278893477	701.25
1126.71412987696	701.5
1129.29466236132	695
1131.87438682637	691.25
1134.45330370982	702.5
1137.03141344858	715.5
1139.60871647872	709
1142.18521323554	720
1144.7609041535	740
1147.33578966629	749.25
1149.90987020676	776
1152.48314620702	774.5
1155.05561809835	763
1157.62728631125	749.5
1160.19815127545	737.25
1162.76821341988	726
1165.33747317271	733
1167.90593096133	726.25
1170.47358721235	722.25
1173.04044235163	715.5
1175.60649680425	707.75
1178.17175099454	696.25
1180.73620534607	697.25
1183.29986028165	703.5
1185.86271622336	697.75
1188.42477359249	697.25
1190.98603280964	694
1193.54649429462	697
1196.10615846653	693
1198.66502574372	698.75
1201.22309654385	700.25
1203.78037128378	700.25
1206.33685037971	696
1208.89253424709	708.75
1211.44742330063	708.25
1214.00151795438	719
1216.55481862163	726
1219.10732571497	729.5
1221.65903964631	732.5
1224.20996082683	714.25
1226.760089667	712.5
1229.30942657664	705
1231.85797196483	702.5
1234.40572623998	703.5
1236.95268980981	703.5
1239.49886308136	702
1242.04424646098	695.5
1244.58884035435	704.5
1247.13264516647	708.25
1249.67566130166	703
1252.21788916358	705.25
1254.75932915524	714.25
1257.29998167896	697
1259.83984713639	705.75
1262.37892592857	700.75
1264.91721845586	699.75
1267.45472511795	695.75
1269.9914463139	707.25
1272.52738244213	700.5
1275.0625339004	700.75
1277.59690108587	710.5
1280.130484395	708.25
1282.66328422367	704.25
1285.19530096712	709.5
1287.72653501993	709.75
1290.25698677608	709.75
1292.78665662894	717.5
1295.31554497125	720.75
1297.8436521951	718
1300.37097869203	716.5
1302.89752485292	720.5
1305.42329106805	710.25
1307.94827772713	707.25
1310.47248521921	713.25
1312.99591393279	714.5
1315.51856425575	714.5
1318.04043657536	724.25
1320.56153127836	743
1323.08184875083	759
1325.6013893783	781.75
1328.12015354572	805
1330.63814163744	800.25
1333.15535403727	789.75
1335.67179112839	760
1338.18745329347	750
1340.70234091454	731.5
1343.21645437314	721.75
1345.72979405019	723.75
1348.24236032607	722.75
1350.75415358059	728.75
1353.26517419303	725.5
1355.7754225421	749.75
1358.28489900594	758.25
1360.79360396218	759.5
1363.30153778787	746.5
1365.80870085955	740.25
1368.31509355319	740.5
1370.82071624424	734
1373.32556930762	726.25
1375.8296531177	735.5
1378.33296804832	722
1380.83551447282	719.75
1383.33729276399	713
1385.83830329408	710.75
1388.33854643489	717.25
1390.83802255762	709.75
1393.33673203301	718
1395.83467523128	714.25
1398.33185252211	707
1400.82826427471	718.5
1403.32391085777	711.5
1405.81879263947	716
1408.31290998752	717
1410.80626326908	710.5
1413.29885285087	701.25
1415.79067909909	710.25
1418.28174237944	714.75
1420.77204305717	713
1423.26158149702	716
1425.75035806323	718.5
1428.2383731196	726
1430.72562702942	739.25
1433.21212015554	744.5
1435.69785286028	757.25
1438.18282550555	758.25
1440.66703845275	745.75
1443.15049206284	751
1445.6331866963	757
1448.11512271316	769.5
1450.59630047298	774.25
1453.07672033486	814
1455.55638265748	834.75
1458.03528779902	827.25
1460.51343611725	840.5
1462.99082796946	819.25
1465.46746371252	788.25
1467.94334370285	759.5
1470.41846829642	752.75
1472.89283784878	738
1475.36645271503	743.5
1477.83931324983	728.5
1480.31141980743	727.75
1482.78277274164	727.5
1485.25337240583	718.75
1487.72321915297	719.25
1490.19231333557	717.25
1492.66065530578	719
1495.12824541525	727.25
1497.5950840153	732
1500.06117145678	722
1502.52650809014	725.25
1504.99109426543	722.5
1507.45493033227	725.75
1509.91801663992	724
1512.38035353717	719
1514.84194137248	720
1517.30278049386	721.25
1519.76287124894	721
1522.22221398497	715.5
1524.68080904876	722.25
1527.13865678681	729.5
1529.59575754514	721.25
1532.05211166945	717
1534.50771950503	721
1536.96258139678	721
1539.41669768924	721.75
1541.87006872656	733
1544.32269485252	725
1546.77457641051	722.25
1549.22571374357	732.25
1551.67610719434	726
1554.12575710513	723
1556.57466381785	731
1559.02282767408	722.75
1561.47024901499	723.75
1563.91692818144	731.5
1566.3628655139	720.5
1568.80806135249	728
1571.252516037	723
1573.6962299068	736.75
1576.13920330099	731.25
1578.58143655828	737.25
1581.02293001704	726.5
1583.46368401528	737
1585.90369889071	727.75
1588.34297498065	735
1590.7815126221	726
1593.21931215173	729.25
1595.65637390588	735.5
1598.09269822053	737
1600.52828543135	742.25
1602.96313587367	734.75
1605.3972498825	742
1607.83062779252	726
1610.26326993808	728.25
1612.69517665322	738.25
1615.12634827165	739.25
1617.55678512676	729.25
1619.98648755163	724.25
1622.41545587902	727.5
1624.84369044138	730.5
1627.27119157085	727.75
1629.69795959924	735
1632.12399485808	725
1634.54929767859	730
1636.97386839165	734.5
1639.39770732789	732
1641.8208148176	731.75
1644.24319119078	730
1646.66483677715	728.5
1649.0857519061	737
1651.50593690677	728.5
1653.92539210795	731
1656.3441178382	728
1658.76211442575	739.25
1661.17938219855	734.25
1663.59592148428	730.75
1666.01173261032	733.5
1668.42681590377	734.75
1670.84117169145	736.25
1673.25480029991	742
1675.66770205541	734
1678.07987728393	734.5
1680.49132631119	736.75
1682.90204946263	735.5
1685.31204706342	739.75
1687.72131943846	738.25
1690.1298669124	743
1692.53768980957	743
1694.94478845411	741
1697.35116316982	750.75
1699.75681428031	744
1702.16174210887	741.75
1704.56594697858	737.25
1706.96942921222	741.75
1709.37218913235	748.25
1711.77422706125	740
1714.17554332098	744.5
1716.5761382333	750.5
1718.97601211977	737.5
1721.37516530169	748
1723.77359810006	742.75
1726.17131083572	740.25
1728.56830382922	743.75
1730.96457740087	741.5
1733.36013187075	746.25
1735.75496755868	737
1738.14908478428	738
1740.54248386689	742.75
1742.93516512565	748.25
1745.32712887946	746.25
1747.71837544697	740
1750.10890514662	734.75
1752.49871829661	745.5
1754.88781521492	736
1757.27619621929	742.75
1759.66386162726	737.75
1762.05081175612	739
1764.43704692297	746.25
1766.82256744465	742.75
1769.20737363782	753.5
1771.59146581887	739.5
1773.97484430405	732.25
1776.35750940932	741.75
1778.73946145048	750.5
1781.12070074309	738.75
1783.50122760249	741.5
1785.88104234385	753
1788.26014528209	743
1790.63853673196	746.25
1793.01621700796	746.5
1795.39318642443	752.5
1797.76944529549	746.25
1800.14499393503	746.25
1802.51983265681	749.75
1804.8939617743	750.75
1807.26738160085	749.25
1809.64009244957	749.25
1812.01209463339	751.75
1814.38338846504	747.5
1816.75397425706	743.75
1819.12385232181	745.5
1821.49302297142	754
1823.86148651789	748
1826.22924327299	755.75
1828.59629354831	751.5
1830.96263765526	756
1833.32827590507	749
1835.69320860877	756.5
1838.05743607724	749.75
1840.42095862113	750
1842.78377655097	755.75
1845.14589017707	749.5
1847.50729980956	747.75
1849.86800575843	759
1852.22800833346	740
1854.58730784427	742.25
1856.94590460032	748.5
1859.30379891087	759.5
1861.66099108503	754.5
1864.01748143175	761.25
1866.37327025978	754.75
1868.72835787773	764.25
1871.08274459403	748
1873.43643071697	752.75
1875.78941655464	757.75
1878.14170241498	754.5
1880.4932886058	755.75
1882.84417543469	763.75
1885.19436320915	760.75
1887.54385223646	754.5
1889.89264282378	760.25
1892.24073527809	763.25
1894.58812990625	765
1896.93482701493	762.25
1899.28082691067	765.5
1901.62612989984	760.25
1903.97073628868	762.75
1906.31464638326	767
1908.6578604895	773.75
1911.00037891321	773
1913.34220196	766.25
1915.68332993537	772
1918.02376314468	765.5
1920.36350189311	764.5
1922.70254648573	766.25
1925.04089722744	765.5
1927.37855442303	766.5
1929.71551837715	775
1932.05178939426	765.75
1934.38736777876	768.5
1936.72225383484	777
1939.0564478666	772.75
1941.38995017799	764.5
1943.72276107283	763.5
1946.05488085479	766.25
1948.38630982744	772.25
1950.71704829419	780.25
1953.04709655832	764.5
1955.376454923	774.75
1957.70512369126	769.25
1960.03310316599	774.25
1962.36039364999	782
1964.68699544589	777.75
1967.01290885622	769
1969.33813418338	770
1971.66267172965	767.5
1973.98652179718	770
1976.309684688	777.25
1978.63216070402	768.25
1980.95395014705	780.75
1983.27505331873	764.5
1985.59547052063	776.75
1987.9152020542	781.5
1990.23424822074	766.5
1992.55260932146	776.25
1994.87028565746	772.75
1997.18727752968	774
1999.503585239	778
2001.81920908618	787.25
2004.13414937184	788.25
2006.44840639651	791.25
2008.7619804606	773.5
2011.07487186442	773.5
2013.38708090815	784.5
2015.6986078919	792.5
2018.00945311564	789.25
2020.31961687923	790.75
2022.62909948246	779.5
2024.93790122498	786.75
2027.24602240636	786
2029.55346332604	780
2031.86022428337	780.25
2034.16630557761	782
2036.47170750791	781.75
2038.77643037331	791.75
2041.08047447275	786.25
2043.38384010509	786.25
2045.68652756907	786
2047.98853716335	781.75
2050.28986918648	787.25
2052.59052393692	798.75
2054.89050171302	793.75
2057.18980281306	792
2059.4884275352	785.5
2061.78637617753	789.25
2064.08364903802	787
2066.38024641457	785.5
2068.67616860497	789.75
2070.97141590694	791.75
2073.26598861809	790.5
2075.55988703595	783.75
2077.85311145796	793.25
2080.14566218145	795.75
2082.43753950371	783.5
2084.72874372188	784.75
2087.01927513307	798.75
2089.30913403428	793
2091.59832072241	792.75
2093.88683549429	799
2096.17467864666	801
2098.46185047619	789.5
2100.74835127944	787.5
2103.03418135292	795.5
2105.31934099303	783.25
2107.6038304961	810
2109.88765015838	796.5
2112.17080027602	795.25
2114.45328114513	792.5
2116.7350930617	790.25
2119.01623632165	797.5
2121.29671122085	791
2123.57651805505	793.25
2125.85565711996	798.25
2128.13412871117	797.25
2130.41193312424	801.75
2132.68907065462	798.75
2134.96554159771	797.75
2137.24134624881	795.75
2139.51648490317	802.5
2141.79095785593	805.25
2144.0647654022	793.75
2146.33790783698	794.75
2148.61038545524	800.25
2150.88219855182	807
2153.15334742154	802.5
2155.42383235911	807.25
2157.6936536592	803
2159.9628116164	800.25
2162.23130652522	797.25
2164.49913868011	800.5
2166.76630837544	803.75
2169.03281590552	804.5
2171.2986615646	797.75
2173.56384564685	802.5
2175.82836844637	803.75
2178.0922302572	808.25
2180.35543137332	812.25
2182.61797208862	796
2184.87985269695	806
2187.14107349208	797.5
2189.40163476773	809.25
2191.66153681753	806.25
2193.92077993507	798.5
2196.17936441386	803.75
2198.43729054735	810.5
2200.69455862894	804.25
2202.95116895194	805
2205.20712180962	804.25
2207.46241749519	806.5
2209.71705630179	812
2211.97103852248	802.25
2214.2243644503	815
2216.47703437819	808.75
2218.72904859905	809.5
2220.98040740571	802.5
2223.23111109095	797
2225.4811599475	802.5
2227.73055426799	805.5
2229.97929434504	800.75
2232.22738047118	796.75
2234.47481293889	802.75
2236.72159204058	815.5
2238.96771806864	814.5
2241.21319131536	813
2243.458012073	805
2245.70218063374	809.25
2247.94569728973	816.25
2250.18856233304	805
2252.4307760557	803.75
2254.67233874967	811
2256.91325070687	818
2259.15351221915	817.5
2261.39312357831	804.5
2263.63208507611	812
2265.87039700422	816.25
2268.1080596543	810.25
2270.34507331792	808.75
2272.5814382866	804
2274.81715485183	807
2277.05222330502	818.5
2279.28664393755	808.5
2281.52041704072	812.5
2283.75354290581	804
2285.98602182401	815.25
2288.21785408648	816
2290.44903998434	813.25
2292.67957980862	804
2294.90947385033	805.75
2297.1387224004	816.25
2299.36732574975	818
2301.59528418921	817.25
2303.82259800958	810.5
2306.04926750158	820
2308.27529295593	807.25
2310.50067466325	811.25
2312.72541291412	810
2314.9495079991	815.5
2317.17296020866	818.5
2319.39576983323	817.5
2321.61793716322	805.5
2323.83946248894	805.75
2326.06034610069	813.25
2328.28058828871	808.25
2330.50018934317	817.5
2332.7191495542	821.25
2334.93746921192	816.75
2337.15514860633	818.25
2339.37218802743	805.5
2341.58858776516	812.25
2343.80434810941	810
2346.01946935001	815
2348.23395177675	819
2350.44779567939	825.5
2352.66100134759	811
2354.87356907101	810.5
2357.08549913925	808
2359.29679184185	800.25
2361.50744746829	816
2363.71746630804	811.25
2365.92684865048	814
2368.13559478499	807.75
2370.34370500083	816
2372.55117958727	814.5
2374.75801883352	820.75
2376.96422302874	816.75
2379.16979246202	816
2381.37472742243	808.25
2383.57902819898	806.75
2385.78269508063	809.75
2387.98572835629	801.75
2390.18812831482	819.5
2392.38989524505	803.25
2394.59102943573	814
2396.79153117559	811.5
2398.9914007533	811.25
2401.19063845748	815.75
2403.38924457672	807
2405.58721939951	814.75
2407.78456321435	807
2409.98127630966	807.25
2412.17735897382	816.25
2414.37281149517	812.75
2416.56763416198	815
2418.76182726249	811.75
2420.95539108487	803
2423.14832591726	814.25
2425.34063204776	804
2427.53230976439	807.5
2429.72335935513	817.25
2431.91378110795	803.25
2434.10357531071	814.25
2436.29274225125	806.5
2438.48128221739	800.5
2440.66919549683	815.5
2442.8564823773	814.75
2445.04314314641	804.75
2447.22917809176	805
2449.4145875009	821.75
2451.59937166131	809
2453.78353086044	816
2455.96706538568	803.25
2458.14997552436	807
2460.33226156379	805.75
2462.51392379119	810.25
2464.69496249376	809
2466.87537795862	815.25
2469.05517047288	791.75
2471.23434032357	805
2473.41288779767	802
2475.59081318211	815.75
2477.76811676378	800
2479.9447988295	808.75
2482.12085966605	802
2484.29629956016	816.5
2486.4711187985	801
2488.64531766769	808.25
2490.8188964543	805
2492.99185544484	794.25
2495.16419492579	808
2497.33591518353	792.75
2499.50701650444	803.75
2501.67749917482	810.75
2503.84736348091	803.25
2506.01660970891	803
2508.18523814496	804.5
2510.35324907514	801.75
2512.52064278551	802.75
2514.68741956201	798.25
2516.85357969058	803.25
2519.01912345709	803.5
2521.18405114735	812.5
2523.34836304711	805.25
2525.51205944208	801.75
2527.6751406179	801.5
2529.83760686016	803.75
2531.99945845439	817.75
2534.16069568606	799.5
2536.3213188406	808.75
2538.48132820336	810
2540.64072405965	808.75
2542.79950669471	799.25
2544.95767639373	817.5
2547.11523344184	810.25
2549.27217812411	815.75
2551.42851072555	818
2553.58423153111	820
2555.73934082569	800.5
2557.89383889412	804
2560.04772602118	810.25
2562.20100249158	814.75
2564.35366858996	788
2566.50572460093	796
2568.65717080901	816.75
2570.80800749867	803.75
2572.95823495433	800.75
2575.10785346031	808.5
2577.25686330093	809.25
2579.40526476038	802.5
2581.55305812282	814.5
2583.70024367237	801
2585.84682169303	808.5
2587.99279246879	798.75
2590.13815628354	801.5
2592.28291342112	794.5
2594.42706416531	800.75
2596.5706087998	801.25
2598.71354760826	810.75
2600.85588087425	799.75
2602.99760888127	804.75
2605.13873191278	803.75
2607.27925025214	791
2609.41916418269	809
2611.55847398764	800.75
2613.69717995017	795
2615.83528235339	806.5
2617.97278148034	808
2620.10967761398	807
2622.2459710372	799.5
2624.38166203284	802.25
2626.51675088365	806
2628.65123787231	803.5
2630.78512328145	795
2632.9184073936	798
2635.05109049124	801.75
2637.18317285676	802
2639.31465477248	808.5
2641.44553652067	806
2643.5758183835	810.75
2645.70550064309	809
2647.83458358144	817.25
2649.96306748053	814.5
2652.09095262223	823
2654.21823928836	814
2656.34492776063	822.75
2658.47101832071	813.75
2660.59651125015	815.5
2662.72140683047	812.25
2664.84570534309	813.75
2666.96940706934	805
2669.0925122905	807.5
2671.21502128773	817.25
2673.33693434215	805.5
2675.45825173479	815.25
2677.57897374658	815.75
2679.69910065839	821.25
2681.818632751	817.25
2683.93757030511	807.25
2686.05591360133	812.25
2688.17366292021	804
2690.29081854218	821.75
2692.40738074762	813
2694.52334981681	820
2696.63872602995	811.25
2698.75350966713	816
2700.86770100841	826.25
2702.98130033371	811.5
2705.09430792289	830.5
2707.20672405571	835.5
2709.31854901185	836.25
2711.42978307091	834.25
2713.54042651238	841.25
2715.65047961567	850.75
2717.7599426601	845.25
2719.86881592491	860
2721.97709968924	860.25
2724.08479423213	856.25
2726.19189983255	860.5
2728.29841676934	847
2730.4043453213	851
2732.5096857671	843.25
2734.61443838532	834.25
2736.71860345444	827.25
2738.82218125286	832.5
2740.92517205889	827.25
2743.02757615072	835
2745.12939380646	824
2747.23062530411	817.75
2749.33127092159	818.75
2751.4313309367	817.25
2753.53080562716	816.75
2755.62969527058	817.25
2757.72800014448	818.75
2759.82572052625	810.75
2761.92285669323	816.75
2764.0194089226	816.25
2766.11537749147	803.25
2768.21076267686	810.25
2770.30556475566	812.5
2772.39978400465	811.25
2774.49342070054	807
2776.58647511991	821
2778.67894753923	810.5
2780.77083823487	806.25
2782.8621474831	803.5
2784.95287556007	809.75
2787.04302274184	805.75
2789.13258930433	825.75
2791.22157552338	802.25
2793.30998167471	808.75
2795.39780803392	805.75
2797.4850548765	811.75
2799.57172247786	825
2801.65781111324	816.75
2803.74332105781	823.75
2805.82825258661	816.5
2807.91260597457	818.5
2809.9963814965	817.5
2812.07957942711	825.5
2814.16220004096	828.5
2816.24424361252	835
2818.32571041614	842.5
2820.40660072604	842
2822.48691481631	853.75
2824.56665296098	852
2826.64581543388	874.5
2828.72440250876	893.5
2830.80241445925	944.75
2832.87985155885	1012.75
2834.95671408093	1105
2837.03300229875	1174.25
2839.10871648544	1220.25
2841.18385691399	1194.5
2843.25842385729	1152.5
2845.33241758808	1086.5
2847.40583837898	1031.5
2849.4786865025	988.5
2851.550962231	964.75
2853.6226658367	960
2855.69379759173	962.5
2857.76435776806	990
2859.83434663753	1067.75
2861.90376447184	1165.25
2863.97261154259	1283
2866.0408881212	1366.5
2868.10859447901	1383.5
2870.17573088717	1391.25
2872.24229761673	1385
2874.30829493859	1402.5
2876.37372312352	1496.25
2878.43858244215	1590.25
2880.50287316496	1621.25
2882.56659556231	1699.75
2884.62974990439	1676
2886.69233646129	1627.25
2888.75435550293	1561
2890.81580729909	1508.5
2892.87669211941	1427.5
2894.93701023339	1429.5
2896.99676191039	1419.5
2899.05594741961	1465
2901.1145670301	1486.25
2903.1726210108	1517
2905.23010963045	1532.25
2907.28703315768	1481.25
2909.34339186096	1414.5
2911.39918600861	1337.25
2913.45441586879	1282.5
2915.50908170952	1264.75
2917.56318379867	1255.75
2919.61672240395	1268.25
2921.66969779291	1283.25
2923.72211023295	1291
2925.77395999134	1300
2927.82524733515	1285.5
2929.87597253132	1209.5
2931.92613584663	1167.5
2933.97573754769	1102.25
2936.02477790097	1058.25
2938.07325717276	1029.5
2940.1211756292	1016
2942.16853353626	1021.25
2944.21533115976	1061.25
2946.26156876536	1118.25
2948.30724661853	1189.25
2950.3523649846	1249
2952.39692412872	1264.5
2954.44092431587	1244
2956.48436581089	1176.5
2958.52724887843	1150.25
2960.56957378296	1129.25
2962.6113407888	1093.75
2964.65255016011	1052.5
2966.69320216083	1017.5
2968.73329705479	975.25
2970.77283510559	948
2972.81181657671	927.5
2974.8502417314	911
2976.88811083279	904.5
2978.92542414378	877.75
2980.96218192713	875.25
2982.99838444541	874.25
2985.034031961	859.25
2987.06912473612	839.75
2989.1036630328	842.25
2991.13764711288	839.75
2993.17107723804	832.75
2995.20395366974	833
2997.23627666931	838.5
2999.26804649782	837
3001.29926341624	835.5
3003.32992768528	844.25
3005.3600395655	836.5
3007.38959931726	826
3009.41860720076	835
3011.44706347595	824.75
3013.47496840263	831.5
3015.50232224041	828.25
3017.5291252487	829.75
3019.5553776867	823.5
3021.58107981344	828
3023.60623188773	824.5
3025.63083416822	832.25
3027.65488691331	829
3029.67839038125	823.25
3031.70134483007	823.25
3033.72375051759	823.25
3035.74560770144	827.5
3037.76691663907	832
3039.78767758768	826
3041.80789080431	822.75
3043.82755654577	821.5
3045.84667506867	819.25
3047.8652466294	830.5
3049.88327148418	821.25
3051.90074988899	828.5
3053.91768209961	828.5
3055.9340683716	830
3057.94990896033	821.25
3059.96520412095	830.75
3061.97995410838	827.75
3063.99415917734	821.75
3066.00781958234	818
3068.02093557766	821.5
3070.03350741738	827.75
3072.04553535535	816
3074.05701964521	818.5
3076.06796054036	821.5
3078.078358294	834.5
3080.08821315912	828
3082.09752538846	831.5
3084.10629523454	821.75
3086.11452294967	825
3088.12220878592	820.5
3090.12935299515	818.5
3092.13595582898	823.75
3094.1420175388	826.5
3096.14753837579	820.25
3098.15251859088	825.75
3100.15695843477	816.75
3102.16085815793	822.75
3104.16421801061	828.25
3106.16703824282	836.75
3108.16931910432	830.5
3110.17106084464	819
3112.17226371308	829.5
3114.17292795872	831.5
3116.17305383034	826.5
3118.17264157657	825.75
3120.17169144571	822
3122.17020368587	827.75
3124.16817854492	832.5
3126.16561627044	823.75
3128.16251710982	823.75
3130.15888131017	833.25
3132.15470911837	833
3134.15000078104	829.75
3136.14475654455	833
3138.13897665502	833.75
3140.13266135835	832.75
3142.12581090014	829.25
3144.11842552577	824.75
3146.11050548036	836.75
3148.10205100875	831.25
3150.09306235557	832.25
3152.08353976515	824.75
3154.07348348158	822.25
3156.06289374869	837.5
3158.05177081006	836.5
3160.04011490899	835
3162.02792628852	829
3164.01520519145	825
3166.00195186029	835.75
3167.98816653728	843
3169.97384946442	823.75
3171.95900088344	831.25
3173.94362103577	831.5
3175.92771016259	833
3177.91126850484	828.5
3179.89429630312	832.75
3181.87679379782	828.75
3183.85876122903	834.75
3185.84019883657	835.25
3187.82110685997	833
3189.80148553851	829
3191.78133511116	838.75
3193.76065581664	837.75
3195.73944789337	834.25
3197.7177115795	837
3199.6954471129	836.25
3201.67265473114	819.5
3203.64933467153	841.5
3205.62548717107	830.25
3207.60111246648	840.5
3209.57621079421	834
3211.55078239041	829.75
3213.52482749093	836.5
3215.49834633133	837.75
3217.4713391469	841.25
3219.44380617262	839.5
3221.41574764317	835.5
3223.38716379296	831.5
3225.35805485607	840
3227.32842106631	839.75
3229.29826265718	839.5
3231.26757986187	836
3233.2363729133	841.75
3235.20464204405	847.25
3237.17238748643	835.5
3239.13960947243	845.75
3241.10630823374	832
3243.07248400174	835.5
3245.03813700748	836.5
3247.00326748177	833.25
3248.96787565503	841
3250.93196175742	849.25
3252.89552601877	835.75
3254.8585686686	843.5
3256.82108993612	843.5
3258.78309005022	839.5
3260.74456923948	841.75
3262.70552773215	849.25
3264.66596575617	849.25
3266.62588353916	848.75
3268.58528130843	830.75
3270.54415929094	839.25
3272.50251771336	840
3274.46035680201	839.5
3276.4176767829	839.75
3278.37447788171	836
3280.33076032379	836.75
3282.28652433416	846
3284.24177013751	834.5
3286.1964979582	852.25
3288.15070802027	849.75
3290.10440054741	856.5
3292.05757576298	852.25
3294.01023389001	843.5
3295.96237515119	844.5
3297.91399976887	849
3299.86510796506	844
3301.81569996142	851.5
3303.76577597932	848
3305.7153362397	851
3307.66438096324	853.75
3309.61291037024	850.75
3311.56092468064	849.25
3313.50842411404	841.25
3315.45540888971	842.75
3317.40187922656	841.5
3319.34783534315	846.25
3321.29327745768	843
3323.23820578801	841.25
3325.18262055164	843.5
3327.1265219657	838.75
3329.06991024699	846.5
3331.01278561194	846.25
3332.95514827662	836
3334.89699845674	841.5
3336.83833636766	839.75
3338.77916222434	832.75
3340.71947624143	846.5
3342.65927863317	846.5
3344.59856961346	837.5
3346.53734939584	858.25
3348.47561819344	841.25
3350.41337621906	848
3352.35062368513	841.75
3354.28736080368	845.25
3356.22358778637	856
3358.15930484452	840
3360.09451218904	844.25
3362.02921003047	843.5
3363.96339857898	848
3365.89707804436	846.25
3367.83024863602	848.25
3369.76291056299	845
3371.69506403389	837.5
3373.62670925699	858.75
3375.55784644016	844.5
3377.4884757909	846.5
3379.41859751629	848.75
3381.34821182305	851.25
3383.27731891749	849.75
3385.20591900555	848.5
3387.13401229276	848
3389.06159898426	857.75
3390.9886792848	847.5
3392.91525339872	855
3394.84132152998	841
3396.76688388213	859.5
3398.69194065833	845.25
3400.61649206133	855.5
3402.54053829348	853.75
3404.46407955672	844
3406.3871160526	857.25
3408.30964798225	845
3410.23167554639	851.5
3412.15319894535	861.25
3414.07421837904	855.25
3415.99473404695	857.25
3417.91474614817	849.75
3419.83425488136	853.75
3421.75326044479	850.5
3423.67176303631	853
3425.58976285332	852
3427.50726009282	848
3429.42425495143	855.25
3431.34074762528	856.25
3433.25673831012	853.5
3435.17222720127	846.25
3437.08721449362	859.5
3439.00170038164	853.5
3440.91568505936	848
3442.82916872039	849
3444.74215155791	847.25
3446.65463376468	845.25
3448.566615533	859.5
3450.47809705476	836.5
3452.3890785214	841.75
3454.29956012393	857.25
3456.20954205293	856.25
3458.11902449853	839
3460.02800765041	857.75
3461.93649169784	849
3463.84447682962	843.25
3465.75196323412	843.75
3467.65895109925	847.5
3469.56544061249	843.25
3471.47143196086	838.25
3473.37692533093	847
3475.28192090884	855.25
3477.18641888026	847.75
3479.09041943039	849.25
3480.99392274402	848.5
3482.89692900545	855.25
3484.79943839853	840
3486.70145110666	859.75
3488.60296731277	842.5
3490.50398719933	835.25
3492.40451094836	848.25
3494.30453874141	848
3496.20407075956	854.25
3498.10310718342	844.5
3500.00164819315	837.5