200.090469251518	1094.5
202.974751419362	1111.5
205.858021632263	1109.5
208.740280737522	1110.5
211.621529580443	1119
214.501769004371	1092.75
217.380999850626	1105.75
220.25922295859	1102
223.136439165646	1106.25
226.012649307235	1103.75
228.88785421682	1113.5
231.762054725918	1103.5
234.635251664113	1109.25
237.507445859021	1109.5
240.378638136346	1127.75
243.248829319855	1116.25
246.11802023137	1146
248.986211690826	1137.5
251.853404516227	1135.5
254.719599523654	1138.75
257.584797527335	1131
260.44899933954	1123
263.312205770682	1127
266.174417629303	1123
269.035635722015	1127
271.895860853609	1122.25
274.755093826978	1125.5
277.613335443144	1121.25
280.470586501309	1117.5
283.326847798766	1137.25
286.182120131019	1136.75
289.036404291684	1124.75
291.889701072574	1113.5
294.742011263643	1134.5
297.593335653048	1130
300.443675027094	1120.5
303.293030170295	1126.5
306.141401865367	1139.75
308.988790893174	1128.75
311.835198032837	1137
314.680624061635	1144.75
317.525069755113	1147.75
320.36853588697	1153.5
323.211023229178	1151.5
326.052532551923	1128
328.893064623604	1117.5
331.732620210885	1126.5
334.57120007867	1124.25
337.408804990093	1135
340.245435706565	1122
343.081092987733	1127.5
345.915777591523	1122
348.749490274145	1131.75
351.582231790049	1129.5
354.414002891997	1133.25
357.244804331021	1127.75
360.074636856443	1145.75
362.903501215886	1145.25
365.731398155265	1130.25
368.558328418814	1140.5
371.384292749062	1127
374.209291886869	1137.75
377.033326571407	1145.5
379.85639754017	1152.5
382.678505529009	1152.5
385.499651272065	1173.25
388.319835501872	1194.5
391.139058949258	1221
393.957322343453	1263.5
396.774626412011	1307
399.590971880847	1297
402.406359474258	1267
405.220789914893	1237
408.034263923801	1191.5
410.8467822204	1181.75
413.658345522483	1172.5
416.468954546242	1180.25
419.278610006277	1173
422.087312615557	1166.25
424.895063085503	1176
427.701862125901	1162.75
430.507710444981	1156
433.312608749366	1163.25
436.116557744146	1181.5
438.919558132791	1167.5
441.721610617238	1183.75
444.522715897856	1166.25
447.322874673457	1199.75
450.122087641299	1192
452.920355497092	1206
455.717678935009	1199
458.514058647681	1186.25
461.309495326219	1202.75
464.103989660191	1172.5
466.89754233765	1180.25
469.690154045114	1155.5
472.481825467625	1159
475.272557288674	1167.5
478.062350190281	1150.75
480.851204852952	1146.25
483.639121955683	1144.25
486.426102176007	1158.25
489.212146189955	1154.75
491.997254672093	1154.5
494.781428295471	1171.75
497.564667731716	1168.25
500.346973650958	1176.75
503.128346721878	1170.5
505.90878761169	1170.25
508.688296986151	1189.25
511.46687550957	1173.5
514.244523844831	1183
517.021242653354	1172.75
519.797032595132	1195.5
522.571894328732	1206.25
525.345828511279	1214.25
528.11883579849	1226.75
530.890916844655	1196
533.662072302668	1173.5
536.432302823985	1187.75
539.201609058684	1189.25
541.96999165542	1162.25
544.737451261473	1175.5
547.503988522723	1145.25
550.26960408366	1164.5
553.034298587394	1164.5
555.798072675669	1167.25
558.560926988819	1165.5
561.322862165849	1167.75
564.083878844369	1158.75
566.843977660654	1185.75
569.603159249604	1165.75
572.361424244769	1168.25
575.118773278369	1165.25
577.87520698124	1179.5
580.630725982905	1183.5
583.385330911566	1169.75
586.139022394076	1166.25
588.891801055954	1183.5
591.643667521406	1179.25
594.394622413318	1173.5
597.144666353273	1175.25
599.893799961512	1189.75
602.64202385701	1160.5
605.389338657413	1166.75
608.135744979089	1171.25
610.881243437092	1165.75
613.625834645191	1162.75
616.369519215881	1166.5
619.112297760374	1181
621.854170888604	1167
624.595139209225	1175.75
627.335203329614	1176.5
630.074363855914	1155.5
632.81262139299	1171.25
635.549976544436	1159.5
638.286429912612	1175.5
641.021982098635	1173.75
643.756633702364	1178
646.49038532241	1151.75
649.223237556176	1150.25
651.955190999808	1162.5
654.686246248224	1159.25
657.416403895135	1170.5
660.145664533011	1184.5
662.874028753133	1186
665.601497145537	1182.75
668.328070299071	1199.25
671.05374880138	1194.5
673.778533238885	1172.75
676.502424196839	1179.75
679.225422259297	1181
681.947528009099	1192.75
684.668742027927	1170.5
687.389064896281	1183
690.108497193465	1180.5
692.827039497621	1191
695.544692385724	1188.5
698.261456433585	1180
700.977332215847	1189.25
703.692320305981	1171.5
706.406421276337	1185.75
709.11963569808	1183.5
711.831964141256	1180.75
714.54340717474	1192
717.253965366304	1199.5
719.963639282552	1191.25
722.672429488961	1191.25
725.380336549904	1177.75
728.087361028596	1191.5
730.793503487166	1203.75
733.498764486594	1198.5
736.203144586758	1205
738.906644346447	1203.75
741.60926432331	1209
744.311005073912	1199.25
747.011867153727	1202.5
749.711851117121	1216.25
752.410957517375	1201
755.109186906677	1205.5
757.806539836132	1210
760.503016855779	1209.75
763.198618514551	1195
765.893345360346	1208.5
768.587197939964	1232.75
771.28017679914	1219.75
773.972282482566	1212.5
776.663515533859	1202.5
779.353876495581	1211.75
782.043365909241	1213.5
784.731984315327	1222.75
787.419732253235	1222.25
790.106610261366	1227.75
792.792618877058	1238.5
795.477758636618	1234.25
798.162030075313	1255.5
800.845433727423	1286.75
803.52797012615	1372.25
806.209639803714	1411
808.890443291304	1437.75
811.570381119098	1394.25
814.249453816265	1327.5
816.927661910959	1267.75
819.60500593036	1283
822.281486400603	1260.5
824.957103846864	1276.75
827.631858793316	1282.75
830.305751763135	1316.25
832.978783278519	1328.75
835.650953860677	1391.25
838.322264029848	1436.75
840.992714305292	1454.5
843.662305205289	1429.75
846.331037247157	1349.5
848.998910947241	1316
851.665926820933	1291.5
854.332085382674	1282.75
856.997387145915	1276.25
859.661832623191	1274
862.325422326066	1257.5
864.988156765172	1259
867.650036450181	1261.25
870.311061889846	1256
872.971233591961	1258.5
875.630552063409	1249.25
878.28901781013	1259.25
880.946631337138	1264.5
883.603393148533	1270.75
886.259303747484	1251.75
888.914363636246	1262
891.568573316155	1274.75
894.22193328767	1257.75
896.874444050281	1274
899.526106102625	1269.5
902.176919942416	1282.5
904.826886066483	1265.25
907.476004970747	1285
910.124277150255	1279
912.77170309913	1282.5
915.418283310642	1288.75
918.064018277175	1286
920.708908490222	1284.5
923.352954440405	1270.25
925.996156617486	1282
928.638515510334	1269.75
931.280031606966	1285.5
933.920705394521	1296
936.560537359303	1314.25
939.199527986737	1351.75
941.837677761392	1305.5
944.474987167006	1318
947.111456686438	1299.25
949.747086801734	1300.25
952.38187799407	1289.75
955.015830743792	1304.25
957.648945530418	1319
960.281222832633	1320.25
962.91266312826	1318.5
965.543266894336	1364.75
968.173034607058	1365.25
970.801966741779	1407
973.43006377307	1402.25
976.057326174661	1379.5
978.683754419471	1340.75
981.309348979623	1345.25
983.93411032642	1326.25
986.558038930361	1312.75
989.181135261144	1337.25
991.803399787692	1358.25
994.424832978086	1367.5
997.045435299653	1396
999.665207218906	1385.25
1002.2841492016	1368.25
1004.90226171266	1371.5
1007.51954521628	1352.5
1010.13600017584	1335.75
1012.75162705397	1338.5
1015.3664263125	1339.5
1017.9803984125	1354.5
1020.5935438143	1359.75
1023.20586297741	1353
1025.81735636063	1354.75
1028.42802442196	1388
1031.03786761869	1394
1033.64688640732	1406
1036.2550812436	1414.25
1038.86245258255	1393.5
1041.46900087844	1413
1044.07472658479	1391.5
1046.67963015438	1387.75
1049.28371203927	1405.75
1051.88697269075	1385
1054.48941255943	1380.5
1057.09103209513	1400.25
1059.691831747	1376.5
1062.29181196343	1392.5
1064.89097319211	1370.75
1067.48931587999	1385.75
1070.08684047333	1370.25
1072.68354741766	1380.25
1075.27943715779	1393.5
1077.87451013787	1375.75
1080.46876680127	1375.25
1083.06220759071	1398
1085.65483294822	1400.5
1088.24664331509	1407.25
1090.83763913194	1402.75
1093.42782083869	1411
1096.01718887459	1388
1098.60574367818	1420
1101.19348568732	1416.25
1103.78041533919	1412.5
1106.3665330703	1419.5
1108.95183931646	1417.25
1111.53633451284	1406
1114.12001909391	1427.75
1116.70289349349	1452.25
1119.2849581447	1437
1121.86621348005	1427
1124.44665993134	1423.5
1127.02629792973	1463.25
1129.60512790574	1453.25
1132.18315028919	1478
1134.76036550929	1465.5
1137.3367739946	1483.25
1139.912376173	1500.5
1142.48717247176	1533
1145.06116331748	1588.75
1147.63434913616	1600.25
1150.20673035312	1644.5
1152.77830739307	1650
1155.34908068007	1616.75
1157.91905063757	1610.5
1160.48821768838	1573.75
1163.05658225471	1570.25
1165.6241447581	1592.75
1168.19090561951	1576.25
1170.75686525927	1571.75
1173.32202409708	1569.25
1175.88638255206	1569.75
1178.44994104269	1516.25
1181.01269998684	1524
1183.57465980182	1530
1186.13582090427	1517
1188.69618371026	1526
1191.25574863529	1530.5
1193.8145160942	1534.5
1196.37248650129	1536.75
1198.92966027025	1518.5
1201.48603781416	1535.75
1204.04161954556	1526
1206.59640587635	1536.25
1209.15039721788	1535.75
1211.70359398092	1585
1214.25599657564	1604.75
1216.80760541166	1604.5
1219.35842089801	1627.25
1221.90844344314	1615.5
1224.45767345496	1591.5
1227.00611134077	1587
1229.55375750736	1585.5
1232.10061236092	1575
1234.64667630707	1593
1237.1919497509	1598.25
1239.73643309692	1603.25
1242.28012674912	1629.25
1244.82303111089	1606.5
1247.36514658511	1623.5
1249.9064735741	1629.25
1252.44701247964	1627.25
1254.98676370294	1656.25
1257.52572764469	1672.75
1260.06390470506	1658.25
1262.60129528365	1652.25
1265.13789977954	1675
1267.67371859128	1691.25
1270.20875211688	1708.25
1272.74300075384	1690.5
1275.2764648991	1707.25
1277.80914494911	1731.75
1280.34104129978	1725.75
1282.87215434652	1738.25
1285.40248448419	1748
1287.93203210715	1751.25
1290.46079760927	1744.75
1292.98878138385	1769.5
1295.51598382375	1791.5
1298.04240532127	1799.25
1300.56804626822	1787
1303.09290705593	1818
1305.6169880752	1811.25
1308.14028971632	1837.25
1310.66281236913	1820
1313.18455642292	1830.75
1315.70552226653	1858.75
1318.22571028829	1892
1320.74512087603	1932.5
1323.26375441711	1988.25
1325.7816112984	2046
1328.29869190629	2103.75
1330.81499662666	2088.25
1333.33052584497	2057.25
1335.84527994613	2019.25
1338.35925931464	1978.75
1340.87246433446	1993.5
1343.38489538916	1984.25
1345.89655286177	2019
1348.40743713487	2029.75
1350.91754859059	2045.5
1353.42688761059	2061.25
1355.93545457606	2109.5
1358.44324986772	2138.25
1360.95027386588	2140.25
1363.45652695032	2102.5
1365.96200950042	2091
1368.4667218951	2129.25
1370.97066451281	2118.5
1373.47383773156	2112.25
1375.97624192891	2111.5
1378.47787748199	2110
1380.97874476746	2108.75
1383.47884416157	2077.5
1385.97817604009	2112.5
1388.4767407784	2096.25
1390.9745387514	2113
1393.47157033358	2122.75
1395.96783589898	2166.5
1398.46333582124	2128.25
1400.95807047354	2148
1403.45204022864	2155.75
1405.94524545889	2158.25
1408.4376865362	2162.25
1410.92936383205	2203.5
1413.42027771752	2205.5
1415.91042856328	2244.5
1418.39981673955	2225.5
1420.88844261615	2271.75
1423.37630656249	2260.75
1425.86340894757	2307.25
1428.34975013999	2328.75
1430.83533050792	2396.75
1433.32015041912	2412
1435.80421024098	2467.25
1438.28751034045	2491.25
1440.77005108411	2465.75
1443.25183283812	2489.5
1445.73285596824	2524.5
1448.21312083984	2508.5
1450.69262781791	2608
1453.17137726702	2684.25
1455.64936955137	2743
1458.12660503477	2771
1460.60308408063	2765.5
1463.07880705197	2732
1465.55377431145	2678.5
1468.02798622133	2589.25
1470.50144314348	2597.5
1472.97414543941	2562.25
1475.44609347024	2584.75
1477.91728759673	2589
1480.38772817924	2579.25
1482.85741557777	2617
1485.32635015194	2575.5
1487.79453226103	2568.5
1490.26196226391	2607.25
1492.72864051911	2598.5
1495.1945673848	2628
1497.65974321874	2621.75
1500.1241683784	2637.25
1502.58784322083	2656.75
1505.05076810274	2645.25
1507.51294338049	2657
1509.97436941009	2643
1512.43504654717	2694.25
1514.89497514704	2665.75
1517.35415556462	2708.75
1519.81258815451	2714
1522.27027327095	2696.5
1524.72721126784	2681.75
1527.18340249874	2734.25
1529.63884731684	2710.5
1532.09354607502	2743.25
1534.5474991258	2760.75
1537.00070682136	2746.5
1539.45316951355	2799.75
1541.90488755388	2805.5
1544.35586129353	2799.25
1546.80609108336	2817.25
1549.25557727385	2832
1551.70432021519	2855.25
1554.15232025725	2867.25
1556.59957774953	2876.5
1559.04609304125	2907.25
1561.49186648127	2880
1563.93689841815	2922.5
1566.38118920011	2912.5
1568.82473917506	2898.25
1571.2675486906	2915.75
1573.70961809399	2946.5
1576.15094773219	2930.25
1578.59153795184	2940.5
1581.03138909928	2954.75
1583.47050152051	2982.25
1585.90887556123	2965.5
1588.34651156686	2974.75
1590.78340988246	3000.75
1593.21957085283	3006
1595.65499482245	2986.5
1598.08968213547	3037.25
1600.52363313578	3074.5
1602.95684816694	3065.5
1605.38932757224	3052
1607.82107169462	3038.75
1610.25208087677	3038.25
1612.68235546107	3062
1615.1118957896	3050
1617.54070220415	3033.25
1619.96877504621	3000.25
1622.39611465701	3012.75
1624.82272137746	3008.25
1627.24859554818	2988.5
1629.67373750953	3014
1632.09814760155	3016
1634.52182616404	2978
1636.94477353647	3024.25
1639.36699005806	2995.75
1641.78847606776	3019.5
1644.20923190418	3037.25
1646.62925790573	3012.5
1649.04855441048	3018.5
1651.46712175628	3052.25
1653.88496028066	3058
1656.3020703209	3051.5
1658.71845221401	3058.75
1661.13410629671	3059.25
1663.54903290547	3124.25
1665.96323237649	3098
1668.37670504571	3144.25
1670.78945124877	3130.5
1673.20147132109	3164.25
1675.61276559779	3155
1678.02333441377	3153
1680.43317810362	3139.25
1682.84229700171	3208.75
1685.25069144213	3187.25
1687.65836175872	3183.25
1690.06530828507	3240.5
1692.47153135451	3199.75
1694.87703130009	3213.75
1697.28180845467	3238.25
1699.6858631508	3206
1702.08919572081	3253
1704.49180649676	3232.75
1706.89369581049	3232.75
1709.29486399355	3216
1711.69531137731	3258.25
1714.09503829282	3250.25
1716.49404507095	3203
1718.89233204229	3253.25
1721.28989953721	3234.5
1723.68674788581	3234.25
1726.08287741798	3243.75
1728.47828846338	3261.5
1730.87298135139	3234
1733.26695641119	3263.25
1735.66021397173	3249.25
1738.05275436169	3248.25
1740.44457790954	3255
1742.83568494354	3286
1745.22607579168	3262.75
1747.61575078175	3222.75
1750.00471024128	3267.75
1752.39295449761	3299
1754.78048387783	3300.25
1757.16729870881	3278.5
1759.5533993172	3303.75
1761.93878602942	3333.25
1764.32345917168	3274.25
1766.70741906995	3352.75
1769.09066604999	3313.75
1771.47320043735	3362.75
1773.85502255735	3388.5
1776.2361327351	3370.25
1778.61653129548	3394.5
1780.99621856318	3368.75
1783.37519486264	3417.5
1785.75346051813	3411
1788.13101585368	3424.25
1790.5078611931	3441
1792.88399686002	3375.25
1795.25942317785	3432.25
1797.63414046977	3444.5
1800.00814905878	3463
1802.38144926766	3423.25
1804.75404141898	3445.5
1807.12592583514	3420.25
1809.49710283829	3483.75
1811.86757275039	3501.75
1814.23733589322	3523.75
1816.60639258834	3475.75
1818.97474315712	3471.75
1821.34238792073	3506.75
1823.70932720012	3486.25
1826.07556131608	3494.75
1828.44109058918	3522.5
1830.8059153398	3509
1833.17003588812	3484.25
1835.53345255413	3478.25
1837.89616565765	3514.75
1840.25817551827	3478
1842.61948245541	3494.75
1844.9800867883	3501.25
1847.33998883598	3500
1849.69918891729	3536.5
1852.05768735091	3549
1854.4154844553	3541.75
1856.77258054875	3539.75
1859.12897594938	3554
1861.4846709751	3530.5
1863.83966594366	3575.75
1866.19396117261	3578.25
1868.54755697932	3583.25
1870.90045368099	3574.25
1873.25265159463	3552.75
1875.60415103708	3606.5
1877.95495232501	3657.75
1880.30505577486	3662.25
1882.65446170299	3618
1885.00317042548	3679
1887.35118225832	3645
1889.69849751726	3689.5
1892.04511651792	3713.25
1894.39103957574	3691.5
1896.73626700596	3695
1899.08079912368	3752.5
1901.42463624384	3741
1903.76777868116	3704.5
1906.11022675025	3763.75
1908.4519807655	3739
1910.79304104117	3793
1913.13340789134	3761.25
1915.47308162992	3748.75
1917.81206257067	3741
1920.15035102718	3810.5
1922.48794731286	3771.25
1924.82485174096	3826
1927.16106462461	3786.5
1929.49658627672	3780.75
1931.83141701008	3780.5
1934.1655571373	3756.5
1936.49900697085	3746.25
1938.83176682301	3751.5
1941.16383700594	3795
1943.49521783161	3777.25
1945.82590961186	3757.75
1948.15591265835	3748
1950.48522728262	3759.25
1952.81385379602	3749
1955.14179250976	3798
1957.46904373489	3747.5
1959.79560778233	3746.75
1962.12148496284	3761.5
1964.44667558701	3768
1966.77117996529	3750.5
1969.09499840799	3780
1971.41813122527	3804
1973.74057872714	3784.75
1976.06234122345	3808
1978.38341902391	3762.5
1980.7038124381	3809.75
1983.02352177543	3814
1985.34254734518	3776.5
1987.66088945649	3803.25
1989.97854841833	3838.5
1992.29552453956	3848.75
1994.61181812887	3838.5
1996.92742949483	3847.25
1999.24235894586	3859.5
2001.55660679023	3865.75
2003.87017333608	3867.5
2006.18305889143	3857.25
2008.49526376413	3897.5
2010.80678826189	3897.75
2013.1176326923	3880.25
2015.42779736282	3933
2017.73728258075	3884.75
2020.04608865326	3907.5
2022.3542158874	3907
2024.66166459008	3952
2026.96843506807	3899.75
2029.274527628	3930.75
2031.57994257637	3940
2033.88468021957	3956.5
2036.18874086383	3939.25
2038.49212481526	4015.75
2040.79483237983	3950.5
2043.0968638634	3970.75
2045.39821957169	3981
2047.69889981028	3974
2049.99890488462	3941.25
2052.29823510006	3964.75
2054.59689076181	3975
2056.89487217492	3971
2059.19217964437	3958.5
2061.48881347497	3970.75
2063.7847739714	3972
2066.08006143826	3955.5
2068.37467618	3957.75
2070.66861850093	3964.25
2072.96188870527	3963.75
2075.25448709707	3945.25
2077.54641398031	3937.5
2079.83766965881	3915.25
2082.12825443629	3906.25
2084.41816861634	3940.75
2086.70741250242	3927
2088.99598639789	3938.75
2091.28389060597	3926
2093.57112542978	3906.5
2095.85769117232	3935.25
2098.14358813644	3947.25
2100.42881662491	3945.25
2102.71337694037	3939
2104.99726938532	3948.25
2107.28049426219	3895.5
2109.56305187325	3946.75
2111.84494252069	3944.5
2114.12616650655	3913.75
2116.40672413278	3920
2118.68661570121	3924.5
2120.96584151355	3990.5
2123.24440187138	3968.25
2125.52229707622	3915
2127.79952742943	3872.5
2130.07609323227	3923.75
2132.35199478588	3940.25
2134.62723239132	3919
2136.90180634949	3922
2139.17571696123	3961.25
2141.44896452723	3952.5
2143.72154934809	3944.75
2145.99347172429	3940
2148.26473195623	3948.25
2150.53533034415	4019
2152.80526718821	3980.25
2155.07454278848	3988.5
2157.3431574449	3932.25
2159.61111145728	3959.5
2161.87840512538	3965.75
2164.1450387488	3955.75
2166.41101262707	4002.5
2168.67632705959	3983
2170.94098234567	3950
2173.20497878451	3960.5
2175.46831667519	3964.5
2177.73099631672	3931.5
2179.99301800797	3923.5
2182.25438204772	3969.75
2184.51508873466	3912.5
2186.77513836735	3900.5
2189.03453124427	3923
2191.29326766378	3925.5
2193.55134792416	3934.75
2195.80877232355	3915.25
2198.06554116004	3920
2200.32165473157	3971.75
2202.577113336	3909.75
2204.83191727111	3907.25
2207.08606683453	3877.75
2209.33956232384	3879.25
2211.59240403648	3885.5
2213.84459226982	3872.5
2216.09612732112	3848.75
2218.34700948753	3836.75
2220.59723906612	3846.5
2222.84681635385	3863.25
2225.09574164758	3854.75
2227.34401524408	3891.5
2229.59163744002	3846.25
2231.83860853197	3822.5
2234.08492881639	3804.75
2236.33059858968	3800.25
2238.5756181481	3850.75
2240.81998778784	3849
2243.06370780499	3789.75
2245.30677849555	3803
2247.54920015539	3791.25
2249.79097308033	3794.5
2252.03209756607	3789.25
2254.27257390822	3804.5
2256.51240240228	3741.5
2258.75158334369	3773.5
2260.99011702777	3780.25
2263.22800374976	3765.5
2265.46524380477	3767.75
2267.70183748786	3701.5
2269.93778509399	3776.5
2272.17308691801	3784.5
2274.40774325467	3772
2276.64175439866	3750.25
2278.87512064454	3788.25
2281.10784228682	3755.5
2283.33991961987	3747.25
2285.571352938	3712.25
2287.80214253541	3707.5
2290.03228870623	3742.5
2292.26179174449	3730.75
2294.4906519441	3726
2296.71886959892	3755
2298.9464450027	3724
2301.1733784491	3724.25
2303.39967023169	3702
2305.62532064395	3718.5
2307.85032997926	3705.5
2310.07469853093	3679
2312.29842659216	3688.75
2314.52151445608	3716.5
2316.7439624157	3712.25
2318.96577076397	3685
2321.18693979374	3709.75
2323.40746979777	3694
2325.62736106873	3686.5
2327.8466138992	3692.75
2330.06522858166	3709.5
2332.28320540853	3677.25
2334.50054467212	3651
2336.71724666465	3633.75
2338.93331167827	3657.25
2341.14874000501	3625.75
2343.36353193685	3642.5
2345.57768776564	3587.25
2347.79120778319	3593.75
2350.00409228117	3626.5
2352.21634155121	3638
2354.42795588482	3613.5
2356.63893557342	3581
2358.84928090838	3560.25
2361.05899218094	3589.75
2363.26806968228	3546.25
2365.47651370347	3599.75
2367.68432453552	3597
2369.89150246933	3562.75
2372.09804779571	3549.5
2374.30396080541	3550
2376.50924178907	3532.5
2378.71389103725	3524.5
2380.91790884042	3557.25
2383.12129548897	3561.75
2385.3240512732	3500.25
2387.52617648332	3500.25
2389.72767140946	3498
2391.92853634165	3502.25
2394.12877156985	3521.75
2396.32837738392	3508.25
2398.52735407365	3526.75
2400.72570192873	3472
2402.92342123875	3448
2405.12051229325	3466.25
2407.31697538167	3476
2409.51281079333	3500.75
2411.70801881751	3459.25
2413.90259974339	3435.5
2416.09655386004	3443
2418.28988145648	3434.75
2420.48258282162	3390.75
2422.6746582443	3406.75
2424.86610801325	3403.25
2427.05693241713	3418.75
2429.24713174452	3421.5
2431.43670628389	3449.75
2433.62565632365	3424
2435.81398215212	3386
2438.00168405752	3428
2440.18876232799	3396.25
2442.37521725158	3359.25
2444.56104911628	3350.25
2446.74625820994	3380
2448.93084482038	3392.5
2451.1148092353	3387.5
2453.29815174233	3381.75
2455.480872629	3385
2457.66297218275	3321
2459.84445069097	3318
2462.02530844092	3332
2464.2055457198	3305
2466.38516281471	3363.5
2468.56416001267	3309.5
2470.74253760061	3278
2472.92029586537	3283.5
2475.09743509372	3289.5
2477.27395557232	3300
2479.44985758777	3307.25
2481.62514142655	3288.25
2483.79980737508	3282.75
2485.97385571969	3254.75
2488.14728674661	3257.5
2490.32010074198	3255
2492.49229799188	3271.5
2494.66387878228	3308.75
2496.83484339905	3265.75
2499.00519212802	3267.25
2501.17492525488	3238.75
2503.34404306528	3280.25
2505.51254584473	3270.75
2507.6804338787	3306.5
2509.84770745254	3266.5
2512.01436685153	3272.25
2514.18041236085	3269.25
2516.34584426561	3260
2518.51066285081	3294
2520.67486840138	3310
2522.83846120214	3284.5
2525.00144153784	3269.5
2527.16380969314	3262.5
2529.32556595261	3301
2531.48671060072	3293.25
2533.64724392186	3252.75
2535.80716620033	3272.5
2537.96647772034	3258.25
2540.12517876602	3308
2542.2832696214	3249
2544.44075057041	3255.75
2546.59762189691	3215.25
2548.75388388466	3223.5
2550.90953681735	3215.5
2553.06458097853	3245.25
2555.21901665172	3232
2557.37284412031	3266
2559.5260636676	3226.75
2561.67867557684	3259.25
2563.83068013113	3226.75
2565.98207761351	3248
2568.13286830695	3212
2570.28305249429	3212
2572.43263045829	3238.25
2574.58160248163	3236.25
2576.72996884689	3189.25
2578.87772983655	3218.5
2581.02488573303	3205.5
2583.1714368186	3227.25
2585.31738337549	3178
2587.46272568582	3184.75
2589.60746403161	3206
2591.75159869479	3225
2593.89512995722	3217
2596.03805810061	3226.25
2598.18038340665	3210.25
2600.32210615686	3187.25
2602.46322663274	3205.75
2604.60374511563	3185.5
2606.74366188683	3153.25
2608.88297722751	3189.5
2611.02169141875	3194.5
2613.15980474156	3195
2615.29731747681	3209.5
2617.43422990532	3201
2619.57054230779	3204.5
2621.70625496483	3184.25
2623.84136815694	3201
2625.97588216456	3197
2628.10979726799	3166
2630.24311374746	3216
2632.3758318831	3220.25
2634.50795195493	3197.5
2636.6394742429	3192.25
2638.77039902682	3221
2640.90072658645	3204
2643.0304572014	3237.75
2645.15959115123	3276.25
2647.28812871538	3258
2649.41607017319	3248
2651.5434158039	3200.5
2653.67016588665	3249.25
2655.79632070049	3280.5
2657.92188052436	3264
2660.04684563711	3281.5
2662.17121631749	3247
2664.29499284413	3277.75
2666.41817549558	3246
2668.54076455027	3233.5
2670.66276028656	3251.75
2672.78416298267	3229.25
2674.90497291675	3249
2677.02519036682	3248.5
2679.14481561082	3277.25
2681.26384892658	3293.75
2683.38229059182	3256.5
2685.50014088417	3276
2687.61740008114	3264.5
2689.73406846017	3257.25
2691.85014629854	3294
2693.96563387347	3286
2696.08053146206	3301.5
2698.1948393413	3299
2700.3085577881	3296.75
2702.42168707924	3305.25
2704.53422749139	3345
2706.64617930112	3340.5
2708.75754278492	3349
2710.86831821913	3343
2712.97850588002	3428
2715.08810604372	3368
2717.19711898628	3420.25
2719.30554498363	3446
2721.41338431158	3423
2723.52063724586	3429.25
2725.62730406206	3408.5
2727.73338503569	3398.5
2729.83888044213	3380.25
2731.94379055664	3381.5
2734.04811565441	3372
2736.15185601048	3394
2738.25501189979	3395.75
2740.35758359718	3331.5
2742.45957137738	3372.25
2744.56097551499	3406.75
2746.6617962845	3377
2748.7620339603	3354.75
2750.86168881666	3356
2752.96076112774	3371.5
2755.05925116758	3357.25
2757.15715921012	3361.75
2759.25448552917	3386
2761.35123039843	3371
2763.44739409148	3359.25
2765.5429768818	3347.25
2767.63797904275	3357.5
2769.73240084756	3349.5
2771.82624256934	3361.75
2773.91950448113	3365.75
2776.01218685579	3391
2778.10428996609	3378.25
2780.19581408469	3398.75
2782.28675948414	3403.75
2784.37712643683	3460
2786.46691521507	3383.5
2788.55612609104	3407
2790.64475933678	3416.75
2792.73281522425	3379
2794.82029402525	3410.75
2796.90719601149	3443
2798.99352145453	3427
2801.07927062583	3437.25
2803.16444379672	3419
2805.24904123841	3467
2807.33306322197	3451
2809.41651001838	3486.75
2811.49938189847	3480.5
2813.58167913296	3512.25
2815.66340199243	3480.25
2817.74455074734	3530.5
2819.82512566805	3539
2821.90512702475	3524.75
2823.98455508754	3586.5
2826.06341012637	3631.75
2828.14169241109	3718.5
2830.2194022114	3842
2832.29653979686	4009.25
2834.37310543694	4231.25
2836.44909940096	4435
2838.5245219581	4525
2840.59937337744	4493.25
2842.67365392791	4415.75
2844.74736387829	4266
2846.82050349727	4193.5
2848.8930730534	4148.25
2850.96507281506	4034.5
2853.03650305056	4040.5
2855.10736402802	4071.25
2857.17765601545	4101.5
2859.24737928074	4277.5
2861.31653409164	4536.5
2863.38512071574	4793.75
2865.45313942054	5025
2867.52059047335	5069.25
2869.58747414139	5088.75
2871.65379069173	5073.75
2873.7195403913	5169
2875.78472350688	5309.5
2877.84934030515	5552.25
2879.91339105262	5753.25
2881.97687601567	5805.5
2884.03979546053	5729
2886.10214965332	5605.75
2888.16393886	5465
2890.22516334639	5324.25
2892.28582337816	5193
2894.34591922087	5173.25
2896.40545113992	5155.5
2898.46441940054	5257
2900.52282426787	5300.75
2902.58066600687	5405.75
2904.63794488237	5428.75
2906.69466115906	5366.5
2908.75081510147	5187.5
2910.806406974	4988
2912.8614370409	4884.75
2914.91590556626	4838
2916.96981281404	4826.5
2919.02315904807	4845.75
2921.07594453199	4861.75
2923.12816952932	4931.25
2925.17983430343	4883.5
2927.23093911753	4824.25
2929.28148423469	4671.25
2931.33146991782	4569.25
2933.3808964297	4417.25
2935.42976403294	4319
2937.47807299	4229
2939.5258235632	4201.5
2941.57301601469	4194.25
2943.61965060648	4243.5
2945.66572760042	4417.25
2947.71124725823	4627.25
2949.75620984143	4731
2951.80061561143	4791.5
2953.84446482945	4679.5
2955.88775775656	4646.5
2957.9304946537	4617.25
2959.97267578162	4576.5
2962.01430140095	4566.5
2964.05537177211	4430.75
2966.09588715541	4293.25
2968.13584781097	4237.25
2970.17525399875	4112.5
2972.21410597859	4018
2974.25240401011	3991.25
2976.29014835283	3897.5
2978.32733926604	3894.5
2980.36397700892	3864.25
2982.40006184049	3845.5
2984.43559401955	3848.25
2986.4705738048	3774.25
2988.50500145473	3775.25
2990.53887722771	3796
2992.57220138189	3806.5
2994.6049741753	3782.25
2996.63719586576	3808.25
2998.66886671097	3792.75
3000.69998696843	3851
3002.73055689549	3838.75
3004.7605767493	3837.5
3006.79004678688	3822
3008.81896726505	3828.75
3010.84733844048	3769
3012.87516056966	3836.75
3014.9024339089	3792.25
3016.92915871433	3872.75
3018.95533524196	3832.75
3020.98096374756	3856.75
3023.00604448675	3853.5
3025.030577715	3843
3027.05456368757	3871.5
3029.07800265956	3880.5
3031.10089488589	3817.5
3033.12324062131	3850
3035.14504012038	3870
3037.16629363749	3874.75
3039.18700142685	3861.25
3041.20716374249	3851.25
3043.22678083826	3806
3045.24585296782	3887.5
3047.26438038468	3844.25
3049.28236334212	3852.25
3051.29980209329	3900.25
3053.31669689111	3853.25
3055.33304798835	3852.75
3057.34885563757	3892.75
3059.36412009117	3880.5
3061.37884160134	3854.75
3063.39302042011	3846
3065.40665679931	3882
3067.41975099058	3878.5
3069.43230324538	3885.75
3071.44431381495	3866
3073.45578295041	3872.75
3075.46671090261	3857.75
3077.47709792227	3824.5
3079.48694425989	3875.25
3081.49625016578	3871.5
3083.50501589008	3884.75
3085.5132416827	3905.75
3087.5209277934	3852.25
3089.52807447169	3851.25
3091.53468196695	3912.25
3093.54075052832	3840.5
3095.54628040476	3911
3097.55127184503	3882
3099.55572509769	3842.5
3101.55964041111	3906
3103.56301803346	3879.75
3105.5658582127	3840.25
3107.56816119661	3893
3109.56992723275	3840.75
3111.57115656849	3894
3113.571849451	3889
3115.57200612724	3906.75
3117.57162684397	3869
3119.57071184775	3913
3121.56926138493	3929.5
3123.56727570166	3934.75
3125.56475504389	3916.5
3127.56169965735	3939.5
3129.55810978757	3935.5
3131.55398567987	3930.75
3133.54932757937	3950.5
3135.54413573099	3983.75
3137.53841037939	3951.25
3139.53215176909	3961.5
3141.52536014435	3991.5
3143.51803574924	4000.75
3145.51017882762	3972.5
3147.50178962311	3960.5
3149.49286837916	3982.25
3151.48341533897	3987.75
3153.47343074553	3991.75
3155.46291484164	3966
3157.45186786985	3950.5
3159.44029007252	3967.25
3161.42818169179	3978.25
3163.41554296955	4001.75
3165.40237414753	4016.75
3167.38867546718	4004.5
3169.37444716975	3982
3171.35968949631	4011.5
3173.34440268764	3987
3175.32858698436	4003
3177.31224262682	4009.75
3179.29536985517	3998.25
3181.27796890934	3983.75
3183.26004002902	4017.5
3185.24158345368	4027.5
3187.22259942256	4014.25
3189.2030881747	4016.25
3191.18304994886	3996
3193.16248498363	4039.75
3195.14139351733	4044.25
3197.11977578807	4043
3199.09763203371	4039.25
3201.07496249191	4044.25
3203.05176740007	4049
3205.02804699537	4034.25
3207.00380151475	4041.5
3208.97903119493	4071.25
3210.95373627238	4086.25
3212.92791698335	4008.25
3214.90157356383	4055.5
3216.8747062496	4051.75
3218.84731527619	4053.25
3220.81940087889	4093
3222.79096329275	4087.25
3224.76200275259	4041
3226.73251949298	4095.5
3228.70251374825	4076.75
3230.67198575251	4029.75
3232.64093573959	4081.75
3234.6093639431	4102.5
3236.57727059641	4091.25
3238.54465593261	4147
3240.51152018461	4149
3242.47786358502	4126.75
3244.44368636621	4126.25
3246.40898876031	4136.5
3248.37377099923	4129.75
3250.33803331458	4104.25
3252.30177593775	4135.5
3254.26499909987	4181.5
3256.22770303184	4189.25
3258.18988796427	4132.5
3260.15155412755	4134.75
3262.1127017518	4120
3264.0733310669	4136.25
3266.03344230246	4152
3267.99303568784	4162.25
3269.95211145215	4134.5
3271.91066982422	4160.75
3273.86871103267	4147
3275.82623530581	4204.75
3277.7832428717	4154.5
3279.73973395818	4151.75
3281.69570879278	4155.5
3283.6511676028	4164
3285.60611061527	4163
3287.56053805694	4184
3289.51445015432	4176.5
3291.46784713364	4158.25
3293.42072922088	4148
3295.37309664173	4188.5
3297.32494962163	4106
3299.27628838575	4135
3301.227113159	4118
3303.17742416601	4167.75
3305.12722163114	4126.25
3307.07650577848	4091.5
3309.02527683185	4131.5
3310.9735350148	4102
3312.9212805506	4151.75
3314.86851366225	4160.75
3316.81523457249	4116.75
3318.76144350377	4124.25
3320.70714067825	4159.5
3322.65232631783	4151
3324.59700064415	4117
3326.54116387854	4131
3328.48481624207	4112.75
3330.42795795551	4154.5
3332.37058923938	4076.75
3334.31271031389	4099.25
3336.25432139898	4093.5
3338.19542271432	4082
3340.13601447927	4092.25
3342.07609691292	4066.25
3344.01567023407	4090
3345.95473466124	4077.75
3347.89329041266	4091.75
3349.83133770627	4114.5
3351.76887675973	4072
3353.70590779039	4070.75
3355.64243101534	4087.5
3357.57844665135	4096.25
3359.51395491492	4077.5
3361.44895602224	4099.5
3363.38345018922	4076.25
3365.31743763148	4094.25
3367.25091856432	4086.5
3369.18389320278	4078
3371.11636176156	4078.75
3373.0483244551	4082.75
3374.97978149754	4120
3376.91073310269	4137.75
3378.84117948409	4112.25
3380.77112085498	4108.5
3382.70055742826	4100.25
3384.62948941659	4060.25
3386.55791703227	4106.5
3388.48584048733	4112
3390.41325999348	4112
3392.34017576214	4087.5
3394.2665880044	4086.5
3396.19249693107	4126.25
3398.11790275263	4072.5
3400.04280567926	4117
3401.96720592084	4128.25
3403.89110368692	4102.75
3405.81449918675	4099.5
3407.73739262928	4146.25
3409.65978422311	4068.75
3411.58167417658	4111.75
3413.50306269768	4107.25
3415.42394999408	4148
3417.34433627316	4131.75
3419.26422174195	4085
3421.18360660721	4127.5
3423.10249107532	4052
3425.02087535239	4071.5
3426.93875964421	4149
3428.8561441562	4106.5
3430.77302909353	4087
3432.68941466097	4067.5
3434.60530106301	4056
3436.52068850383	4128.75
3438.43557718726	4108
3440.34996731681	4031.75
3442.26385909565	4045.25
3444.17725272664	4049.75
3446.09014841231	4102
3448.00254635486	4011.75
3449.91444675614	4042.5
3451.82584981771	4027.75
3453.73675574076	4007
3455.64716472616	4016.75
3457.55707697445	4003
3459.46649268584	4014.75
3461.37541206018	3986.5
3463.28383529703	4022
3465.19176259555	4003.25
3467.09919415464	3975.25
3469.00613017278	3944.5
3470.91257084817	3984.5
3472.81851637863	3978.25
3474.72396696168	3946
3476.62892279446	3936.75
3478.53338407379	3970.5
3480.43735099614	3889.5
3482.34082375764	3960.25
3484.24380255404	3948.25
3486.1462875808	3925.75
3488.048279033	3935
3489.94977710537	3893
3491.85078199231	3929.75
3493.75129388783	3912.5
3495.65131298566	3893.5
3497.5508394791	3906.5
3499.44987356115	3913.5