201.866871357051	1245.75
204.754250281454	1254.75
207.640596790938	1231.5
210.525911876299	1258
213.410196525689	1255.25
216.293451724508	1255
219.175678455485	1238.25
222.056877698662	1251.5
224.937050431388	1248.25
227.816197628363	1255.25
230.694320261602	1255.5
233.571419300504	1261.75
236.447495711764	1266.5
239.322550459507	1278.25
242.196584505182	1259
245.069598807626	1286.25
247.941594323078	1296.5
250.812572005154	1275.25
253.682532804884	1294.5
256.551477670699	1291
259.419407548456	1270.5
262.286323381439	1278.75
265.152226110364	1296.25
268.017116673389	1282.25
270.880996006115	1280.75
273.743865041622	1297
276.605724710436	1309.5
279.466575940562	1312.25
282.326419657496	1302
285.1852567842	1298.25
288.043088241157	1307.75
290.899914946349	1311.25
293.75573781526	1303.25
296.610557760898	1312.75
299.464375693817	1343.5
302.317192522078	1314.25
305.169009151297	1313.75
308.019826484655	1323
310.86964542287	1327.75
313.718466864233	1314.5
316.566291704614	1318
319.413120837457	1324
322.258955153804	1323.25
325.103795542291	1324.75
327.947642889128	1328
330.79049807819	1326.25
333.632361990927	1313.5
336.473235506444	1317
339.31311950145	1342.25
342.152014850322	1331.5
344.989922425062	1341.75
347.826843095354	1349.5
350.662777728528	1322.75
353.497727189577	1349.25
356.331692341195	1352
359.164674043732	1344.5
361.996673155267	1351
364.827690531536	1334.75
367.65772702602	1343.75
370.486783489887	1344
373.314860772047	1347.25
376.14195971912	1343
378.968081175466	1361.75
381.793225983212	1363.75
384.617394982201	1351.25
387.44058901005	1366.75
390.262808902131	1369
393.08405549161	1372.5
395.904329609395	1363.75
398.723632084213	1352.75
401.541963742569	1362.75
404.359325408779	1377
407.175717904938	1375
409.991142050982	1364
412.805598664665	1379.5
415.619088561551	1373.5
418.43161255505	1363.75
421.243171456415	1382.75
424.053766074758	1384.25
426.863397217017	1405.25
429.672065688024	1390
432.479772290455	1400.75
435.286517824879	1385
438.092303089736	1381.75
440.897128881359	1391.5
443.70099599399	1389.25
446.503905219761	1403
449.305857348711	1417.75
452.106853168796	1400
454.906893465919	1394.25
457.705979023885	1375.75
460.504110624439	1402.75
463.3012890473	1378.25
466.097515070087	1397.5
468.892789468424	1415
471.687113015869	1379
474.48048648395	1393.75
477.272910642198	1411
480.064386258109	1409
482.854914097159	1393.5
485.644494922839	1414
488.433129496636	1412.5
491.220818578047	1401.5
494.007562924584	1418
496.793363291785	1427.5
499.578220433217	1418.75
502.362135100473	1415.25
505.145108043209	1428.25
507.927140009098	1436.25
510.708231743909	1429
513.488383991433	1425.25
516.267597493556	1435.5
519.04587299022	1434.25
521.82321121946	1416.25
524.599612917398	1428.25
527.375078818233	1447
530.149609654287	1428
532.923206155967	1433.75
535.695869051804	1441.5
538.467599068448	1423.25
541.238396930665	1426.5
544.008263361364	1434.25
546.777199081578	1429.75
549.545204810493	1416.25
552.312281265436	1414.5
555.078429161898	1440.75
557.843649213533	1441.75
560.607942132156	1427.25
563.371308627753	1446.5
566.133749408495	1441.75
568.895265180756	1441.75
571.655856649064	1434.5
574.415524516189	1430.25
577.174269483075	1427
579.932092248884	1452.5
582.688993510994	1478.5
585.444973965023	1459
588.200034304795	1467.25
590.95417522237	1448.5
593.70739740807	1455.75
596.459701550433	1468.5
599.21108833628	1452
601.961558450668	1457.25
604.711112576933	1469.25
607.459751396673	1463.75
610.207475589748	1443.75
612.954285834338	1456.5
615.700182806879	1442.5
618.445167182101	1438.5
621.189239633055	1451.75
623.932400831087	1453
626.674651445839	1443.75
629.415992145303	1444.25
632.156423595745	1441.75
634.895946461813	1428
637.634561406449	1444.5
640.37226909096	1434.75
643.109070174978	1442
645.844965316508	1432.25
648.579955171888	1465.25
651.314040395846	1447.75
654.047221641456	1435.75
656.779499560176	1445
659.510874801828	1465.75
662.241348014642	1445.75
664.97091984524	1456.5
667.699590938606	1451.25
670.427361938164	1444.25
673.15423348573	1477
675.880206221526	1459.25
678.605280784206	1478.25
681.329457810829	1453
684.05273793692	1448.25
686.775121796389	1457
689.49661002163	1468.75
692.217203243454	1470.75
694.936902091144	1461.25
697.655707192425	1452.75
700.373619173493	1461.5
703.09063865901	1454.75
705.806766272093	1451
708.522002634378	1459.25
711.236348365946	1461
713.94980408538	1446.5
716.662370409762	1463.75
719.374047954676	1456.25
722.08483733419	1457.5
724.794739160909	1451.5
727.503754045949	1449
730.21188259892	1470.25
732.919125427998	1479
735.625483139855	1454.5
738.330956339723	1451.25
741.035545631374	1462
743.739251617106	1461.75
746.44207489779	1489.25
749.144016072852	1466.5
751.845075740272	1468.5
754.545254496603	1469
757.244552936976	1464.5
759.94297165508	1486.5
762.640511243222	1485.75
765.337172292249	1465.75
768.032955391649	1480.5
770.727861129482	1480.75
773.421890092413	1478.75
776.11504286572	1477.25
778.807320033298	1487
781.49872217765	1482
784.18924987991	1461.5
786.87890371984	1460.75
789.567684275826	1484.25
792.255592124908	1475.75
794.94262784276	1457.25
797.628792003703	1477.25
800.314085180715	1455
802.998507945427	1484.25
805.682060868145	1471
808.364744517821	1459
811.046559462105	1478.75
813.727506267311	1480.25
816.407585498422	1476.5
819.08679771913	1462.25
821.765143491822	1477.5
824.442623377563	1489.5
827.119237936127	1472
829.794987726003	1494.25
832.469873304377	1477.5
835.143895227167	1474.5
837.817054048985	1471.5
840.489350323205	1495.5
843.160784601892	1493.5
845.831357435894	1495.5
848.501069374739	1473.5
851.169920966753	1508.75
853.837912758987	1516.25
856.505045297232	1500.25
859.171319126071	1507
861.836734788823	1494
864.501292827579	1520.75
867.164993783208	1486
869.827838195361	1494
872.489826602454	1497
875.150959541701	1495.25
877.811237549104	1488.25
880.470661159456	1504.5
883.129230906357	1489.75
885.786947322205	1479.25
888.443810938206	1510.25
891.099822284385	1480
893.754981889586	1489.75
896.409290281452	1486.25
899.062747986485	1505.5
901.715355529999	1503.75
904.367113436154	1485.75
907.01802222793	1495.75
909.668082427172	1495.5
912.317294554574	1492
914.965659129659	1508.25
917.613176670835	1504.5
920.259847695364	1511.25
922.90567271936	1520
925.550652257825	1496.5
928.194786824621	1481.5
930.838076932512	1512.5
933.480523093109	1515
936.122125816953	1495.5
938.762885613447	1511
941.402802990899	1517
944.041878456523	1508.75
946.680112516428	1522.75
949.31750567563	1529.5
951.954058438081	1507.25
954.589771306633	1532.5
957.224644783048	1523.75
959.858679368044	1527.5
962.491875561238	1515.75
965.12423386121	1517
967.75575476545	1511.75
970.386438770423	1495.75
973.016286371501	1523.75
975.645298063046	1496.5
978.273474338355	1503.75
980.900815689674	1511
983.527322608243	1506
986.152995584245	1524
988.777835106834	1528.25
991.401841664148	1522
994.025015743307	1518
996.647357830407	1503.75
999.268868410534	1531.5
1001.88954796777	1533
1004.50939698518	1513.5
1007.12841594484	1532.75
1009.74660532783	1528.25
1012.36396561423	1538.75
1014.98049728314	1518
1017.59620081267	1528
1020.21107667995	1527
1022.82512536112	1522.75
1025.43834733138	1540.25
1028.05074306493	1540.75
1030.66231303501	1532.5
1033.27305771392	1557.75
1035.88297757299	1555.5
1038.49207308257	1538.75
1041.10034471211	1535.75
1043.70779293008	1556
1046.31441820402	1548
1048.92022100052	1540
1051.52520178525	1558.75
1054.12936102295	1559.25
1056.73269917742	1555.75
1059.33521671154	1555.5
1061.93691408729	1571.25
1064.53779176571	1580
1067.13785020694	1561.25
1069.73708987022	1561.25
1072.33551121386	1558
1074.93311469528	1550.75
1077.52990077103	1538
1080.12586989674	1560
1082.72102252714	1559
1085.31535911611	1550.75
1087.90888011663	1576.5
1090.50158598078	1561.25
1093.09347715979	1538.25
1095.68455410403	1554.25
1098.27481726296	1562.25
1100.86426708523	1563.25
1103.45290401857	1577.75
1106.04072850991	1562.75
1108.6277410053	1562.5
1111.21394194993	1563.75
1113.79933178816	1568
1116.3839109635	1570.25
1118.96767991862	1590.25
1121.55063909539	1578.5
1124.13278893477	1616.75
1126.71412987696	1615.5
1129.29466236132	1613
1131.87438682637	1601.25
1134.45330370982	1571
1137.03141344858	1604.5
1139.60871647872	1587.75
1142.18521323554	1613.5
1144.7609041535	1606
1147.33578966629	1597.75
1149.90987020676	1596.5
1152.48314620702	1614
1155.05561809835	1606
1157.62728631125	1592.5
1160.19815127545	1590.75
1162.76821341988	1599
1165.33747317271	1602.25
1167.90593096133	1597.75
1170.47358721235	1605.5
1173.04044235163	1612.5
1175.60649680425	1582
1178.17175099454	1615.25
1180.73620534607	1598.75
1183.29986028165	1588.5
1185.86271622336	1595.75
1188.42477359249	1590.75
1190.98603280964	1587.75
1193.54649429462	1594.75
1196.10615846653	1588.5
1198.66502574372	1606
1201.22309654385	1597.5
1203.78037128378	1615.25
1206.33685037971	1598.25
1208.89253424709	1603
1211.44742330063	1579.25
1214.00151795438	1597.5
1216.55481862163	1600.75
1219.10732571497	1612.75
1221.65903964631	1594.5
1224.20996082683	1608.25
1226.760089667	1607.75
1229.30942657664	1599.5
1231.85797196483	1622
1234.40572623998	1598.5
1236.95268980981	1624
1239.49886308136	1619.5
1242.04424646098	1631
1244.58884035435	1630
1247.13264516647	1626.25
1249.67566130166	1626.5
1252.21788916358	1644.5
1254.75932915524	1636.5
1257.29998167896	1658.75
1259.83984713639	1637.5
1262.37892592857	1653
1264.91721845586	1630.75
1267.45472511795	1673.25
1269.9914463139	1653
1272.52738244213	1656
1275.0625339004	1668.75
1277.59690108587	1680.75
1280.130484395	1692
1282.66328422367	1665.25
1285.19530096712	1678
1287.72653501993	1686.5
1290.25698677608	1719
1292.78665662894	1701
1295.31554497125	1705.25
1297.8436521951	1730.25
1300.37097869203	1707.25
1302.89752485292	1697.25
1305.42329106805	1674.75
1307.94827772713	1707.5
1310.47248521921	1700.5
1312.99591393279	1703.25
1315.51856425575	1708.5
1318.04043657536	1719.75
1320.56153127836	1727
1323.08184875083	1717.5
1325.6013893783	1722.75
1328.12015354572	1740.5
1330.63814163744	1713.5
1333.15535403727	1722.25
1335.67179112839	1739.25
1338.18745329347	1717.25
1340.70234091454	1740.25
1343.21645437314	1739.5
1345.72979405019	1752.75
1348.24236032607	1732.75
1350.75415358059	1755.75
1353.26517419303	1742.75
1355.7754225421	1747.25
1358.28489900594	1776.25
1360.79360396218	1760
1363.30153778787	1772.25
1365.80870085955	1760
1368.31509355319	1744.25
1370.82071624424	1745
1373.32556930762	1725.75
1375.8296531177	1746.5
1378.33296804832	1760.75
1380.83551447282	1752
1383.33729276399	1726
1385.83830329408	1741.75
1388.33854643489	1737.5
1390.83802255762	1742.25
1393.33673203301	1729.5
1395.83467523128	1724.75
1398.33185252211	1739.75
1400.82826427471	1734
1403.32391085777	1726
1405.81879263947	1721
1408.31290998752	1722.75
1410.80626326908	1725.25
1413.29885285087	1722.5
1415.79067909909	1735.75
1418.28174237944	1748.5
1420.77204305717	1737
1423.26158149702	1735
1425.75035806323	1735
1428.2383731196	1748.75
1430.72562702942	1756.75
1433.21212015554	1760.75
1435.69785286028	1777
1438.18282550555	1783
1440.66703845275	1815.5
1443.15049206284	1771.75
1445.6331866963	1792.25
1448.11512271316	1805.5
1450.59630047298	1795
1453.07672033486	1788
1455.55638265748	1773.75
1458.03528779902	1802.5
1460.51343611725	1798.25
1462.99082796946	1807.25
1465.46746371252	1778.75
1467.94334370285	1793
1470.41846829642	1784.5
1472.89283784878	1778.25
1475.36645271503	1763.25
1477.83931324983	1785.25
1480.31141980743	1772.75
1482.78277274164	1774
1485.25337240583	1772.5
1487.72321915297	1764.5
1490.19231333557	1782
1492.66065530578	1774.25
1495.12824541525	1788.75
1497.5950840153	1778.5
1500.06117145678	1770.5
1502.52650809014	1779.75
1504.99109426543	1770.25
1507.45493033227	1770.25
1509.91801663992	1782
1512.38035353717	1783.75
1514.84194137248	1789
1517.30278049386	1802.75
1519.76287124894	1766.25
1522.22221398497	1778.75
1524.68080904876	1785
1527.13865678681	1779.5
1529.59575754514	1799
1532.05211166945	1818.75
1534.50771950503	1811.25
1536.96258139678	1801.75
1539.41669768924	1829
1541.87006872656	1816.25
1544.32269485252	1836.25
1546.77457641051	1839
1549.22571374357	1854.75
1551.67610719434	1846.5
1554.12575710513	1876
1556.57466381785	1853.75
1559.02282767408	1857.25
1561.47024901499	1871
1563.91692818144	1891.75
1566.3628655139	1911.75
1568.80806135249	1879.25
1571.252516037	1905.75
1573.6962299068	1894.25
1576.13920330099	1916.5
1578.58143655828	1896
1581.02293001704	1903.5
1583.46368401528	1936.5
1585.90369889071	1931
1588.34297498065	1923.75
1590.7815126221	1929.75
1593.21931215173	1943.75
1595.65637390588	1914.75
1598.09269822053	1914.25
1600.52828543135	1914.25
1602.96313587367	1913.75
1605.3972498825	1893.25
1607.83062779252	1883.25
1610.26326993808	1921.75
1612.69517665322	1900
1615.12634827165	1878.5
1617.55678512676	1884
1619.98648755163	1846.75
1622.41545587902	1846
1624.84369044138	1852.75
1627.27119157085	1872
1629.69795959924	1835.75
1632.12399485808	1863
1634.54929767859	1850.25
1636.97386839165	1812
1639.39770732789	1866
1641.8208148176	1842.5
1644.24319119078	1858.5
1646.66483677715	1845
1649.0857519061	1835.75
1651.50593690677	1845
1653.92539210795	1854.25
1656.3441178382	1824
1658.76211442575	1847.25
1661.17938219855	1833.75
1663.59592148428	1838
1666.01173261032	1862
1668.42681590377	1882.25
1670.84117169145	1856.75
1673.25480029991	1848.5
1675.66770205541	1879
1678.07987728393	1868
1680.49132631119	1886.25
1682.90204946263	1862
1685.31204706342	1882.5
1687.72131943846	1883.5
1690.1298669124	1869
1692.53768980957	1907.75
1694.94478845411	1889.25
1697.35116316982	1870.25
1699.75681428031	1888.5
1702.16174210887	1904.5
1704.56594697858	1910
1706.96942921222	1923
1709.37218913235	1918.5
1711.77422706125	1899.5
1714.17554332098	1910.75
1716.5761382333	1915
1718.97601211977	1891.25
1721.37516530169	1890.25
1723.77359810006	1912.5
1726.17131083572	1866.5
1728.56830382922	1877.5
1730.96457740087	1903.5
1733.36013187075	1869.25
1735.75496755868	1894.5
1738.14908478428	1885.75
1740.54248386689	1874.25
1742.93516512565	1876.25
1745.32712887946	1886.75
1747.71837544697	1898.5
1750.10890514662	1892
1752.49871829661	1902.75
1754.88781521492	1899.75
1757.27619621929	1894.5
1759.66386162726	1891.75
1762.05081175612	1880.25
1764.43704692297	1897.75
1766.82256744465	1914.25
1769.20737363782	1914
1771.59146581887	1898
1773.97484430405	1905.75
1776.35750940932	1913.25
1778.73946145048	1938.5
1781.12070074309	1929.25
1783.50122760249	1928.25
1785.88104234385	1941.25
1788.26014528209	1919.75
1790.63853673196	1925.75
1793.01621700796	1939.75
1795.39318642443	1948.75
1797.76944529549	1931.25
1800.14499393503	1958.5
1802.51983265681	1954.25
1804.8939617743	1937.25
1807.26738160085	1951
1809.64009244957	1961
1812.01209463339	1964.25
1814.38338846504	1978.5
1816.75397425706	1924
1819.12385232181	1979.5
1821.49302297142	1962.5
1823.86148651789	1967.25
1826.22924327299	1968.5
1828.59629354831	1966
1830.96263765526	1967.25
1833.32827590507	1972.25
1835.69320860877	1967
1838.05743607724	1953.75
1840.42095862113	1975.75
1842.78377655097	1962.75
1845.14589017707	1965.25
1847.50729980956	1959.75
1849.86800575843	1954.5
1852.22800833346	1979.25
1854.58730784427	1963.75
1856.94590460032	1976
1859.30379891087	2001.5
1861.66099108503	1976
1864.01748143175	1978
1866.37327025978	2025.75
1868.72835787773	1978.75
1871.08274459403	2014.25
1873.43643071697	1993.25
1875.78941655464	2038.5
1878.14170241498	2033.25
1880.4932886058	2024
1882.84417543469	2007.75
1885.19436320915	2028
1887.54385223646	2027.5
1889.89264282378	2030.75
1892.24073527809	2056
1894.58812990625	2034.75
1896.93482701493	2066.75
1899.28082691067	2077.25
1901.62612989984	2072.5
1903.97073628868	2069.25
1906.31464638326	2052.25
1908.6578604895	2068.5
1911.00037891321	2096.5
1913.34220196	2102.75
1915.68332993537	2074.25
1918.02376314468	2110
1920.36350189311	2094.5
1922.70254648573	2118.25
1925.04089722744	2093.25
1927.37855442303	2107.25
1929.71551837715	2101
1932.05178939426	2088
1934.38736777876	2105
1936.72225383484	2092
1939.0564478666	2148.5
1941.38995017799	2130.75
1943.72276107283	2100.75
1946.05488085479	2112.5
1948.38630982744	2099
1950.71704829419	2130.5
1953.04709655832	2128.5
1955.376454923	2116.75
1957.70512369126	2101
1960.03310316599	2092.75
1962.36039364999	2111.75
1964.68699544589	2100.25
1967.01290885622	2120.5
1969.33813418338	2104.25
1971.66267172965	2137
1973.98652179718	2114
1976.309684688	2121
1978.63216070402	2120.25
1980.95395014705	2168
1983.27505331873	2143.75
1985.59547052063	2141.25
1987.9152020542	2155.25
1990.23424822074	2165.25
1992.55260932146	2169
1994.87028565746	2150.25
1997.18727752968	2166.25
1999.503585239	2170.25
2001.81920908618	2197.25
2004.13414937184	2194.5
2006.44840639651	2204
2008.7619804606	2182.75
2011.07487186442	2202
2013.38708090815	2230
2015.6986078919	2214
2018.00945311564	2250.75
2020.31961687923	2207.25
2022.62909948246	2226.5
2024.93790122498	2246
2027.24602240636	2238
2029.55346332604	2233.75
2031.86022428337	2262.25
2034.16630557761	2271
2036.47170750791	2265.75
2038.77643037331	2254.5
2041.08047447275	2271.5
2043.38384010509	2263.75
2045.68652756907	2298
2047.98853716335	2269.25
2050.28986918648	2294.5
2052.59052393692	2282
2054.89050171302	2285.5
2057.18980281306	2296.5
2059.4884275352	2286
2061.78637617753	2284.75
2064.08364903802	2299.5
2066.38024641457	2272.25
2068.67616860497	2320.75
2070.97141590694	2305
2073.26598861809	2281.25
2075.55988703595	2290
2077.85311145796	2285.75
2080.14566218145	2282.75
2082.43753950371	2332
2084.72874372188	2308
2087.01927513307	2306.25
2089.30913403428	2316
2091.59832072241	2301.75
2093.88683549429	2276.75
2096.17467864666	2328.25
2098.46185047619	2316.75
2100.74835127944	2321.25
2103.03418135292	2307.5
2105.31934099303	2337
2107.6038304961	2356.25
2109.88765015838	2355.75
2112.17080027602	2355
2114.45328114513	2343.25
2116.7350930617	2375.25
2119.01623632165	2366.5
2121.29671122085	2379.75
2123.57651805505	2379.5
2125.85565711996	2382.5
2128.13412871117	2365.25
2130.41193312424	2405.5
2132.68907065462	2369.75
2134.96554159771	2410.5
2137.24134624881	2396.75
2139.51648490317	2418.5
2141.79095785593	2404.5
2144.0647654022	2430
2146.33790783698	2415.25
2148.61038545524	2388.5
2150.88219855182	2438.75
2153.15334742154	2420
2155.42383235911	2447.25
2157.6936536592	2453.25
2159.9628116164	2443.25
2162.23130652522	2474.5
2164.49913868011	2446
2166.76630837544	2469.75
2169.03281590552	2432.25
2171.2986615646	2473.25
2173.56384564685	2458.5
2175.82836844637	2475
2178.0922302572	2505.75
2180.35543137332	2459.25
2182.61797208862	2460.25
2184.87985269695	2463.5
2187.14107349208	2461.75
2189.40163476773	2479
2191.66153681753	2498.25
2193.92077993507	2469.75
2196.17936441386	2467.25
2198.43729054735	2460.75
2200.69455862894	2471.5
2202.95116895194	2478.25
2205.20712180962	2488.5
2207.46241749519	2484.5
2209.71705630179	2503.5
2211.97103852248	2469.75
2214.2243644503	2484.75
2216.47703437819	2499.25
2218.72904859905	2506.5
2220.98040740571	2508.25
2223.23111109095	2528
2225.4811599475	2482.75
2227.73055426799	2544.25
2229.97929434504	2472.75
2232.22738047118	2481
2234.47481293889	2527
2236.72159204058	2572.75
2238.96771806864	2506.25
2241.21319131536	2531.25
2243.458012073	2513.5
2245.70218063374	2563.75
2247.94569728973	2582
2250.18856233304	2529.25
2252.4307760557	2538.25
2254.67233874967	2553.25
2256.91325070687	2551
2259.15351221915	2538.75
2261.39312357831	2548.25
2263.63208507611	2548
2265.87039700422	2515.75
2268.1080596543	2577.5
2270.34507331792	2555
2272.5814382866	2555.5
2274.81715485183	2574.75
2277.05222330502	2554.5
2279.28664393755	2574.75
2281.52041704072	2565.75
2283.75354290581	2600
2285.98602182401	2584.5
2288.21785408648	2578.75
2290.44903998434	2587.75
2292.67957980862	2608.75
2294.90947385033	2575.75
2297.1387224004	2537.75
2299.36732574975	2617
2301.59528418921	2610.25
2303.82259800958	2623.5
2306.04926750158	2621
2308.27529295593	2607
2310.50067466325	2599.25
2312.72541291412	2623.5
2314.9495079991	2615.25
2317.17296020866	2606.5
2319.39576983323	2614
2321.61793716322	2627.5
2323.83946248894	2591.75
2326.06034610069	2611.5
2328.28058828871	2626.5
2330.50018934317	2597.25
2332.7191495542	2615
2334.93746921192	2617.5
2337.15514860633	2629.5
2339.37218802743	2621.75
2341.58858776516	2600.75
2343.80434810941	2640
2346.01946935001	2644
2348.23395177675	2625.75
2350.44779567939	2616.75
2352.66100134759	2618.75
2354.87356907101	2638.25
2357.08549913925	2649
2359.29679184185	2592.5
2361.50744746829	2659.75
2363.71746630804	2633
2365.92684865048	2628.25
2368.13559478499	2625.25
2370.34370500083	2626.75
2372.55117958727	2616
2374.75801883352	2627.5
2376.96422302874	2627
2379.16979246202	2618
2381.37472742243	2632.75
2383.57902819898	2639
2385.78269508063	2624.75
2387.98572835629	2600.5
2390.18812831482	2618.75
2392.38989524505	2644.5
2394.59102943573	2636
2396.79153117559	2651.5
2398.9914007533	2623
2401.19063845748	2601
2403.38924457672	2618.75
2405.58721939951	2606.75
2407.78456321435	2638.75
2409.98127630966	2618
2412.17735897382	2620.5
2414.37281149517	2601.75
2416.56763416198	2632.5
2418.76182726249	2641
2420.95539108487	2623.75
2423.14832591726	2629
2425.34063204776	2607.5
2427.53230976439	2617
2429.72335935513	2638.75
2431.91378110795	2610.5
2434.10357531071	2612
2436.29274225125	2640
2438.48128221739	2585.75
2440.66919549683	2612.75
2442.8564823773	2612.75
2445.04314314641	2645
2447.22917809176	2612.25
2449.4145875009	2622.5
2451.59937166131	2609
2453.78353086044	2620
2455.96706538568	2600.5
2458.14997552436	2614.5
2460.33226156379	2592.5
2462.51392379119	2618.5
2464.69496249376	2600.5
2466.87537795862	2593.5
2469.05517047288	2585.5
2471.23434032357	2582.5
2473.41288779767	2612.25
2475.59081318211	2593.75
2477.76811676378	2600.25
2479.9447988295	2592.5
2482.12085966605	2586.5
2484.29629956016	2565.25
2486.4711187985	2583.25
2488.64531766769	2599
2490.8188964543	2598.75
2492.99185544484	2581
2495.16419492579	2578.25
2497.33591518353	2587
2499.50701650444	2578.25
2501.67749917482	2609.5
2503.84736348091	2586.5
2506.01660970891	2572.5
2508.18523814496	2608
2510.35324907514	2604.25
2512.52064278551	2580.25
2514.68741956201	2613
2516.85357969058	2640.25
2519.01912345709	2626.25
2521.18405114735	2592.25
2523.34836304711	2595.75
2525.51205944208	2575.5
2527.6751406179	2571
2529.83760686016	2614.75
2531.99945845439	2637.5
2534.16069568606	2633.5
2536.3213188406	2623.75
2538.48132820336	2610.25
2540.64072405965	2617.25
2542.79950669471	2617.5
2544.95767639373	2622.5
2547.11523344184	2606.75
2549.27217812411	2612.25
2551.42851072555	2615.25
2553.58423153111	2606.75
2555.73934082569	2606.5
2557.89383889412	2622.75
2560.04772602118	2608
2562.20100249158	2620.75
2564.35366858996	2566
2566.50572460093	2597.25
2568.65717080901	2587.75
2570.80800749867	2582
2572.95823495433	2614.25
2575.10785346031	2612.25
2577.25686330093	2572
2579.40526476038	2564.25
2581.55305812282	2556.5
2583.70024367237	2577.25
2585.84682169303	2545.5
2587.99279246879	2547
2590.13815628354	2574.75
2592.28291342112	2569.75
2594.42706416531	2551.75
2596.5706087998	2547
2598.71354760826	2578.5
2600.85588087425	2576
2602.99760888127	2576.75
2605.13873191278	2583
2607.27925025214	2529
2609.41916418269	2572
2611.55847398764	2533.25
2613.69717995017	2572.75
2615.83528235339	2573.5
2617.97278148034	2561.5
2620.10967761398	2586.75
2622.2459710372	2592.25
2624.38166203284	2572.25
2626.51675088365	2588.25
2628.65123787231	2566.25
2630.78512328145	2559.75
2632.9184073936	2584.5
2635.05109049124	2564.5
2637.18317285676	2576
2639.31465477248	2582
2641.44553652067	2563.5
2643.5758183835	2586.5
2645.70550064309	2559.75
2647.83458358144	2587.5
2649.96306748053	2589.25
2652.09095262223	2589
2654.21823928836	2583.25
2656.34492776063	2576
2658.47101832071	2568.5
2660.59651125015	2599
2662.72140683047	2547.5
2664.84570534309	2558.25
2666.96940706934	2563
2669.0925122905	2560
2671.21502128773	2576.75
2673.33693434215	2616.5
2675.45825173479	2593.75
2677.57897374658	2553
2679.69910065839	2599
2681.818632751	2563.25
2683.93757030511	2598.25
2686.05591360133	2566
2688.17366292021	2582.25
2690.29081854218	2549
2692.40738074762	2572.5
2694.52334981681	2564.5
2696.63872602995	2549.75
2698.75350966713	2579.5
2700.86770100841	2591.75
2702.98130033371	2592.5
2705.09430792289	2578.25
2707.20672405571	2570.5
2709.31854901185	2621.5
2711.42978307091	2579
2713.54042651238	2598.5
2715.65047961567	2582.5
2717.7599426601	2581.75
2719.86881592491	2601.5
2721.97709968924	2599.75
2724.08479423213	2575.5
2726.19189983255	2581
2728.29841676934	2571.25
2730.4043453213	2591
2732.5096857671	2586.25
2734.61443838532	2586
2736.71860345444	2565
2738.82218125286	2576.25
2740.92517205889	2567.25
2743.02757615072	2586.25
2745.12939380646	2588
2747.23062530411	2570
2749.33127092159	2601.75
2751.4313309367	2598.25
2753.53080562716	2591.25
2755.62969527058	2614.75
2757.72800014448	2550.75
2759.82572052625	2599.75
2761.92285669323	2572.25
2764.0194089226	2607.75
2766.11537749147	2597
2768.21076267686	2570.75
2770.30556475566	2601
2772.39978400465	2605
2774.49342070054	2582.5
2776.58647511991	2587
2778.67894753923	2583
2780.77083823487	2585.25
2782.8621474831	2561.75
2784.95287556007	2542.5
2787.04302274184	2583.5
2789.13258930433	2579.5
2791.22157552338	2572
2793.30998167471	2588.5
2795.39780803392	2585.5
2797.4850548765	2606.75
2799.57172247786	2586.75
2801.65781111324	2572
2803.74332105781	2568.25
2805.82825258661	2585
2807.91260597457	2592.5
2809.9963814965	2591.75
2812.07957942711	2588.5
2814.16220004096	2590.75
2816.24424361252	2610
2818.32571041614	2562.75
2820.40660072604	2600
2822.48691481631	2605.75
2824.56665296098	2618
2826.64581543388	2609
2828.72440250876	2641
2830.80241445925	2622.5
2832.87985155885	2646.25
2834.95671408093	2705.75
2837.03300229875	2735.5
2839.10871648544	2749.25
2841.18385691399	2852.5
2843.25842385729	2891.25
2845.33241758808	2900.5
2847.40583837898	2980
2849.4786865025	3010.75
2851.550962231	3006.75
2853.6226658367	2947.5
2855.69379759173	2924
2857.76435776806	2930
2859.83434663753	2883.5
2861.90376447184	2893.25
2863.97261154259	2860.75
2866.0408881212	2844.5
2868.10859447901	2830.75
2870.17573088717	2847
2872.24229761673	2877.75
2874.30829493859	2873.5
2876.37372312352	2899.25
2878.43858244215	2969.25
2880.50287316496	3009.25
2882.56659556231	2990.75
2884.62974990439	2958
2886.69233646129	2897
2888.75435550293	2893
2890.81580729909	2921.5
2892.87669211941	2911.25
2894.93701023339	2887.25
2896.99676191039	2886.5
2899.05594741961	2880.75
2901.1145670301	2877
2903.1726210108	2856.75
2905.23010963045	2863.25
2907.28703315768	2841.25
2909.34339186096	2837
2911.39918600861	2845.75
2913.45441586879	2806.25
2915.50908170952	2808
2917.56318379867	2809
2919.61672240395	2818.25
2921.66969779291	2818.75
2923.72211023295	2836.25
2925.77395999134	2838
2927.82524733515	2858.5
2929.87597253132	2821.25
2931.92613584663	2792.25
2933.97573754769	2804.25
2936.02477790097	2729.75
2938.07325717276	2739.5
2940.1211756292	2730.5
2942.16853353626	2711
2944.21533115976	2711
2946.26156876536	2709.25
2948.30724661853	2671.25
2950.3523649846	2662.5
2952.39692412872	2662
2954.44092431587	2686.5
2956.48436581089	2657
2958.52724887843	2649
2960.56957378296	2641.75
2962.6113407888	2681.5
2964.65255016011	2642.75
2966.69320216083	2668
2968.73329705479	2643
2970.77283510559	2595.5
2972.81181657671	2649.5
2974.8502417314	2659
2976.88811083279	2647.5
2978.92542414378	2669.5
2980.96218192713	2650.25
2982.99838444541	2651
2985.034031961	2682
2987.06912473612	2647.5
2989.1036630328	2640.75
2991.13764711288	2655.75
2993.17107723804	2645.5
2995.20395366974	2684.25
2997.23627666931	2675.75
2999.26804649782	2669
3001.29926341624	2691.5
3003.32992768528	2666.5
3005.3600395655	2681
3007.38959931726	2693.5
3009.41860720076	2705.75
3011.44706347595	2676.25
3013.47496840263	2699.75
3015.50232224041	2684.25
3017.5291252487	2694
3019.5553776867	2669
3021.58107981344	2729.25
3023.60623188773	2705.75
3025.63083416822	2717.25
3027.65488691331	2745.75
3029.67839038125	2714.5
3031.70134483007	2702.75
3033.72375051759	2709.75
3035.74560770144	2712.5
3037.76691663907	2754.5
3039.78767758768	2749.75
3041.80789080431	2741.75
3043.82755654577	2723.75
3045.84667506867	2700.25
3047.8652466294	2742.5
3049.88327148418	2723.25
3051.90074988899	2730.75
3053.91768209961	2735.5
3055.9340683716	2722.5
3057.94990896033	2719.75
3059.96520412095	2738.25
3061.97995410838	2732.75
3063.99415917734	2782.25
3066.00781958234	2735.5
3068.02093557766	2722.25
3070.03350741738	2721
3072.04553535535	2707.25
3074.05701964521	2704.25
3076.06796054036	2720.75
3078.078358294	2716.75
3080.08821315912	2731.25
3082.09752538846	2745
3084.10629523454	2704.75
3086.11452294967	2753.25
3088.12220878592	2731.25
3090.12935299515	2747.5
3092.13595582898	2709.5
3094.1420175388	2736.75
3096.14753837579	2734.5
3098.15251859088	2732.25
3100.15695843477	2743.75
3102.16085815793	2726.5
3104.16421801061	2738.75
3106.16703824282	2721
3108.16931910432	2735.5
3110.17106084464	2721.5
3112.17226371308	2755.25
3114.17292795872	2726.25
3116.17305383034	2765
3118.17264157657	2756
3120.17169144571	2766
3122.17020368587	2730.5
3124.16817854492	2735.5
3126.16561627044	2741.25
3128.16251710982	2797.5
3130.15888131017	2756.5
3132.15470911837	2779
3134.15000078104	2783.25
3136.14475654455	2752.25
3138.13897665502	2791.5
3140.13266135835	2762.75
3142.12581090014	2785.5
3144.11842552577	2780.5
3146.11050548036	2807.25
3148.10205100875	2769.5
3150.09306235557	2828
3152.08353976515	2804.75
3154.07348348158	2774.25
3156.06289374869	2785.75
3158.05177081006	2780.25
3160.04011490899	2774
3162.02792628852	2795.75
3164.01520519145	2784.75
3166.00195186029	2790.5
3167.98816653728	2774
3169.97384946442	2782.5
3171.95900088344	2787.25
3173.94362103577	2793
3175.92771016259	2803.5
3177.91126850484	2812.75
3179.89429630312	2796.5
3181.87679379782	2790
3183.85876122903	2839.5
3185.84019883657	2820.5
3187.82110685997	2793.25
3189.80148553851	2779.75
3191.78133511116	2815.25
3193.76065581664	2805
3195.73944789337	2822.5
3197.7177115795	2801.25
3199.6954471129	2823.5
3201.67265473114	2803.25
3203.64933467153	2776
3205.62548717107	2823.25
3207.60111246648	2857
3209.57621079421	2804.5
3211.55078239041	2835
3213.52482749093	2812.75
3215.49834633133	2828.25
3217.4713391469	2834.5
3219.44380617262	2829
3221.41574764317	2867
3223.38716379296	2843.75
3225.35805485607	2824.75
3227.32842106631	2844.5
3229.29826265718	2842.5
3231.26757986187	2827.25
3233.2363729133	2865.5
3235.20464204405	2858.25
3237.17238748643	2875.25
3239.13960947243	2840
3241.10630823374	2885.25
3243.07248400174	2878.75
3245.03813700748	2901.75
3247.00326748177	2870.5
3248.96787565503	2889
3250.93196175742	2886
3252.89552601877	2888.75
3254.8585686686	2892.75
3256.82108993612	2883
3258.78309005022	2906
3260.74456923948	2891
3262.70552773215	2906.5
3264.66596575617	2919.25
3266.62588353916	2896.75
3268.58528130843	2882.75
3270.54415929094	2857.5
3272.50251771336	2892.75
3274.46035680201	2883.25
3276.4176767829	2935.75
3278.37447788171	2891.75
3280.33076032379	2898.5
3282.28652433416	2891
3284.24177013751	2908
3286.1964979582	2938
3288.15070802027	2940.5
3290.10440054741	2925.25
3292.05757576298	2889
3294.01023389001	2883
3295.96237515119	2905.5
3297.91399976887	2916.5
3299.86510796506	2933
3301.81569996142	2934.75
3303.76577597932	2914
3305.7153362397	2926.75
3307.66438096324	2939.75
3309.61291037024	2935.25
3311.56092468064	2916.25
3313.50842411404	2905.25
3315.45540888971	2893.25
3317.40187922656	2877.75
3319.34783534315	2922
3321.29327745768	2918.75
3323.23820578801	2891
3325.18262055164	2927.5
3327.1265219657	2883.5
3329.06991024699	2888
3331.01278561194	2906.75
3332.95514827662	2893.75
3334.89699845674	2910.25
3336.83833636766	2919.75
3338.77916222434	2873
3340.71947624143	2916.75
3342.65927863317	2897.75
3344.59856961346	2907.75
3346.53734939584	2905
3348.47561819344	2894.5
3350.41337621906	2890.25
3352.35062368513	2905.25
3354.28736080368	2888.5
3356.22358778637	2896.5
3358.15930484452	2896.5
3360.09451218904	2924.25
3362.02921003047	2876.25
3363.96339857898	2955.5
3365.89707804436	2932.25
3367.83024863602	2896.75
3369.76291056299	2891.25
3371.69506403389	2876.5
3373.62670925699	2933
3375.55784644016	2940.25
3377.4884757909	2922
3379.41859751629	2918.75
3381.34821182305	2911.5
3383.27731891749	2926.5
3385.20591900555	2949.25
3387.13401229276	2926
3389.06159898426	2925.75
3390.9886792848	2953
3392.91525339872	2961
3394.84132152998	2956
3396.76688388213	2926.5
3398.69194065833	2947
3400.61649206133	2950.5
3402.54053829348	2969.5
3404.46407955672	2951.75
3406.3871160526	2967.75
3408.30964798225	2947.25
3410.23167554639	2989.25
3412.15319894535	2951.75
3414.07421837904	2990.5
3415.99473404695	2986.25
3417.91474614817	2980
3419.83425488136	2993.5
3421.75326044479	2966.75
3423.67176303631	2987.5
3425.58976285332	2984.25
3427.50726009282	2936
3429.42425495143	2955.25
3431.34074762528	2957.75
3433.25673831012	2938
3435.17222720127	2946
3437.08721449362	2945.75
3439.00170038164	2934.25
3440.91568505936	2956
3442.82916872039	2922.5
3444.74215155791	2969.75
3446.65463376468	2954.25
3448.566615533	2952
3450.47809705476	2949.5
3452.3890785214	2919.25
3454.29956012393	2959.25
3456.20954205293	2954.5
3458.11902449853	2947
3460.02800765041	2946.75
3461.93649169784	2952.5
3463.84447682962	2964
3465.75196323412	2915.25
3467.65895109925	2956
3469.56544061249	2918.75
3471.47143196086	2920
3473.37692533093	2939.25
3475.28192090884	2929.75
3477.18641888026	2941.25
3479.09041943039	2922.25
3480.99392274402	2916.25
3482.89692900545	2952.5
3484.79943839853	2987
3486.70145110666	2955.75
3488.60296731277	2945
3490.50398719933	2960.25
3492.40451094836	2907.5
3494.30453874141	2952.75
3496.20407075956	2940.75
3498.10310718342	2971.25
3500.00164819315	2915.25