200.475549058548	758.75
203.359249075907	761.5
206.241936533635	759.25
209.123612299129	765
212.004277237673	763
214.883932212466	778.5
217.762578084596	763.75
220.640215713076	767.5
223.516845954837	764.5
226.392469664723	768.75
229.26708769552	767.25
232.14070089794	773.5
235.013310120656	773
237.884916210263	778
240.755520011335	780.5
243.625122366404	787.25
246.493724115942	800.75
249.361326098424	806
252.227929150296	806
255.093534105978	804
257.958141797884	799.75
260.821753056447	798.25
263.684368710063	789.75
266.545989585164	782.5
269.406616506196	783.25
272.266250295612	782
275.124891773896	774.75
277.982541759568	764.5
280.839201069171	769.25
283.69487051732	758.75
286.549550916647	767
289.403243077853	770
292.255947809714	775.25
295.10766591904	777.25
297.958398210747	781
300.808145487801	774.5
303.656908551278	769.25
306.504688200319	770.75
309.351485232171	777
312.197300442189	782
315.042134623818	787.75
317.885988568629	780
320.72886306631	786.25
323.570758904654	790.25
326.411676869615	787
329.251617745253	780.75
332.09058231378	778.5
334.928571355551	778.25
337.765585649082	776.75
340.601625971023	779.75
343.436693096224	784.5
346.270787797657	779
349.103910846512	774.5
351.936063012115	769.25
354.767245062016	783.25
357.597457761927	781.25
360.426701875771	780.5
363.25497816566	773.75
366.082287391928	779.25
368.908630313104	780.75
371.734007685947	779.5
374.558420265435	789.5
377.381868804758	784.25
380.204354055371	784.5
383.02587676694	796.5
385.846437687393	799.25
388.666037562889	821
391.484677137862	852.75
394.302357154986	879.25
397.119078355226	919
399.934841477789	934
402.749647260174	922.5
405.563496438161	882
408.376389745808	847.5
411.188327915483	821.25
413.999311677824	816
416.809341761793	804.25
419.61841889465	806
422.426543801968	805.5
425.233717207637	804
428.039939833878	800
430.845212401226	797.5
433.64953562856	794
436.452910233093	797
439.255336930382	790.5
442.056816434335	807.5
444.857349457205	815.5
447.65693670962	829.25
450.455578900554	836.75
453.253276737363	845.5
456.050030925759	844.25
458.84584216986	842.25
461.640711172138	823.5
464.434638633487	826.25
467.227625253163	797.75
470.019671728842	806.5
472.810778756586	802
475.600947030889	788
478.390177244633	788.5
481.178470089144	794.5
483.965826254145	795.25
486.752246427819	789.25
489.537731296754	785.25
492.322281545992	796.75
495.105897859008	786
497.888580917748	799.25
500.670331402573	806.75
503.451149992328	795.75
506.231037364323	797.25
509.009994194319	798.25
511.788021156572	800.25
514.565118923787	809.5
517.341288167165	806.5
520.116529556395	816.75
522.890843759669	822.25
525.664231443643	825.5
528.436693273514	833.75
531.208229912947	832.75
533.978842024138	836.25
536.7485302678	814.5
539.517295303154	819.25
542.285137787949	814
545.052058378482	808
547.818057729542	799
550.583136494504	800
553.347295325253	801.5
556.110534872227	797
558.872855784437	794.25
561.63425870943	786.5
564.39474429332	799.75
567.154313180785	800.5
569.912966015068	800.25
572.67070343802	799.5
575.427526090021	795.75
578.183434610073	798.25
580.938429635768	804
583.692511803256	797.25
586.445681747326	808
589.197940101341	808
591.949287497293	810.75
594.699724565755	809.25
597.449251935952	804.25
600.197870235697	814.75
602.945580091462	796.75
605.692382128313	793.75
608.43827696997	792.25
611.183265238786	797.75
613.92734755576	799
616.670524540528	797.25
619.412796811394	796.25
622.154164985306	794.5
624.894629677859	806.5
627.634191503348	794.5
630.372851074691	790.75
633.110609003535	803
635.847465900133	792.75
638.5834223735	795
641.31847903127	809
644.052636479799	794.25
646.78589532413	805.75
649.518256168005	797.25
652.249719613883	802.5
654.9802862629	796.5
657.709956714938	801.5
660.438731568556	803.25
663.166611421075	809
665.893596868511	804.25
668.619688505609	803.75
671.344886925857	796.25
674.06919272149	806.5
676.792606483454	812.75
679.515128801468	810
682.236760263971	808
684.95750145819	809.5
687.677352970088	817.5
690.396315384383	802.25
693.114389284579	808.75
695.831575252931	804.25
698.547873870488	805.5
701.26328571705	809
703.977811371216	813.25
706.691451410374	821.75
709.404206410691	807.25
712.116076947135	812.5
714.827063593468	809.25
717.537166922259	813.5
720.246387504871	815
722.954725911495	810.25
725.662182711119	808.25
728.368758471555	808.5
731.074453759451	817.75
733.779269140254	808.25
736.483205178258	820.5
739.186262436579	817.25
741.888441477189	811.25
744.589742860895	818.75
747.290167147334	820.75
749.989714895015	822
752.688386661259	813.25
755.386183002312	819.75
758.083104473222	816.25
760.779151627929	831.5
763.474325019226	848.25
766.168625198792	824.5
768.86205271717	827.25
771.554608123806	831.5
774.246291966996	848
776.937104793953	834.25
779.627047150767	839.25
782.316119582421	831.75
785.004322632802	838.5
787.691656844701	829
790.378122759819	841.75
793.063720918755	842.5
795.74845186104	859.75
798.432316125098	861.5
801.115314248287	914.75
803.797446766894	981.25
806.478714216137	1087.25
809.159117130155	1222.75
811.838656042029	1176.5
814.517331483774	1060.25
817.19514398637	943.5
819.872094079703	897
822.548182292652	884.75
825.223409153026	882.5
827.897775187597	871
830.571280922097	892.75
833.243926881234	909
835.915713588667	917.5
838.586641567043	952.75
841.256711337974	984.25
843.925923422052	959.25
846.594278338864	937.25
849.261776606963	901.5
851.928418743908	878.25
854.594205266247	873.25
857.259136689525	854.75
859.923213528287	868.75
862.586436296082	865.25
865.24880550546	862
867.910321667994	866.75
870.570985294264	855.5
873.230796893869	854.5
875.88975697543	854.75
878.5478660466	851.5
881.205124614036	856
883.861533183448	872.5
886.517092259586	852.75
889.171802346213	857
891.825663946165	867.75
894.478677561296	856.25
897.130843692517	867.5
899.782162839801	872.25
902.432635502166	873.75
905.082262177682	879.75
907.73104336351	863.25
910.378979555833	876.75
913.026071249948	879.25
915.672318940189	869.5
918.317723119977	891.75
920.96228428181	877.75
923.606002917288	877.5
926.248879517054	883.75
928.890914570882	884
931.532108567604	876.5
934.172461995178	888.25
936.811975340628	909.5
939.450649090111	910.25
942.088483728854	929.5
944.725479741231	917.25
947.361637610698	904.75
949.996957819825	917.75
952.63144085032	911
955.26508718299	907.75
957.897897297789	898.75
960.529871673774	917.75
963.161010789143	919.75
965.791315121223	958.5
968.420785146496	984.5
971.049421340547	1046.25
973.677224178144	1098.25
976.304194133165	1070.75
978.930331678668	1007
981.555637286841	959.25
984.180111429039	948
986.803754575769	937.25
989.426567196693	929
992.048549760653	942
994.669702735642	937
997.290026588849	962.5
999.909521786598	959.75
1002.52818879443	955.5
1005.14602807703	948
1007.76304009828	943.75
1010.37922532126	943.5
1012.99458420824	925.5
1015.60911722064	938.75
1018.22282481911	930.5
1020.8357074635	939
1023.44776561284	944.75
1026.05899972539	956.25
1028.66941025859	966.75
1031.27899766911	966.5
1033.8877624128	995.5
1036.49570494477	998
1039.1028257193	998.5
1041.70912518995	1008.75
1044.31460380945	1003.5
1046.91926202978	992
1049.52310030213	993.25
1052.12611907697	969.5
1054.72831880395	975.75
1057.329699932	972
1059.93026290926	981.75
1062.53000818313	981.5
1065.12893620026	978.25
1067.72704740654	975.25
1070.32434224711	986.5
1072.92082116639	976.5
1075.51648460802	992.25
1078.11133301493	984.25
1080.70536682931	985.25
1083.29858649259	1007.25
1085.89099244551	988.5
1088.48258512806	998.25
1091.07336497949	992
1093.66333243836	1014
1096.2524879425	1014
1098.84083192899	1016
1101.42836483425	1027.25
1104.01508709395	1036.25
1106.60099914306	1039.25
1109.18610141586	1032.5
1111.77039434588	1038.5
1114.35387836603	1019.25
1116.93655390844	1042
1119.51842140458	1048
1122.09948128525	1054.25
1124.67973398051	1064.5
1127.25917991977	1077
1129.83781953174	1073.5
1132.41565324445	1073.5
1134.99268148526	1083.5
1137.56890468084	1095
1140.14432325718	1101.5
1142.71893763963	1123.75
1145.29274825285	1149
1147.86575552081	1180
1150.43795986686	1204.75
1153.00936171367	1245.25
1155.57996148323	1243.75
1158.14975959691	1244.75
1160.7187564754	1253
1163.28695253876	1284.5
1165.85434820638	1318.5
1168.42094389704	1368.75
1170.98674002881	1365
1173.55173701918	1293.25
1176.11593528499	1249.75
1178.67933524243	1192.75
1181.24193730705	1189
1183.8037418938	1177.75
1186.36474941697	1180.75
1188.92496029025	1165
1191.48437492668	1172.25
1194.0429937387	1190.25
1196.60081713811	1203.75
1199.15784553612	1192.25
1201.71407934332	1195.5
1204.26951896966	1217.25
1206.82416482453	1208.75
1209.37801731668	1252.5
1211.93107685425	1249
1214.4833438448	1267
1217.03481869529	1294.25
1219.58550181206	1325.25
1222.13539360089	1314.5
1224.68449446692	1316
1227.23280481476	1289.25
1229.78032504839	1290
1232.32705557121	1298.25
1234.87299678605	1310
1237.41814909516	1314.25
1239.96251290019	1331
1242.50608860226	1343.25
1245.04887660185	1356.25
1247.59087729894	1356.5
1250.13209109286	1387.5
1252.67251838247	1416.5
1255.21215956601	1440.25
1257.75101504113	1453.25
1260.28908520499	1432.75
1262.82637045415	1439.25
1265.36287118461	1439.5
1267.89858779184	1471.5
1270.43352067075	1477.25
1272.96767021569	1463.75
1275.5010368205	1471.75
1278.03362087842	1514.25
1280.56542278221	1515
1283.09644292403	1531
1285.62668169556	1541.75
1288.1561394879	1561.5
1290.68481669165	1553.25
1293.21271369685	1584.25
1295.73983089304	1602.75
1298.2661686692	1605.75
1300.79172741383	1654.75
1303.31650751487	1663
1305.84050935976	1684.75
1308.36373333541	1694.75
1310.88617982822	1694.5
1313.4078492241	1717.75
1315.92874190839	1707.75
1318.44885826599	1752
1320.96819868124	1753.75
1323.48676353801	1813.5
1326.00455321965	1881.25
1328.521568109	1929.75
1331.03780858842	1969.5
1333.55327503978	1951.5
1336.06796784442	1901.75
1338.58188738323	1949
1341.09503403658	1938.25
1343.60740818437	1949.5
1346.11901020598	1954.75
1348.62984048037	1973
1351.13989938596	2014.75
1353.6491873007	2033.25
1356.15770460209	2079.5
1358.66545166712	2133.25
1361.17242887233	2160.5
1363.67863659378	2133.75
1366.18407520705	2156
1368.68874508726	2156.25
1371.19264660907	2167.75
1373.69578014668	2172
1376.19814607381	2194
1378.69974476373	2217
1381.20057658924	2249
1383.7006419227	2267
1386.19994113603	2256.25
1388.69847460065	2238.5
1391.19624268756	2260.25
1393.69324576732	2291.25
1396.18948421004	2328
1398.68495838535	2327.5
1401.17966866248	2341.75
1403.6736154102	2374.5
1406.16679899686	2435.25
1408.65921979033	2429.25
1411.1508781581	2432.5
1413.64177446718	2460
1416.13190908416	2493.25
1418.62128237524	2516
1421.10989470614	2567.75
1423.59774644217	2572.75
1426.08483794823	2605.25
1428.57116958879	2651
1431.05674172789	2697.75
1433.54155472916	2757.25
1436.02560895582	2816.75
1438.50890477068	2842.75
1440.99144253608	2867.75
1443.47322261404	2867.75
1445.9542453661	2919.25
1448.43451115342	2952.75
1450.91402033676	3020.25
1453.39277327646	3087.5
1455.87077033246	3150.5
1458.34801186431	3255.5
1460.82449823115	3264
1463.30022979173	3264
1465.77520690441	3209.5
1468.24942992714	3206.75
1470.72289921748	3195.25
1473.19561513262	3178
1475.66757802934	3161.75
1478.13878826404	3232
1480.60924619276	3221.25
1483.0789521711	3250.25
1485.54790655434	3247.25
1488.01610969734	3265.5
1490.48356195459	3289.75
1492.95026368022	3310.75
1495.41621522796	3369.75
1497.88141695119	3359.75
1500.3458692029	3383.5
1502.80957233573	3388.75
1505.27252670192	3447
1507.7347326534	3418.75
1510.19619054165	3478.75
1512.65690071788	3497.5
1515.11686353289	3546.5
1517.5760793371	3535.5
1520.0345484806	3586.25
1522.49227131314	3603
1524.94924818408	3606
1527.40547944245	3683
1529.86096543691	3647.75
1532.31570651578	3706.5
1534.76970302704	3728.5
1537.2229553183	3759
1539.67546373685	3767
1542.1272286296	3756.75
1544.57825034318	3784.25
1547.0285292238	3803.5
1549.4780656174	3898
1551.92685986953	3888.75
1554.37491232545	3899.25
1556.82222333005	3942
1559.26879322789	3971
1561.71462236323	4092
1564.15971107996	4016.75
1566.60405972167	4077
1569.0476686316	4078.25
1571.49053815268	4124.75
1573.93266862751	4107.75
1576.37406039838	4192.75
1578.81471380725	4180.25
1581.25462919573	4219.75
1583.69380690517	4225.5
1586.13224727656	4310
1588.56995065059	4262
1591.00691736765	4308.25
1593.44314776777	4332
1595.87864219074	4327.25
1598.31340097597	4384.25
1600.74742446261	4410.75
1603.18071298948	4386.75
1605.61326689511	4371.75
1608.04508651771	4412
1610.47617219521	4387.75
1612.90652426521	4460.25
1615.33614306503	4443
1617.7650289317	4490.25
1620.19318220193	4448
1622.62060321214	4470.5
1625.04729229848	4468
1627.47324979677	4519.75
1629.89847604256	4470.75
1632.32297137112	4551
1634.74673611742	4503
1637.16977061614	4491.5
1639.59207520166	4561.25
1642.01365020812	4551.75
1644.43449596933	4600.5
1646.85461281884	4639
1649.27400108993	4633.5
1651.69266111558	4615.75
1654.11059322849	4667.25
1656.52779776111	4671.25
1658.9442750456	4706.75
1661.36002541383	4700.5
1663.77504919742	4752.75
1666.18934672772	4768
1668.60291833579	4809.25
1671.01576435243	4813.75
1673.42788510819	4810.75
1675.83928093333	4891
1678.24995215785	4915.75
1680.65989911149	4937
1683.06912212375	4940.75
1685.47762152383	5030
1687.88539764068	4951.5
1690.29245080301	4984.25
1692.69878133927	5058
1695.10438957763	5106.5
1697.50927584602	5079.5
1699.91344047213	5133.5
1702.31688378338	5127
1704.71960610694	5128
1707.12160776972	5134.5
1709.52288909843	5110.75
1711.92345041946	5180.75
1714.32329205902	5216
1716.72241434301	5209
1719.12081759716	5230
1721.51850214689	5185.75
1723.91546831742	5237.5
1726.31171643371	5250.25
1728.70724682049	5258.25
1731.10205980225	5260.5
1733.49615570323	5299
1735.88953484746	5289.5
1738.28219755871	5351.5
1740.67414416053	5287.5
1743.06537497623	5348.25
1745.4558903289	5399
1747.84569054139	5384.25
1750.23477593633	5389
1752.6231468361	5426.75
1755.01080356288	5486.5
1757.3977464386	5421.5
1759.783975785	5419.5
1762.16949192355	5503.5
1764.55429517554	5520
1766.93838586201	5529.5
1769.32176430379	5608.75
1771.70443082149	5544.25
1774.08638573552	5592.5
1776.46762936603	5603
1778.84816203299	5658.75
1781.22798405614	5630.5
1783.60709575502	5660.75
1785.98549744894	5707.75
1788.363189457	5723.75
1790.74017209811	5741.25
1793.11644569094	5782
1795.49201055396	5776.75
1797.86686700545	5840.75
1800.24101536348	5780.5
1802.61445594588	5872.5
1804.98718907032	5867.75
1807.35921505424	5851
1809.73053421488	5814.75
1812.10114686928	5968
1814.47105333431	5890.5
1816.84025392657	5985
1819.20874896252	5896.25
1821.57653875842	5916.75
1823.9436236303	5903
1826.31000389401	5879.25
1828.67567986522	5859
1831.0406518594	5926
1833.40492019179	5987
1835.7684851775	5936.75
1838.1313471314	5928
1840.49350636819	5940.25
1842.85496320238	5960.75
1845.21571794829	6027.75
1847.57577092004	5999.75
1849.9351224316	6026.5
1852.29377279671	6046.5
1854.65172232894	6080
1857.00897134171	5996.75
1859.36552014821	6068.5
1861.72136906146	6092.5
1864.07651839433	6064.75
1866.43096845946	6043.75
1868.78471956935	6046.5
1871.13777203631	6085.75
1873.49012617247	6167.75
1875.84178228977	6123.75
1878.19274070001	6159.25
1880.54300171478	6194.25
1882.89256564551	6254
1885.24143280346	6258.5
1887.58960349972	6347
1889.93707804519	6320.5
1892.28385675061	6368
1894.62993992657	6312.75
1896.97532788346	6352
1899.32002093153	6388.25
1901.66401938082	6367.5
1904.00732354126	6457.75
1906.34993372257	6462.25
1908.69185023433	6550.75
1911.03307338592	6518.5
1913.37360348663	6515.25
1915.7134408455	6581
1918.05258577147	6528.25
1920.3910385733	6537
1922.72879955958	6571.75
1925.06586903876	6568.5
1927.4022473191	6613.25
1929.73793470875	6638.5
1932.07293151565	6656.25
1934.40723804763	6608.5
1936.74085461234	6549
1939.07378151727	6616
1941.40601906977	6628.75
1943.73756757704	6658.25
1946.06842734612	6593
1948.39859868389	6651.25
1950.7280818971	6560
1953.05687729233	6632.75
1955.38498517601	6621.5
1957.71240585444	6608.75
1960.03913963377	6602.75
1962.36518681997	6634.5
1964.69054771891	6654.75
1967.01522263627	6637
1969.33921187762	6674.25
1971.66251574837	6678.5
1973.98513455379	6686.5
1976.30706859901	6722
1978.62831818899	6801.5
1980.94888362858	6679.75
1983.2687652225	6735.25
1985.58796327528	6738
1987.90647809136	6767.25
1990.224309975	6788.25
1992.54145923038	6771.25
1994.85792616145	6799
1997.17371107212	6776.25
1999.4888142661	6845.75
2001.80323604699	6843.25
2004.11697671825	6860.75
2006.4300365832	6859.25
2008.74241594504	6915.5
2011.05411510683	6913.25
2013.36513437149	6903
2015.6754740418	6944
2017.98513442044	6961
2020.29411580994	6995.25
2022.60241851269	6991.75
2024.91004283098	6962.25
2027.21698906692	7051.75
2029.52325752256	7065.25
2031.82884849977	7099
2034.1337623003	7060
2036.4379992258	7023.75
2038.74155957777	7052.25
2041.04444365759	7078.75
2043.34665176652	7085.5
2045.64818420569	7118.25
2047.9490412761	7109.75
2050.24922327865	7096.75
2052.54873051409	7065
2054.84756328307	7096
2057.14572188611	7085.75
2059.44320662359	7096.75
2061.74001779581	7042
2064.03615570292	7095
2066.33162064497	7103.25
2068.62641292185	7104
2070.9205328334	7074.5
2073.21398067927	7076.75
2075.50675675905	7097.25
2077.79886137218	6992.5
2080.090294818	7080
2082.38105739572	7067
2084.67114940445	7038.25
2086.96057114319	7078.25
2089.24932291079	7117
2091.53740500603	7017.75
2093.82481772755	6997.75
2096.11156137388	6984
2098.39763624345	6994.25
2100.68304263458	7003.75
2102.96778084545	7001.75
2105.25185117417	7020.75
2107.5352539187	7017.75
2109.81798937692	6989.25
2112.1000578466	7012.75
2114.38145962537	7071
2116.66219501079	7017.5
2118.94226430028	6979.25
2121.22166779118	6916.5
2123.50040578071	7013.25
2125.77847856598	6987
2128.05588644399	7004
2130.33262971165	6927
2132.60870866575	7009
2134.88412360298	6979.75
2137.15887481995	7010.25
2139.43296261311	7002.5
2141.70638727887	6951.75
2143.97914911348	6990.75
2146.25124841312	6963.75
2148.52268547387	6932
2150.79346059169	6913
2153.06357406245	6984
2155.33302618192	7000
2157.60181724576	6899.25
2159.86994754953	6906.5
2162.1374173887	6923.25
2164.40422705864	6813.25
2166.6703768546	6768
2168.93586707177	6843.25
2171.20069800519	6806.75
2173.46486994985	6753.5
2175.72838320061	6716.25
2177.99123805226	6743.25
2180.25343479946	6747.5
2182.5149737368	6681.5
2184.77585515876	6646.5
2187.03607935974	6650.25
2189.295646634	6662
2191.55455727578	6610.5
2193.81281157915	6572.5
2196.07040983813	6535.25
2198.32735234663	6565
2200.58363939848	6512
2202.83927128737	6473
2205.09424830697	6475
2207.34857075081	6421.5
2209.60223891231	6398.25
2211.85525308485	6406.5
2214.10761356169	6411
2216.35932063598	6388.5
2218.61037460082	6360.75
2220.86077574918	6273.75
2223.11052437395	6387.5
2225.35962076795	6327.5
2227.60806522389	6310.25
2229.85585803439	6280.5
2232.10299949198	6168
2234.34948988911	6227
2236.59532951813	6232
2238.84051867131	6173.5
2241.08505764082	6249
2243.32894671876	6205
2245.57218619713	6172.25
2247.81477636783	6166.75
2250.05671752269	6133.5
2252.29800995345	6128
2254.53865395175	6112.5
2256.77864980916	6054.5
2259.01799781714	6078.75
2261.2566982671	6046.5
2263.49475145035	5986.25
2265.73215765808	6037.5
2267.96891718143	5994.5
2270.20503031145	5986.25
2272.44049733909	5982
2274.67531855524	5947.75
2276.90949425067	5907.5
2279.1430247161	5957.25
2281.37591024214	5903.75
2283.60815111933	5892.75
2285.83974763813	5884.25
2288.07070008888	5859.75
2290.30100876189	5870.75
2292.53067394735	5811.75
2294.75969593537	5813.25
2296.98807501599	5831.5
2299.21581147916	5818.25
2301.44290561476	5733.5
2303.66935771254	5737.5
2305.89516806224	5679
2308.12033695344	5705.25
2310.34486467572	5723.75
2312.5687515185	5662.5
2314.79199777118	5611.75
2317.01460372303	5650
2319.23656966327	5634.25
2321.45789588102	5606.75
2323.67858266534	5547
2325.89863030519	5546.75
2328.11803908946	5518.75
2330.33680930694	5509.5
2332.55494124637	5453.75
2334.77243519638	5470.5
2336.98929144553	5454.5
2339.20551028232	5410.5
2341.42109199514	5407.5
2343.63603687231	5438.25
2345.85034520207	5343
2348.0640172726	5329.25
2350.27705337195	5341.5
2352.48945378815	5306.75
2354.70121880911	5342.75
2356.91234872269	5247.75
2359.12284381662	5236
2361.33270437861	5183.25
2363.54193069626	5186.75
2365.7505230571	5175.5
2367.95848174858	5146
2370.16580705805	5135.5
2372.37249927281	5102.5
2374.57855868008	5095.75
2376.78398556699	5042.25
2378.98878022058	5097.5
2381.19294292784	5045.5
2383.39647397565	5016.25
2385.59937365084	4985.75
2387.80164224015	4979
2390.00328003024	4943
2392.20428730769	4939
2394.40466435902	4960
2396.60441147062	4900.25
2398.80352892888	4932
2401.00201702004	4943
2403.19987603033	4889.75
2405.39710624582	4853.25
2407.59370795257	4859.5
2409.78968143654	4828.5
2411.9850269836	4801
2414.17974487957	4801.75
2416.37383541016	4798.25
2418.56729886102	4786.75
2420.76013551771	4684
2422.95234566575	4743.75
2425.14392959054	4727
2427.33488757741	4760.75
2429.52521991161	4721.25
2431.71492687834	4732
2433.90400876269	4678.25
2436.0924658497	4707
2438.2802984243	4664
2440.46750677137	4657
2442.6540911757	4648.5
2444.840051922	4618.75
2447.0253892949	4583.75
2449.21010357898	4651.75
2451.3941950587	4621
2453.57766401846	4592.75
2455.7605107426	4586.25
2457.94273551536	4513.75
2460.12433862091	4514.25
2462.30532034333	4505.75
2464.48568096665	4491.75
2466.66542077478	4453
2468.8445400516	4476.25
2471.02303908088	4449.25
2473.20091814631	4421
2475.37817753152	4403.25
2477.55481752005	4367.5
2479.73083839537	4406.75
2481.90624044087	4381.25
2484.08102393984	4393.25
2486.25518917552	4417
2488.42873643105	4347
2490.60166598952	4291.25
2492.77397813391	4357.5
2494.94567314713	4305.25
2497.11675131202	4294.75
2499.28721291133	4349.75
2501.45705822775	4326.5
2503.62628754386	4314.25
2505.7949011422	4311.75
2507.96289930518	4319
2510.13028231518	4276.25
2512.29705045447	4257
2514.46320400525	4226.75
2516.62874324964	4220.5
2518.79366846969	4218
2520.95797994734	4225.5
2523.12167796448	4244
2525.28476280291	4213.25
2527.44723474435	4229
2529.60909407043	4210.25
2531.77034106272	4189.5
2533.93097600269	4213
2536.09099917173	4203
2538.25041085116	4193
2540.40921132222	4126.5
2542.56740086606	4145
2544.72497976374	4138.75
2546.88194829626	4135.25
2549.03830674452	4131.75
2551.19405538936	4108.25
2553.34919451152	4087.75
2555.50372439165	4099
2557.65764531034	4079
2559.81095754807	4091.25
2561.96366138529	4075.25
2564.1157571023	4044.5
2566.26724497936	4024.25
2568.41812529664	4023.75
2570.56839833422	4027.25
2572.71806437208	4005.75
2574.86712369017	3983.25
2577.01557656829	3950
2579.16342328621	3984.25
2581.31066412358	3945.5
2583.45729936	3975.5
2585.60332927493	3980.25
2587.74875414781	3932.25
2589.89357425796	3946.75
2592.0377898846	3919.25
2594.18140130691	3940.5
2596.32440880395	3962.5
2598.4668126547	3949.75
2600.60861313806	3951.25
2602.74981053284	3928
2604.89040511778	3952
2607.0303971715	3923.75
2609.16978697256	3938.25
2611.30857479943	3936.5
2613.44676093048	3914.5
2615.584345644	3918.5
2617.72132921821	3955
2619.8577119312	3917.75
2621.99349406102	3886.75
2624.1286758856	3932.25
2626.2632576828	3939.25
2628.39723973037	3928.25
2630.53062230598	3907.75
2632.66340568723	3939.75
2634.7955901516	3978.5
2636.92717597651	3959.5
2639.05816343927	3919.75
2641.18855281709	3962.5
2643.31834438712	3931.75
2645.44753842641	3958.5
2647.5761352119	3934.75
2649.70413502044	3941.25
2651.83153812884	3960.25
2653.95834481374	3978.75
2656.08455535174	3916.25
2658.21017001934	3952.75
2660.33518909294	3975.5
2662.45961284885	3987.5
2664.58344156328	3959
2666.70667551235	4002.5
2668.82931497211	3935.25
2670.95136021848	3939.75
2673.0728115273	3938.5
2675.19366917432	3989
2677.31393343519	3948.5
2679.43360458548	3935
2681.55268290064	3983.75
2683.67116865603	3962.5
2685.78906212694	3984.5
2687.90636358854	3904.5
2690.02307331589	3992.75
2692.13919158398	3960.75
2694.2547186677	4001.25
2696.36965484184	3967
2698.48400038108	3997.75
2700.59775556002	3987.25
2702.71092065314	3967.5
2704.82349593485	3992
2706.93548167942	3993.75
2709.04687816108	4010
2711.1576856539	4001
2713.26790443188	4019
2715.37753476892	4047.5
2717.48657693883	4070
2719.59503121528	4069.75
2721.70289787187	4097.75
2723.8101771821	4104.5
2725.91686941936	4086
2728.02297485693	4073.5
2730.128493768	4061.75
2732.23342642565	4055
2734.33777310285	4047
2736.4415340725	4076
2738.54470960735	4067.5
2740.64729998007	4103.5
2742.74930546322	4022.25
2744.85072632927	4062.25
2746.95156285056	4058
2749.05181529934	4070.5
2751.15148394775	4078.25
2753.25056906782	4115
2755.34907093148	4072.75
2757.44698981056	4140.75
2759.54432597675	4113
2761.64107970166	4083.5
2763.7372512568	4058.5
2765.83284091354	4097.5
2767.92784894316	4088.75
2770.02227561683	4097.5
2772.11612120562	4151.75
2774.20938598047	4177
2776.3020702122	4082.25
2778.39417417156	4160.5
2780.48569812916	4151
2782.57664235549	4181
2784.66700712095	4172.25
2786.75679269582	4211.5
2788.84599935027	4206.25
2790.93462735434	4167.25
2793.02267697797	4179.75
2795.11014849098	4165
2797.19704216309	4186
2799.28335826389	4233.5
2801.36909706286	4187.5
2803.45425882935	4208.75
2805.53884383263	4262
2807.6228523418	4220.5
2809.7062846259	4279.25
2811.78914095381	4292
2813.87142159431	4329.25
2815.95312681606	4306.75
2818.0342568876	4392.25
2820.11481207734	4370.75
2822.19479265359	4364.75
2824.27419888454	4387.5
2826.35303103823	4413.25
2828.43128938261	4476.75
2830.5089741855	4526.75
2832.58608571459	4642
2834.66262423745	4785
2836.73859002154	4864.5
2838.81398333418	5065.5
2840.88880444257	5075.5
2842.96305361381	5001.5
2845.03673111483	4927
2847.10983721247	4832.75
2849.18237217344	4744.5
2851.2543362643	4721.5
2853.32572975152	4686.5
2855.39655290143	4715.25
2857.46680598021	4769
2859.53648925393	4855
2861.60560298855	5003
2863.67414744986	5266.25
2865.74212290356	5412
2867.80952961519	5588.25
2869.87636785019	5575
2871.94263787384	5544.5
2874.00833995131	5563.75
2876.07347434762	5663.25
2878.13804132768	5763
2880.20204115624	5954.75
2882.26547409795	6071
2884.32834041729	6085
2886.39064037865	6025.25
2888.45237424623	5913
2890.51354228415	5783.25
2892.57414475635	5679
2894.63418192667	5615.75
2896.69365405878	5659.5
2898.75256141625	5642.25
2900.81090426247	5677.5
2902.86868286072	5767.75
2904.92589747415	5817.75
2906.98254836574	5943.25
2909.03863579836	5753.5
2911.09416003471	5728.25
2913.14912133738	5632.5
2915.20351996879	5561.75
2917.25735619126	5553.25
2919.31063026691	5579.75
2921.36334245776	5577.5
2923.41549302568	5625.25
2925.46708223239	5592.75
2927.51811033945	5615.75
2929.56857760831	5552
2931.61848430026	5394.5
2933.66783067643	5290
2935.71661699781	5233.25
2937.76484352525	5197.5
2939.81251051946	5215.25
2941.85961824097	5177.5
2943.90616695021	5218.5
2945.95215690742	5323.75
2947.9975883727	5479
2950.04246160601	5645
2952.08677686716	5783.25
2954.13053441577	5820
2956.17373451138	5899.5
2958.21637741331	6060.75
2960.25846338077	6200.75
2962.29999267279	6248.75
2964.34096554826	6112.75
2966.3813822659	6003.5
2968.42124308432	5785.75
2970.46054826191	5671.75
2972.49929805694	5548.25
2974.53749272752	5387.75
2976.5751325316	5280
2978.61221772697	5243.75
2980.64874857127	5162.5
2982.68472532196	5136.25
2984.72014823637	5122.25
2986.75501757164	5089.25
2988.78933358476	5126.25
2990.82309653258	5116.75
2992.85630667175	5124.75
2994.88896425879	5104.5
2996.92106955003	5155.75
2998.95262280165	5147
3000.98362426967	5131.75
3003.01407420993	5187.75
3005.04397287812	5159.75
3007.07332052976	5215.5
3009.1021174202	5186.5
3011.13036380461	5209.5
3013.15805993802	5190.25
3015.18520607526	5202.25
3017.21180247102	5242.25
3019.23784937979	5270.5
3021.26334705593	5238
3023.28829575358	5301.75
3025.31269572676	5292.5
3027.33654722926	5303.25
3029.35985051475	5327.75
3031.38260583668	5310.75
3033.40481344838	5277.25
3035.42647360296	5296
3037.44758655337	5341
3039.46815255237	5352.5
3041.48817185258	5347
3043.50764470642	5300.25
3045.5265713661	5251
3047.54495208372	5354.25
3049.56278711114	5328.5
3051.58007670007	5373
3053.59682110204	5393.25
3055.61302056838	5356.5
3057.62867535025	5356.75
3059.64378569864	5351
3061.65835186434	5382.25
3063.67237409796	5360.5
3065.68585264993	5315
3067.69878777049	5384.5
3069.71117970969	5374.75
3071.72302871742	5327.75
3073.73433504334	5359.5
3075.74509893695	5426.75
3077.75532064757	5375
3079.76500042431	5325.25
3081.7741385161	5355.25
3083.78273517168	5374.75
3085.7907906396	5386
3087.79830516821	5411.5
3089.80527900568	5400
3091.81171239998	5416.75
3093.81760559889	5445.25
3095.82295884999	5443.25
3097.82777240067	5408.5
3099.83204649813	5410
3101.83578138937	5399.75
3103.83897732117	5412.5
3105.84163454016	5429.5
3107.84375329272	5462.25
3109.84533382508	5463
3111.84637638322	5474
3113.84688121298	5437
3115.84684855994	5439.75
3117.84627866951	5484
3119.84517178689	5477
3121.84352815709	5537.25
3123.84134802489	5524.75
3125.83863163489	5562.75
3127.83537923148	5526
3129.83159105884	5553.75
3131.82726736092	5578.5
3133.82240838151	5637.25
3135.81701436417	5580
3137.81108555224	5702.5
3139.80462218887	5610.5
3141.79762451699	5625.25
3143.79009277931	5664.75
3145.78202721835	5673
3147.77342807641	5680
3149.76429559556	5689.5
3151.75463001769	5668.25
3153.74443158445	5662.75
3155.73370053727	5731.5
3157.7224371174	5669.75
3159.71064156584	5714.5
3161.69831412337	5678
3163.68545503058	5702.75
3165.67206452784	5691
3167.65814285526	5742.75
3169.64369025279	5707.5
3171.6287069601	5687.25
3173.61319321668	5745.75
3175.59714926179	5762.25
3177.58057533446	5696.75
3179.56347167348	5736.5
3181.54583851746	5724.25
3183.52767610475	5710.5
3185.50898467348	5713
3187.48976446156	5751
3189.47001570668	5740.75
3191.44973864628	5793.5
3193.42893351758	5759
3195.40760055759	5737.75
3197.38574000308	5746.25
3199.36335209055	5760.25
3201.34043705634	5758.75
3203.3169951365	5792.5
3205.29302656687	5789.25
3207.26853158306	5747.75
3209.24351042042	5783
3211.21796331411	5787.75
3213.19189049901	5804.25
3215.16529220979	5779.25
3217.13816868087	5753.25
3219.11052014642	5819.25
3221.08234684042	5815.75
3223.05364899654	5814
3225.02442684826	5835.75
3226.99468062882	5784.5
3228.96441057117	5840.25
3230.93361690808	5819
3232.90229987202	5788.75
3234.87045969526	5841
3236.8380966098	5865.75
3238.8052108474	5862.75
3240.77180263957	5888
3242.73787221758	5858
3244.70341981245	5866.5
3246.66844565494	5886.25
3248.63294997559	5891.75
3250.59693300464	5903.75
3252.56039497213	5863.5
3254.52333610782	5882.75
3256.48575664121	5952.25
3258.44765680157	5954.25
3260.40903681791	5909
3262.36989691896	5910.75
3264.33023733323	5861.5
3266.29005828896	5901
3268.24936001411	5921.75
3270.20814273642	5928.25
3272.16640668333	5878.75
3274.12415208206	5900.5
3276.08137915954	5899
3278.03808814245	5952.75
3279.99427925722	5969.25
3281.94995272998	5951.25
3283.90510878664	5951.5
3285.85974765282	5959.75
3287.81386955387	5992.5
3289.7674747149	5951
3291.72056336072	5946.25
3293.6731357159	5924.5
3295.62519200472	5943.5
3297.57673245121	5958.75
3299.52775727911	5917.75
3301.4782667119	5891.75
3303.4282609728	5901.25
3305.37774028472	5899.75
3307.32670487034	5960.5
3309.27515495204	5911.25
3311.22309075193	6026
3313.17051249184	5936.5
3315.11742039334	6016
3317.06381467769	5927.5
3319.00969556592	5940.25
3320.95506327872	5950
3322.89991803656	6009.25
3324.84426005959	5915.5
3326.78808956769	5945.5
3328.73140678046	5882.25
3330.67421191721	5868
3332.61650519696	5903
3334.55828683848	5906.25
3336.4995570602	5901
3338.44031608032	5869.25
3340.3805641167	5870.5
3342.32030138695	5860
3344.25952810837	5909.75
3346.19824449799	5897
3348.13645077251	5869
3350.07414714839	5893.5
3352.01133384175	5843
3353.94801106845	5884.25
3355.88417904405	5825.25
3357.8198379838	5808.5
3359.75498810266	5822.25
3361.6896296153	5869.5
3363.62376273609	5845.5
3365.5573876791	5810.75
3367.4905046581	5839
3369.42311388656	5805.5
3371.35521557765	5779.25
3373.28680994422	5834.25
3375.21789719888	5834
3377.14847755385	5839.75
3379.07855122109	5839.5
3381.00811841228	5850.75
3382.93717933874	5853.5
3384.86573421152	5843
3386.79378324134	5824.25
3388.72132663863	5752.5
3390.64836461351	5820.25
3392.57489737576	5835
3394.50092513489	5826.75
3396.42644810007	5799.75
3398.35146648018	5819.5
3400.27598048375	5753.75
3402.19999031902	5807.25
3404.12349619393	5877.5
3406.04649831607	5742.75
3407.96899689273	5799.75
3409.89099213087	5818.75
3411.81248423716	5760.5
3413.73347341792	5806.25
3415.65395987914	5801.75
3417.57394382654	5729.5
3419.49342546547	5807.75
3421.41240500097	5777.25
3423.33088263775	5742.5
3425.24885858022	5729.75
3427.16633303244	5697.5
3429.08330619813	5742.25
3430.99977828072	5729.25
3432.91574948329	5706
3434.83122000859	5656.75
3436.74619005903	5644.25
3438.66065983671	5713.75
3440.57462954339	5644.75
3442.4880993805	5629.75
3444.40106954912	5686.25
3446.31354025	5559.5
3448.22551168358	5631.5
3450.13698404992	5608
3452.04795754877	5672
3453.95843237955	5603.75
3455.86840874132	5593.75
3457.7778868328	5569
3459.68686685238	5536
3461.5953489981	5580.5
3463.50333346766	5547.75
3465.41082045843	5530.25
3467.3178101674	5505.25
3469.22430279125	5533.25
3471.13029852629	5431
3473.0357975685	5479.75
3474.94080011349	5513.75
3476.84530635654	5492.75
3478.74931649257	5475.75
3480.65283071616	5447.75
3482.55584922151	5420.75
3484.45837220251	5482.25
3486.36039985266	5392.75
3488.26193236512	5426.25
3490.16296993268	5404.75
3492.0635127478	5362.5
3493.96356100256	5333.25
3495.86311488869	5354
3497.76217459756	5325
3499.66074032018	5364.75
