201.866871357051	1626.5
204.754250281454	1619.75
207.640596790938	1627.25
210.525911876299	1636.75
213.410196525689	1636.75
216.293451724508	1635
219.175678455485	1658
222.056877698662	1649.75
224.937050431388	1622.25
227.816197628363	1641
230.694320261602	1643
233.571419300504	1673
236.447495711764	1665
239.322550459507	1667.75
242.196584505182	1693.75
245.069598807626	1691.75
247.941594323078	1685.75
250.812572005154	1707
253.682532804884	1684.25
256.551477670699	1712.5
259.419407548456	1703
262.286323381439	1696.75
265.152226110364	1697.25
268.017116673389	1698.75
270.880996006115	1699.5
273.743865041622	1717
276.605724710436	1712.25
279.466575940562	1712.5
282.326419657496	1702.25
285.1852567842	1701.25
288.043088241157	1701.5
290.899914946349	1732.75
293.75573781526	1728.5
296.610557760898	1731.75
299.464375693817	1758
302.317192522078	1727.25
305.169009151297	1760
308.019826484655	1739.5
310.86964542287	1747.25
313.718466864233	1727.5
316.566291704614	1751.75
319.413120837457	1744.75
322.258955153804	1744
325.103795542291	1726.75
327.947642889128	1748.75
330.79049807819	1727.5
333.632361990927	1731
336.473235506444	1756.25
339.31311950145	1754
342.152014850322	1744.75
344.989922425062	1776.75
347.826843095354	1774.25
350.662777728528	1794.25
353.497727189577	1779.75
356.331692341195	1781
359.164674043732	1805.25
361.996673155267	1790.25
364.827690531536	1824.75
367.65772702602	1803
370.486783489887	1809.5
373.314860772047	1827
376.14195971912	1797.75
378.968081175466	1836.5
381.793225983212	1818
384.617394982201	1832.5
387.44058901005	1836.75
390.262808902131	1843.25
393.08405549161	1864.25
395.904329609395	1876.25
398.723632084213	1883.75
401.541963742569	1882.5
404.359325408779	1868.25
407.175717904938	1873.75
409.991142050982	1863
412.805598664665	1853.75
415.619088561551	1873.75
418.43161255505	1868.5
421.243171456415	1845.75
424.053766074758	1869
426.863397217017	1886.5
429.672065688024	1866.5
432.479772290455	1900.75
435.286517824879	1878.5
438.092303089736	1895.25
440.897128881359	1870.5
443.70099599399	1907
446.503905219761	1909.5
449.305857348711	1922.75
452.106853168796	1908.75
454.906893465919	1931.5
457.705979023885	1918.5
460.504110624439	1902.75
463.3012890473	1911.75
466.097515070087	1887.25
468.892789468424	1894.75
471.687113015869	1915.25
474.48048648395	1901.5
477.272910642198	1879.25
480.064386258109	1901.25
482.854914097159	1927.5
485.644494922839	1886.75
488.433129496636	1921.5
491.220818578047	1918.25
494.007562924584	1924
496.793363291785	1905.75
499.578220433217	1906.5
502.362135100473	1930.5
505.145108043209	1924
507.927140009098	1940.25
510.708231743909	1965
513.488383991433	1968.75
516.267597493556	1955.75
519.04587299022	1974.5
521.82321121946	1967.75
524.599612917398	1968.5
527.375078818233	1963.5
530.149609654287	1972.75
532.923206155967	1974.5
535.695869051804	1964.5
538.467599068448	1963.25
541.238396930665	1950.75
544.008263361364	1950.25
546.777199081578	1955.75
549.545204810493	1975.5
552.312281265436	1936.75
555.078429161898	1955.75
557.843649213533	1981.25
560.607942132156	1985
563.371308627753	1987.5
566.133749408495	1976
568.895265180756	2002.75
571.655856649064	1993.75
574.415524516189	2010.75
577.174269483075	1987.75
579.932092248884	2025.5
582.688993510994	1991.5
585.444973965023	1984.25
588.200034304795	2005.25
590.95417522237	2022.25
593.70739740807	2006.5
596.459701550433	2020
599.21108833628	1994.5
601.961558450668	2002.25
604.711112576933	2010
607.459751396673	1992.25
610.207475589748	1999.5
612.954285834338	2023.5
615.700182806879	2007.5
618.445167182101	1995.25
621.189239633055	1991.75
623.932400831087	1994.75
626.674651445839	2003.75
629.415992145303	1985.5
632.156423595745	2003.75
634.895946461813	1991
637.634561406449	2007.5
640.37226909096	2011
643.109070174978	1991.75
645.844965316508	2011.5
648.579955171888	2000.5
651.314040395846	2012.25
654.047221641456	2054
656.779499560176	2022.75
659.510874801828	2052.5
662.241348014642	2036
664.97091984524	2053.75
667.699590938606	2042
670.427361938164	2029.25
673.15423348573	2032.5
675.880206221526	2067
678.605280784206	2061
681.329457810829	2074.5
684.05273793692	2039.5
686.775121796389	2045.25
689.49661002163	2072
692.217203243454	2067.75
694.936902091144	2039.5
697.655707192425	2039.5
700.373619173493	2033
703.09063865901	2042.5
705.806766272093	2021.5
708.522002634378	2055
711.236348365946	2050.75
713.94980408538	2031
716.662370409762	2046.5
719.374047954676	2036
722.08483733419	2035
724.794739160909	2029.5
727.503754045949	2042.5
730.21188259892	2060.25
732.919125427998	2058.75
735.625483139855	2071
738.330956339723	2055.25
741.035545631374	2065.5
743.739251617106	2106.25
746.44207489779	2086
749.144016072852	2109.25
751.845075740272	2079.75
754.545254496603	2097.25
757.244552936976	2097
759.94297165508	2099.75
762.640511243222	2092
765.337172292249	2110.5
768.032955391649	2092.25
770.727861129482	2087.25
773.421890092413	2104
776.11504286572	2094.5
778.807320033298	2094.25
781.49872217765	2099
784.18924987991	2093.5
786.87890371984	2079
789.567684275826	2105.25
792.255592124908	2119.75
794.94262784276	2090.25
797.628792003703	2120.25
800.314085180715	2135.25
802.998507945427	2176.75
805.682060868145	2266
808.364744517821	2304.75
811.046559462105	2269
813.727506267311	2241.5
816.407585498422	2154.25
819.08679771913	2147.5
821.765143491822	2132.5
824.442623377563	2159.5
827.119237936127	2136.75
829.794987726003	2141.25
832.469873304377	2152.25
835.143895227167	2176.25
837.817054048985	2160.5
840.489350323205	2186.75
843.160784601892	2185
845.831357435894	2153
848.501069374739	2176.5
851.169920966753	2126
853.837912758987	2163.75
856.505045297232	2157.75
859.171319126071	2143
861.836734788823	2133
864.501292827579	2155.75
867.164993783208	2136.25
869.827838195361	2147
872.489826602454	2138.25
875.150959541701	2154.5
877.811237549104	2133
880.470661159456	2136.5
883.129230906357	2129.25
885.786947322205	2116.75
888.443810938206	2122.5
891.099822284385	2127.25
893.754981889586	2116.5
896.409290281452	2138.25
899.062747986485	2143.75
901.715355529999	2153.25
904.367113436154	2137.5
907.01802222793	2139.75
909.668082427172	2150.25
912.317294554574	2165
914.965659129659	2162
917.613176670835	2176.75
920.259847695364	2162.5
922.90567271936	2159.75
925.550652257825	2157.25
928.194786824621	2153.75
930.838076932512	2166
933.480523093109	2151
936.122125816953	2172.75
938.762885613447	2159.75
941.402802990899	2184.25
944.041878456523	2196.25
946.680112516428	2183.75
949.31750567563	2186.25
951.954058438081	2218.75
954.589771306633	2203.25
957.224644783048	2210.25
959.858679368044	2212
962.491875561238	2212.75
965.12423386121	2216.5
967.75575476545	2254.25
970.386438770423	2299.5
973.016286371501	2299.5
975.645298063046	2270.75
978.273474338355	2226.5
980.900815689674	2227
983.527322608243	2174
986.152995584245	2194
988.777835106834	2206.75
991.401841664148	2195.25
994.025015743307	2210.25
996.647357830407	2202.75
999.268868410534	2221.5
1001.88954796777	2205.75
1004.50939698518	2226.25
1007.12841594484	2250.25
1009.74660532783	2208.5
1012.36396561423	2224.5
1014.98049728314	2199.25
1017.59620081267	2223.25
1020.21107667995	2226.25
1022.82512536112	2241.75
1025.43834733138	2231.25
1028.05074306493	2260.25
1030.66231303501	2238.75
1033.27305771392	2244.75
1035.88297757299	2265.75
1038.49207308257	2271.75
1041.10034471211	2259.25
1043.70779293008	2267
1046.31441820402	2252.75
1048.92022100052	2239.25
1051.52520178525	2256.75
1054.12936102295	2245.5
1056.73269917742	2243
1059.33521671154	2275.5
1061.93691408729	2267.25
1064.53779176571	2277
1067.13785020694	2259.25
1069.73708987022	2256.25
1072.33551121386	2250.25
1074.93311469528	2216.5
1077.52990077103	2261
1080.12586989674	2240.25
1082.72102252714	2257.25
1085.31535911611	2252.5
1087.90888011663	2259.25
1090.50158598078	2248
1093.09347715979	2254
1095.68455410403	2262.5
1098.27481726296	2266.5
1100.86426708523	2267.75
1103.45290401857	2288.75
1106.04072850991	2277.25
1108.6277410053	2277.5
1111.21394194993	2274.25
1113.79933178816	2286.75
1116.3839109635	2305.75
1118.96767991862	2325.5
1121.55063909539	2273.25
1124.13278893477	2318
1126.71412987696	2310.5
1129.29466236132	2292
1131.87438682637	2313.25
1134.45330370982	2353.75
1137.03141344858	2344
1139.60871647872	2359.5
1142.18521323554	2339.75
1144.7609041535	2379
1147.33578966629	2384.5
1149.90987020676	2390
1152.48314620702	2387
1155.05561809835	2388.5
1157.62728631125	2400.75
1160.19815127545	2436.75
1162.76821341988	2453.75
1165.33747317271	2432.25
1167.90593096133	2465
1170.47358721235	2458
1173.04044235163	2405.25
1175.60649680425	2368.5
1178.17175099454	2354.25
1180.73620534607	2364.75
1183.29986028165	2350.5
1185.86271622336	2351
1188.42477359249	2359.75
1190.98603280964	2346.75
1193.54649429462	2356.25
1196.10615846653	2338.75
1198.66502574372	2339.75
1201.22309654385	2372.25
1203.78037128378	2359
1206.33685037971	2337.5
1208.89253424709	2338
1211.44742330063	2347.25
1214.00151795438	2365
1216.55481862163	2365.75
1219.10732571497	2383.25
1221.65903964631	2361.75
1224.20996082683	2379.5
1226.760089667	2352.75
1229.30942657664	2381.25
1231.85797196483	2376.25
1234.40572623998	2383.5
1236.95268980981	2393.75
1239.49886308136	2407.75
1242.04424646098	2417.75
1244.58884035435	2442
1247.13264516647	2443
1249.67566130166	2445.75
1252.21788916358	2465.5
1254.75932915524	2495
1257.29998167896	2493
1259.83984713639	2452.75
1262.37892592857	2475.25
1264.91721845586	2451.75
1267.45472511795	2475
1269.9914463139	2458
1272.52738244213	2470.5
1275.0625339004	2500.25
1277.59690108587	2463.25
1280.130484395	2521
1282.66328422367	2512.75
1285.19530096712	2479.25
1287.72653501993	2475.5
1290.25698677608	2506.5
1292.78665662894	2541.25
1295.31554497125	2493.25
1297.8436521951	2556
1300.37097869203	2561.5
1302.89752485292	2520.5
1305.42329106805	2518.75
1307.94827772713	2537.75
1310.47248521921	2514
1312.99591393279	2542.5
1315.51856425575	2574
1318.04043657536	2544.5
1320.56153127836	2542
1323.08184875083	2620.25
1325.6013893783	2613.25
1328.12015354572	2622.25
1330.63814163744	2618.5
1333.15535403727	2624.75
1335.67179112839	2622.5
1338.18745329347	2612
1340.70234091454	2632.25
1343.21645437314	2632
1345.72979405019	2639
1348.24236032607	2648.75
1350.75415358059	2677.25
1353.26517419303	2668.25
1355.7754225421	2705.25
1358.28489900594	2686.5
1360.79360396218	2699.25
1363.30153778787	2685.5
1365.80870085955	2673.25
1368.31509355319	2683.5
1370.82071624424	2670
1373.32556930762	2682.5
1375.8296531177	2690.75
1378.33296804832	2693.75
1380.83551447282	2688.25
1383.33729276399	2642.25
1385.83830329408	2709.25
1388.33854643489	2709
1390.83802255762	2715.75
1393.33673203301	2649
1395.83467523128	2691.25
1398.33185252211	2691
1400.82826427471	2699
1403.32391085777	2675.75
1405.81879263947	2679.25
1408.31290998752	2686.25
1410.80626326908	2662.25
1413.29885285087	2679.5
1415.79067909909	2662
1418.28174237944	2689.25
1420.77204305717	2682.75
1423.26158149702	2664.25
1425.75035806323	2674
1428.2383731196	2689.5
1430.72562702942	2698.75
1433.21212015554	2756.25
1435.69785286028	2744.5
1438.18282550555	2783.75
1440.66703845275	2796.75
1443.15049206284	2796.75
1445.6331866963	2822.5
1448.11512271316	2807
1450.59630047298	2846
1453.07672033486	2892.25
1455.55638265748	2866.25
1458.03528779902	2906.75
1460.51343611725	2902
1462.99082796946	2896.25
1465.46746371252	2883.75
1467.94334370285	2858.5
1470.41846829642	2827
1472.89283784878	2862.5
1475.36645271503	2871.25
1477.83931324983	2861.5
1480.31141980743	2833.5
1482.78277274164	2855.75
1485.25337240583	2818.5
1487.72321915297	2822.75
1490.19231333557	2840.25
1492.66065530578	2833
1495.12824541525	2847.75
1497.5950840153	2854.25
1500.06117145678	2822
1502.52650809014	2842.75
1504.99109426543	2838
1507.45493033227	2815.25
1509.91801663992	2835.25
1512.38035353717	2876
1514.84194137248	2890.25
1517.30278049386	2875.25
1519.76287124894	2880.75
1522.22221398497	2893.75
1524.68080904876	2890.25
1527.13865678681	2866.75
1529.59575754514	2918
1532.05211166945	2931
1534.50771950503	2922.75
1536.96258139678	2942.25
1539.41669768924	2910
1541.87006872656	2951.5
1544.32269485252	2934
1546.77457641051	2974.5
1549.22571374357	3003.5
1551.67610719434	2985.5
1554.12575710513	2967.25
1556.57466381785	2976.5
1559.02282767408	3018.5
1561.47024901499	3049.5
1563.91692818144	3063.5
1566.3628655139	3080.5
1568.80806135249	3057.25
1571.252516037	3077.5
1573.6962299068	3103.75
1576.13920330099	3119.25
1578.58143655828	3129.25
1581.02293001704	3155.75
1583.46368401528	3126.75
1585.90369889071	3172
1588.34297498065	3218.25
1590.7815126221	3282.75
1593.21931215173	3338.5
1595.65637390588	3334
1598.09269822053	3335.25
1600.52828543135	3355
1602.96313587367	3297.75
1605.3972498825	3243.75
1607.83062779252	3243
1610.26326993808	3222.75
1612.69517665322	3215
1615.12634827165	3212.75
1617.55678512676	3210.25
1619.98648755163	3152
1622.41545587902	3163.75
1624.84369044138	3164.5
1627.27119157085	3181
1629.69795959924	3194.5
1632.12399485808	3168.75
1634.54929767859	3186.75
1636.97386839165	3238.75
1639.39770732789	3197.25
1641.8208148176	3228
1644.24319119078	3183.5
1646.66483677715	3217.5
1649.0857519061	3230.25
1651.50593690677	3233.5
1653.92539210795	3268.25
1656.3441178382	3249.25
1658.76211442575	3262
1661.17938219855	3263.25
1663.59592148428	3321
1666.01173261032	3295.75
1668.42681590377	3333.5
1670.84117169145	3350.5
1673.25480029991	3322.5
1675.66770205541	3319.75
1678.07987728393	3371.5
1680.49132631119	3400.5
1682.90204946263	3407.5
1685.31204706342	3377.75
1687.72131943846	3411.5
1690.1298669124	3399.5
1692.53768980957	3432.75
1694.94478845411	3420.25
1697.35116316982	3433.25
1699.75681428031	3429.5
1702.16174210887	3407.25
1704.56594697858	3461.5
1706.96942921222	3482.25
1709.37218913235	3496.75
1711.77422706125	3489.25
1714.17554332098	3458.5
1716.5761382333	3478.75
1718.97601211977	3503.75
1721.37516530169	3484.25
1723.77359810006	3471.75
1726.17131083572	3491
1728.56830382922	3484.25
1730.96457740087	3488
1733.36013187075	3477
1735.75496755868	3466.75
1738.14908478428	3479
1740.54248386689	3503.75
1742.93516512565	3490.25
1745.32712887946	3536.25
1747.71837544697	3511.5
1750.10890514662	3550
1752.49871829661	3517.5
1754.88781521492	3527.25
1757.27619621929	3556.25
1759.66386162726	3539.25
1762.05081175612	3599.75
1764.43704692297	3604.5
1766.82256744465	3576.25
1769.20737363782	3593.75
1771.59146581887	3571.75
1773.97484430405	3591.25
1776.35750940932	3607.75
1778.73946145048	3651
1781.12070074309	3658.25
1783.50122760249	3707.75
1785.88104234385	3643.5
1788.26014528209	3690.5
1790.63853673196	3674
1793.01621700796	3705
1795.39318642443	3721.5
1797.76944529549	3711.25
1800.14499393503	3753.25
1802.51983265681	3737.25
1804.8939617743	3770.75
1807.26738160085	3790
1809.64009244957	3799.75
1812.01209463339	3762.75
1814.38338846504	3806
1816.75397425706	3794.75
1819.12385232181	3838.25
1821.49302297142	3805
1823.86148651789	3823.75
1826.22924327299	3783.25
1828.59629354831	3888
1830.96263765526	3800.5
1833.32827590507	3854.25
1835.69320860877	3854
1838.05743607724	3869.75
1840.42095862113	3856.5
1842.78377655097	3859.5
1845.14589017707	3875.25
1847.50729980956	3864.75
1849.86800575843	3884
1852.22800833346	3884
1854.58730784427	3889.5
1856.94590460032	3918.75
1859.30379891087	3940.25
1861.66099108503	3952.75
1864.01748143175	3982.25
1866.37327025978	3949.25
1868.72835787773	3957.25
1871.08274459403	4009.75
1873.43643071697	3965.75
1875.78941655464	4025
1878.14170241498	4013.75
1880.4932886058	4070.25
1882.84417543469	4097.25
1885.19436320915	4064.5
1887.54385223646	4104.5
1889.89264282378	4130.25
1892.24073527809	4115.25
1894.58812990625	4158
1896.93482701493	4184.25
1899.28082691067	4184.5
1901.62612989984	4255.5
1903.97073628868	4285.25
1906.31464638326	4266
1908.6578604895	4244
1911.00037891321	4300.5
1913.34220196	4326.5
1915.68332993537	4315.25
1918.02376314468	4322.25
1920.36350189311	4329
1922.70254648573	4381
1925.04089722744	4343.5
1927.37855442303	4342.75
1929.71551837715	4395
1932.05178939426	4359.5
1934.38736777876	4384
1936.72225383484	4356.75
1939.0564478666	4441.5
1941.38995017799	4391
1943.72276107283	4422.75
1946.05488085479	4419
1948.38630982744	4397.5
1950.71704829419	4459.25
1953.04709655832	4423.75
1955.376454923	4444.75
1957.70512369126	4405.75
1960.03310316599	4429.25
1962.36039364999	4394
1964.68699544589	4421.5
1967.01290885622	4483
1969.33813418338	4391.75
1971.66267172965	4513.25
1973.98652179718	4489.75
1976.309684688	4483.25
1978.63216070402	4521.75
1980.95395014705	4590
1983.27505331873	4498.25
1985.59547052063	4516.5
1987.9152020542	4546
1990.23424822074	4539.75
1992.55260932146	4580
1994.87028565746	4585.75
1997.18727752968	4582
1999.503585239	4597.5
2001.81920908618	4603
2004.13414937184	4617.75
2006.44840639651	4687.25
2008.7619804606	4677.25
2011.07487186442	4659.5
2013.38708090815	4744.5
2015.6986078919	4773.5
2018.00945311564	4758
2020.31961687923	4752
2022.62909948246	4766
2024.93790122498	4777.25
2027.24602240636	4822.75
2029.55346332604	4850.25
2031.86022428337	4785.25
2034.16630557761	4870
2036.47170750791	4886.75
2038.77643037331	4854.25
2041.08047447275	4861.5
2043.38384010509	4837.25
2045.68652756907	4886.25
2047.98853716335	4861
2050.28986918648	4879
2052.59052393692	4933.5
2054.89050171302	4944.75
2057.18980281306	4932.75
2059.4884275352	4926.5
2061.78637617753	4867.25
2064.08364903802	4917.75
2066.38024641457	4903.75
2068.67616860497	4961.25
2070.97141590694	4859.25
2073.26598861809	4902
2075.55988703595	4900.5
2077.85311145796	4901.75
2080.14566218145	4913.25
2082.43753950371	4937.5
2084.72874372188	4939
2087.01927513307	4874.5
2089.30913403428	4935.5
2091.59832072241	4875.5
2093.88683549429	4906.75
2096.17467864666	4967
2098.46185047619	4961.75
2100.74835127944	5009.5
2103.03418135292	4994.25
2105.31934099303	4935
2107.6038304961	4968.5
2109.88765015838	4956.75
2112.17080027602	4989.25
2114.45328114513	4999.25
2116.7350930617	4996.75
2119.01623632165	4977.5
2121.29671122085	4980.75
2123.57651805505	5028.75
2125.85565711996	5035
2128.13412871117	5014.25
2130.41193312424	5038.5
2132.68907065462	5018
2134.96554159771	5053
2137.24134624881	5035.5
2139.51648490317	5020.5
2141.79095785593	5086.5
2144.0647654022	5070.25
2146.33790783698	5043.5
2148.61038545524	5058.5
2150.88219855182	5081.75
2153.15334742154	5070.5
2155.42383235911	5083.25
2157.6936536592	5120.75
2159.9628116164	5035
2162.23130652522	5104.75
2164.49913868011	5091.75
2166.76630837544	5067
2169.03281590552	5079.5
2171.2986615646	5088.75
2173.56384564685	5098.25
2175.82836844637	5076
2178.0922302572	5070.25
2180.35543137332	5091
2182.61797208862	5066.75
2184.87985269695	5046.5
2187.14107349208	5046.5
2189.40163476773	5112.5
2191.66153681753	5097.75
2193.92077993507	5047.25
2196.17936441386	5040
2198.43729054735	5085.25
2200.69455862894	5052.5
2202.95116895194	5051.25
2205.20712180962	5072.25
2207.46241749519	5071
2209.71705630179	5069
2211.97103852248	5096.25
2214.2243644503	5013.75
2216.47703437819	5045.75
2218.72904859905	5011.75
2220.98040740571	5046
2223.23111109095	5021.25
2225.4811599475	5005.75
2227.73055426799	5054.25
2229.97929434504	5026
2232.22738047118	5012.25
2234.47481293889	4996.75
2236.72159204058	5017.75
2238.96771806864	5002.5
2241.21319131536	5018
2243.458012073	4926.5
2245.70218063374	4999.25
2247.94569728973	5043.75
2250.18856233304	5032.5
2252.4307760557	4992.5
2254.67233874967	5006
2256.91325070687	5028.5
2259.15351221915	4970
2261.39312357831	4997.25
2263.63208507611	5016.25
2265.87039700422	5003.5
2268.1080596543	5001.5
2270.34507331792	4993.75
2272.5814382866	4984.5
2274.81715485183	4994.75
2277.05222330502	5004.25
2279.28664393755	4988
2281.52041704072	4937
2283.75354290581	5009
2285.98602182401	4940.5
2288.21785408648	4959
2290.44903998434	5028.25
2292.67957980862	4996
2294.90947385033	4972.25
2297.1387224004	5003
2299.36732574975	4980.25
2301.59528418921	4993.25
2303.82259800958	5006
2306.04926750158	4998.25
2308.27529295593	4967
2310.50067466325	4972.75
2312.72541291412	4981.25
2314.9495079991	4951.25
2317.17296020866	4970
2319.39576983323	4953
2321.61793716322	4970.5
2323.83946248894	4933
2326.06034610069	4944
2328.28058828871	4965.25
2330.50018934317	4938.5
2332.7191495542	4960.75
2334.93746921192	4943.5
2337.15514860633	4913
2339.37218802743	4908.25
2341.58858776516	4885
2343.80434810941	4926.5
2346.01946935001	4906.5
2348.23395177675	4904.25
2350.44779567939	4903.25
2352.66100134759	4907
2354.87356907101	4888.5
2357.08549913925	4930
2359.29679184185	4915.5
2361.50744746829	4906
2363.71746630804	4921.5
2365.92684865048	4903
2368.13559478499	4878.5
2370.34370500083	4894
2372.55117958727	4864
2374.75801883352	4858.5
2376.96422302874	4857.5
2379.16979246202	4861.25
2381.37472742243	4815
2383.57902819898	4856
2385.78269508063	4837.25
2387.98572835629	4792.75
2390.18812831482	4826.75
2392.38989524505	4843.75
2394.59102943573	4795.75
2396.79153117559	4822.75
2398.9914007533	4809.5
2401.19063845748	4811
2403.38924457672	4777.5
2405.58721939951	4849.25
2407.78456321435	4745.25
2409.98127630966	4735.75
2412.17735897382	4770.25
2414.37281149517	4826.75
2416.56763416198	4814.25
2418.76182726249	4742.75
2420.95539108487	4726.25
2423.14832591726	4754.5
2425.34063204776	4718
2427.53230976439	4732
2429.72335935513	4766.25
2431.91378110795	4764
2434.10357531071	4709.75
2436.29274225125	4699
2438.48128221739	4715.5
2440.66919549683	4700
2442.8564823773	4712.5
2445.04314314641	4734.75
2447.22917809176	4722
2449.4145875009	4714.25
2451.59937166131	4709
2453.78353086044	4729
2455.96706538568	4678.25
2458.14997552436	4676
2460.33226156379	4637.5
2462.51392379119	4698
2464.69496249376	4657.75
2466.87537795862	4617.5
2469.05517047288	4647.5
2471.23434032357	4623.5
2473.41288779767	4621.5
2475.59081318211	4667.75
2477.76811676378	4610.75
2479.9447988295	4617.75
2482.12085966605	4581
2484.29629956016	4594.75
2486.4711187985	4624.75
2488.64531766769	4630.5
2490.8188964543	4605.75
2492.99185544484	4615.25
2495.16419492579	4614.25
2497.33591518353	4553.75
2499.50701650444	4563.25
2501.67749917482	4591.75
2503.84736348091	4590.25
2506.01660970891	4563
2508.18523814496	4569.75
2510.35324907514	4564.75
2512.52064278551	4633.25
2514.68741956201	4590.5
2516.85357969058	4603.75
2519.01912345709	4576.75
2521.18405114735	4592
2523.34836304711	4583.75
2525.51205944208	4578
2527.6751406179	4589.75
2529.83760686016	4615.25
2531.99945845439	4607.75
2534.16069568606	4614.25
2536.3213188406	4639
2538.48132820336	4554.75
2540.64072405965	4600.25
2542.79950669471	4579.5
2544.95767639373	4599.25
2547.11523344184	4565
2549.27217812411	4575.5
2551.42851072555	4581.75
2553.58423153111	4573
2555.73934082569	4539
2557.89383889412	4550.25
2560.04772602118	4535.75
2562.20100249158	4534.25
2564.35366858996	4540.5
2566.50572460093	4512.75
2568.65717080901	4539
2570.80800749867	4501.75
2572.95823495433	4508
2575.10785346031	4473.5
2577.25686330093	4464.25
2579.40526476038	4454
2581.55305812282	4467.5
2583.70024367237	4395.25
2585.84682169303	4440
2587.99279246879	4473.25
2590.13815628354	4424.25
2592.28291342112	4394.75
2594.42706416531	4433.5
2596.5706087998	4435.75
2598.71354760826	4455.75
2600.85588087425	4470
2602.99760888127	4429
2605.13873191278	4403.25
2607.27925025214	4461.75
2609.41916418269	4424
2611.55847398764	4436.5
2613.69717995017	4397.75
2615.83528235339	4459.5
2617.97278148034	4430
2620.10967761398	4492.25
2622.2459710372	4442
2624.38166203284	4424.5
2626.51675088365	4449
2628.65123787231	4418.5
2630.78512328145	4442.75
2632.9184073936	4422.25
2635.05109049124	4435
2637.18317285676	4473.5
2639.31465477248	4456
2641.44553652067	4430.75
2643.5758183835	4443.75
2645.70550064309	4478
2647.83458358144	4463.5
2649.96306748053	4497
2652.09095262223	4469.75
2654.21823928836	4494
2656.34492776063	4452
2658.47101832071	4430.5
2660.59651125015	4470.5
2662.72140683047	4467.25
2664.84570534309	4450.5
2666.96940706934	4419
2669.0925122905	4460.75
2671.21502128773	4427.5
2673.33693434215	4465
2675.45825173479	4453.5
2677.57897374658	4388.5
2679.69910065839	4463.5
2681.818632751	4442.75
2683.93757030511	4466.75
2686.05591360133	4397.5
2688.17366292021	4454
2690.29081854218	4446
2692.40738074762	4439.75
2694.52334981681	4439.25
2696.63872602995	4431
2698.75350966713	4512
2700.86770100841	4495.75
2702.98130033371	4401
2705.09430792289	4428.25
2707.20672405571	4456.75
2709.31854901185	4494.75
2711.42978307091	4469.5
2713.54042651238	4485.75
2715.65047961567	4511.5
2717.7599426601	4505.25
2719.86881592491	4518.25
2721.97709968924	4524.25
2724.08479423213	4459.25
2726.19189983255	4507.5
2728.29841676934	4490.25
2730.4043453213	4519.25
2732.5096857671	4539.5
2734.61443838532	4497.5
2736.71860345444	4491.75
2738.82218125286	4459.75
2740.92517205889	4479.75
2743.02757615072	4524.25
2745.12939380646	4464.75
2747.23062530411	4473
2749.33127092159	4499.75
2751.4313309367	4460.25
2753.53080562716	4540.25
2755.62969527058	4482.5
2757.72800014448	4500
2759.82572052625	4455
2761.92285669323	4479.25
2764.0194089226	4463.5
2766.11537749147	4464.75
2768.21076267686	4484
2770.30556475566	4458.75
2772.39978400465	4492
2774.49342070054	4467
2776.58647511991	4487
2778.67894753923	4449.25
2780.77083823487	4509
2782.8621474831	4436.75
2784.95287556007	4465.25
2787.04302274184	4466.5
2789.13258930433	4495.5
2791.22157552338	4451.25
2793.30998167471	4468.75
2795.39780803392	4502.25
2797.4850548765	4491.25
2799.57172247786	4445.75
2801.65781111324	4478.25
2803.74332105781	4469.75
2805.82825258661	4518.5
2807.91260597457	4509
2809.9963814965	4482
2812.07957942711	4461
2814.16220004096	4472.25
2816.24424361252	4528
2818.32571041614	4506
2820.40660072604	4540.75
2822.48691481631	4516.25
2824.56665296098	4554.75
2826.64581543388	4557
2828.72440250876	4624
2830.80241445925	4613.25
2832.87985155885	4716.5
2834.95671408093	4816
2837.03300229875	4843
2839.10871648544	4901.5
2841.18385691399	4899.5
2843.25842385729	4901.5
2845.33241758808	4836.25
2847.40583837898	4843.75
2849.4786865025	4837.5
2851.550962231	4863
2853.6226658367	4809.5
2855.69379759173	4807
2857.76435776806	4826
2859.83434663753	4904.5
2861.90376447184	4981.25
2863.97261154259	5084.75
2866.0408881212	5177.5
2868.10859447901	5210
2870.17573088717	5194.5
2872.24229761673	5180.25
2874.30829493859	5215.75
2876.37372312352	5225.75
2878.43858244215	5262.25
2880.50287316496	5327
2882.56659556231	5350.5
2884.62974990439	5406.5
2886.69233646129	5330.75
2888.75435550293	5295
2890.81580729909	5286.25
2892.87669211941	5221.25
2894.93701023339	5168
2896.99676191039	5224.5
2899.05594741961	5215.25
2901.1145670301	5186.75
2903.1726210108	5184
2905.23010963045	5289.75
2907.28703315768	5207
2909.34339186096	5229.75
2911.39918600861	5219
2913.45441586879	5127.5
2915.50908170952	5123.5
2917.56318379867	5147
2919.61672240395	5162.75
2921.66969779291	5143
2923.72211023295	5229.5
2925.77395999134	5132
2927.82524733515	5141
2929.87597253132	5019.25
2931.92613584663	5027.75
2933.97573754769	4953.75
2936.02477790097	4904
2938.07325717276	4837
2940.1211756292	4921.75
2942.16853353626	4893.25
2944.21533115976	4931.75
2946.26156876536	4943.5
2948.30724661853	5020.25
2950.3523649846	5095.5
2952.39692412872	5094.5
2954.44092431587	5178.75
2956.48436581089	5289.75
2958.52724887843	5393.75
2960.56957378296	5454
2962.6113407888	5477.75
2964.65255016011	5384.5
2966.69320216083	5366
2968.73329705479	5126.5
2970.77283510559	5051.5
2972.81181657671	4980
2974.8502417314	4932.75
2976.88811083279	4840.75
2978.92542414378	4867.5
2980.96218192713	4857.75
2982.99838444541	4801.5
2985.034031961	4814.75
2987.06912473612	4823
2989.1036630328	4745.5
2991.13764711288	4792.75
2993.17107723804	4788.5
2995.20395366974	4806
2997.23627666931	4812
2999.26804649782	4845.25
3001.29926341624	4832
3003.32992768528	4844.25
3005.3600395655	4803
3007.38959931726	4818.75
3009.41860720076	4901
3011.44706347595	4876
3013.47496840263	4823.5
3015.50232224041	4906.75
3017.5291252487	4909
3019.5553776867	4881
3021.58107981344	4934.5
3023.60623188773	4924
3025.63083416822	4961.5
3027.65488691331	4965.25
3029.67839038125	4948
3031.70134483007	4928.75
3033.72375051759	4951.75
3035.74560770144	4911
3037.76691663907	4919
3039.78767758768	5003.75
3041.80789080431	4919.75
3043.82755654577	4972
3045.84667506867	4973.75
3047.8652466294	5001
3049.88327148418	4946
3051.90074988899	4970
3053.91768209961	4981.75
3055.9340683716	4947.5
3057.94990896033	4970.5
3059.96520412095	4991.5
3061.97995410838	4985.5
3063.99415917734	4983.75
3066.00781958234	4962.5
3068.02093557766	4962.25
3070.03350741738	4958.5
3072.04553535535	5042.5
3074.05701964521	4992.25
3076.06796054036	4964
3078.078358294	4934
3080.08821315912	4967
3082.09752538846	5033.5
3084.10629523454	4943.5
3086.11452294967	5021.5
3088.12220878592	5001.75
3090.12935299515	5047
3092.13595582898	5025
3094.1420175388	5009.25
3096.14753837579	5047.75
3098.15251859088	5005
3100.15695843477	5058.75
3102.16085815793	5025
3104.16421801061	5001.25
3106.16703824282	5039.75
3108.16931910432	5040
3110.17106084464	5052.75
3112.17226371308	5035.25
3114.17292795872	5064.5
3116.17305383034	5095.75
3118.17264157657	5013.75
3120.17169144571	5107.75
3122.17020368587	5055
3124.16817854492	5082.75
3126.16561627044	5085.75
3128.16251710982	5163.5
3130.15888131017	5122.75
3132.15470911837	5173.25
3134.15000078104	5192.5
3136.14475654455	5181.25
3138.13897665502	5216
3140.13266135835	5193.75
3142.12581090014	5184.75
3144.11842552577	5265.5
3146.11050548036	5260.5
3148.10205100875	5200.25
3150.09306235557	5243.75
3152.08353976515	5203.25
3154.07348348158	5145.75
3156.06289374869	5206.75
3158.05177081006	5171.5
3160.04011490899	5239.25
3162.02792628852	5264.5
3164.01520519145	5209.25
3166.00195186029	5267.5
3167.98816653728	5253.25
3169.97384946442	5243.75
3171.95900088344	5209.75
3173.94362103577	5195.25
3175.92771016259	5214
3177.91126850484	5240.75
3179.89429630312	5262.5
3181.87679379782	5207.25
3183.85876122903	5274
3185.84019883657	5314
3187.82110685997	5245.25
3189.80148553851	5269.75
3191.78133511116	5323.5
3193.76065581664	5277.75
3195.73944789337	5305.5
3197.7177115795	5294
3199.6954471129	5335.75
3201.67265473114	5280.5
3203.64933467153	5330.75
3205.62548717107	5322
3207.60111246648	5351.25
3209.57621079421	5315.25
3211.55078239041	5329.25
3213.52482749093	5351.25
3215.49834633133	5369.75
3217.4713391469	5424.5
3219.44380617262	5380.5
3221.41574764317	5428
3223.38716379296	5400.75
3225.35805485607	5478.25
3227.32842106631	5447.25
3229.29826265718	5479.5
3231.26757986187	5476.25
3233.2363729133	5446.75
3235.20464204405	5433.25
3237.17238748643	5420.75
3239.13960947243	5521.5
3241.10630823374	5502.75
3243.07248400174	5488.25
3245.03813700748	5575.25
3247.00326748177	5519.5
3248.96787565503	5488.5
3250.93196175742	5552.75
3252.89552601877	5551.75
3254.8585686686	5545
3256.82108993612	5604
3258.78309005022	5556.5
3260.74456923948	5558.5
3262.70552773215	5584.25
3264.66596575617	5574.25
3266.62588353916	5560.5
3268.58528130843	5516.5
3270.54415929094	5582.75
3272.50251771336	5562.5
3274.46035680201	5599
3276.4176767829	5629.75
3278.37447788171	5536
3280.33076032379	5602.25
3282.28652433416	5558.25
3284.24177013751	5604.25
3286.1964979582	5590.25
3288.15070802027	5642.25
3290.10440054741	5588
3292.05757576298	5568.25
3294.01023389001	5647.5
3295.96237515119	5597.75
3297.91399976887	5636
3299.86510796506	5638
3301.81569996142	5626.75
3303.76577597932	5621.5
3305.7153362397	5611.5
3307.66438096324	5643.25
3309.61291037024	5668.25
3311.56092468064	5617.5
3313.50842411404	5604
3315.45540888971	5663.25
3317.40187922656	5632.75
3319.34783534315	5682.25
3321.29327745768	5631.5
3323.23820578801	5605
3325.18262055164	5636.5
3327.1265219657	5618.75
3329.06991024699	5659.25
3331.01278561194	5625.75
3332.95514827662	5617.75
3334.89699845674	5713.75
3336.83833636766	5665.5
3338.77916222434	5606.75
3340.71947624143	5624.25
3342.65927863317	5674.5
3344.59856961346	5685
3346.53734939584	5685
3348.47561819344	5642.75
3350.41337621906	5668
3352.35062368513	5659.25
3354.28736080368	5650.25
3356.22358778637	5655.75
3358.15930484452	5642.5
3360.09451218904	5695
3362.02921003047	5641.5
3363.96339857898	5705.25
3365.89707804436	5667
3367.83024863602	5639.75
3369.76291056299	5651
3371.69506403389	5657.5
3373.62670925699	5661.5
3375.55784644016	5666.75
3377.4884757909	5669.25
3379.41859751629	5683
3381.34821182305	5703
3383.27731891749	5705.5
3385.20591900555	5714
3387.13401229276	5753.75
3389.06159898426	5700.75
3390.9886792848	5761.5
3392.91525339872	5742.5
3394.84132152998	5776.5
3396.76688388213	5731.25
3398.69194065833	5750
3400.61649206133	5778.25
3402.54053829348	5725
3404.46407955672	5734.25
3406.3871160526	5712.25
3408.30964798225	5820.5
3410.23167554639	5779.25
3412.15319894535	5792
3414.07421837904	5757.25
3415.99473404695	5787.75
3417.91474614817	5784.75
3419.83425488136	5838.25
3421.75326044479	5775.75
3423.67176303631	5781.25
3425.58976285332	5776.5
3427.50726009282	5803
3429.42425495143	5802.25
3431.34074762528	5777.25
3433.25673831012	5790.5
3435.17222720127	5751
3437.08721449362	5789.5
3439.00170038164	5722
3440.91568505936	5781.5
3442.82916872039	5719.25
3444.74215155791	5717.75
3446.65463376468	5767.25
3448.566615533	5719.25
3450.47809705476	5719.75
3452.3890785214	5741
3454.29956012393	5772
3456.20954205293	5732.5
3458.11902449853	5752.25
3460.02800765041	5695
3461.93649169784	5696.25
3463.84447682962	5693.75
3465.75196323412	5683.25
3467.65895109925	5671.75
3469.56544061249	5683.75
3471.47143196086	5653.75
3473.37692533093	5631
3475.28192090884	5684
3477.18641888026	5675.5
3479.09041943039	5658.5
3480.99392274402	5610.5
3482.89692900545	5624.5
3484.79943839853	5651.5
3486.70145110666	5687.5
3488.60296731277	5630.5
3490.50398719933	5646.25
3492.40451094836	5601.5
3494.30453874141	5617.25
3496.20407075956	5647.75
3498.10310718342	5629.25
3500.00164819315	5595.25