201.866871357051	3443.25
204.754250281454	3479.25
207.640596790938	3432.25
210.525911876299	3427
213.410196525689	3449.25
216.293451724508	3408.5
219.175678455485	3415.25
222.056877698662	3414.5
224.937050431388	3379.75
227.816197628363	3457.75
230.694320261602	3410.25
233.571419300504	3416.25
236.447495711764	3401
239.322550459507	3404.25
242.196584505182	3417.5
245.069598807626	3398
247.941594323078	3388.25
250.812572005154	3430.25
253.682532804884	3408.25
256.551477670699	3400.25
259.419407548456	3392.75
262.286323381439	3368.5
265.152226110364	3377.75
268.017116673389	3349.25
270.880996006115	3377
273.743865041622	3348.25
276.605724710436	3333
279.466575940562	3330
282.326419657496	3363
285.1852567842	3346
288.043088241157	3355.25
290.899914946349	3331.25
293.75573781526	3298.5
296.610557760898	3338
299.464375693817	3335.75
302.317192522078	3304
305.169009151297	3309
308.019826484655	3259.75
310.86964542287	3302
313.718466864233	3275.5
316.566291704614	3284.5
319.413120837457	3281.75
322.258955153804	3256.5
325.103795542291	3232.25
327.947642889128	3222.5
330.79049807819	3259.25
333.632361990927	3240.25
336.473235506444	3230.5
339.31311950145	3227
342.152014850322	3217
344.989922425062	3247.5
347.826843095354	3225.5
350.662777728528	3247.5
353.497727189577	3215.5
356.331692341195	3241.5
359.164674043732	3235.75
361.996673155267	3242.25
364.827690531536	3228.75
367.65772702602	3242.75
370.486783489887	3212.75
373.314860772047	3230.25
376.14195971912	3219.25
378.968081175466	3183.75
381.793225983212	3206.25
384.617394982201	3211
387.44058901005	3175
390.262808902131	3189
393.08405549161	3212.5
395.904329609395	3211
398.723632084213	3193
401.541963742569	3176.5
404.359325408779	3202.25
407.175717904938	3160.25
409.991142050982	3142.25
412.805598664665	3180.5
415.619088561551	3149.5
418.43161255505	3159
421.243171456415	3126.5
424.053766074758	3160.5
426.863397217017	3113.5
429.672065688024	3125.75
432.479772290455	3154.25
435.286517824879	3135
438.092303089736	3131.25
440.897128881359	3120.75
443.70099599399	3135.25
446.503905219761	3130.25
449.305857348711	3104
452.106853168796	3098.5
454.906893465919	3094.75
457.705979023885	3082.75
460.504110624439	3073.25
463.3012890473	3059.75
466.097515070087	3061.5
468.892789468424	3045.75
471.687113015869	3040.5
474.48048648395	3026.75
477.272910642198	3035
480.064386258109	3024
482.854914097159	3008.25
485.644494922839	3038
488.433129496636	3028.25
491.220818578047	3065
494.007562924584	3022.5
496.793363291785	3035.5
499.578220433217	3033.25
502.362135100473	3056.75
505.145108043209	3029.75
507.927140009098	3045.25
510.708231743909	3057.5
513.488383991433	3049.75
516.267597493556	3030.25
519.04587299022	3024.25
521.82321121946	3031.25
524.599612917398	3044.25
527.375078818233	3035.25
530.149609654287	3002.25
532.923206155967	2980.75
535.695869051804	2959.5
538.467599068448	2965.25
541.238396930665	2943.75
544.008263361364	2914
546.777199081578	2894
549.545204810493	2937
552.312281265436	2908
555.078429161898	2940
557.843649213533	2898.25
560.607942132156	2899.75
563.371308627753	2894
566.133749408495	2914.75
568.895265180756	2916
571.655856649064	2906.75
574.415524516189	2882.25
577.174269483075	2867
579.932092248884	2936.25
582.688993510994	2926.75
585.444973965023	2903.25
588.200034304795	2934.5
590.95417522237	2921.5
593.70739740807	2924.25
596.459701550433	2905.25
599.21108833628	2921.75
601.961558450668	2909
604.711112576933	2884.25
607.459751396673	2880.75
610.207475589748	2858.5
612.954285834338	2820.75
615.700182806879	2840.75
618.445167182101	2829
621.189239633055	2828.25
623.932400831087	2797.25
626.674651445839	2789
629.415992145303	2772.5
632.156423595745	2784
634.895946461813	2801.5
637.634561406449	2787
640.37226909096	2765.25
643.109070174978	2785.5
645.844965316508	2780
648.579955171888	2762
651.314040395846	2739
654.047221641456	2761
656.779499560176	2772.5
659.510874801828	2748.75
662.241348014642	2763.25
664.97091984524	2778.75
667.699590938606	2758.75
670.427361938164	2765.5
673.15423348573	2760.75
675.880206221526	2805
678.605280784206	2761.25
681.329457810829	2743.75
684.05273793692	2763.25
686.775121796389	2799.75
689.49661002163	2725.75
692.217203243454	2744.5
694.936902091144	2730.25
697.655707192425	2706.25
700.373619173493	2716.25
703.09063865901	2701.5
705.806766272093	2689.5
708.522002634378	2734.25
711.236348365946	2700.5
713.94980408538	2686.25
716.662370409762	2663.5
719.374047954676	2693.5
722.08483733419	2681.75
724.794739160909	2653.75
727.503754045949	2679.25
730.21188259892	2680.75
732.919125427998	2669.5
735.625483139855	2692.5
738.330956339723	2678.75
741.035545631374	2682.5
743.739251617106	2680.25
746.44207489779	2680.25
749.144016072852	2647.75
751.845075740272	2675
754.545254496603	2677.25
757.244552936976	2652.25
759.94297165508	2650
762.640511243222	2660.25
765.337172292249	2687.75
768.032955391649	2662.25
770.727861129482	2675
773.421890092413	2669.25
776.11504286572	2684
778.807320033298	2670.5
781.49872217765	2674.25
784.18924987991	2653
786.87890371984	2619
789.567684275826	2657.5
792.255592124908	2654.5
794.94262784276	2650
797.628792003703	2644
800.314085180715	2631
802.998507945427	2668
805.682060868145	2672.5
808.364744517821	2708.5
811.046559462105	2683.5
813.727506267311	2653.5
816.407585498422	2639.5
819.08679771913	2644.75
821.765143491822	2649.25
824.442623377563	2657
827.119237936127	2690
829.794987726003	2688.5
832.469873304377	2701
835.143895227167	2705.25
837.817054048985	2724.5
840.489350323205	2749.75
843.160784601892	2738.5
845.831357435894	2699
848.501069374739	2698.25
851.169920966753	2672.5
853.837912758987	2666.75
856.505045297232	2634.75
859.171319126071	2664.25
861.836734788823	2656.5
864.501292827579	2683.75
867.164993783208	2660
869.827838195361	2634.5
872.489826602454	2627.5
875.150959541701	2656.25
877.811237549104	2626
880.470661159456	2670.5
883.129230906357	2623.5
885.786947322205	2603.25
888.443810938206	2640.75
891.099822284385	2638
893.754981889586	2617.75
896.409290281452	2623
899.062747986485	2646.5
901.715355529999	2643.75
904.367113436154	2616.25
907.01802222793	2645.25
909.668082427172	2647.25
912.317294554574	2641
914.965659129659	2653.5
917.613176670835	2640.25
920.259847695364	2684.25
922.90567271936	2655.5
925.550652257825	2649
928.194786824621	2654.5
930.838076932512	2656.25
933.480523093109	2688.25
936.122125816953	2690.5
938.762885613447	2659.5
941.402802990899	2679.5
944.041878456523	2692
946.680112516428	2682.5
949.31750567563	2693.25
951.954058438081	2728
954.589771306633	2701.75
957.224644783048	2715.25
959.858679368044	2694.5
962.491875561238	2706.75
965.12423386121	2697.25
967.75575476545	2753
970.386438770423	2719.25
973.016286371501	2733.5
975.645298063046	2722.75
978.273474338355	2723.25
980.900815689674	2732.25
983.527322608243	2699.25
986.152995584245	2709.75
988.777835106834	2710.75
991.401841664148	2721
994.025015743307	2748.5
996.647357830407	2728.75
999.268868410534	2779.5
1001.88954796777	2732.5
1004.50939698518	2743.75
1007.12841594484	2769.25
1009.74660532783	2765
1012.36396561423	2775
1014.98049728314	2776.5
1017.59620081267	2775
1020.21107667995	2747.5
1022.82512536112	2764.25
1025.43834733138	2792.5
1028.05074306493	2794.75
1030.66231303501	2780
1033.27305771392	2797.25
1035.88297757299	2824.25
1038.49207308257	2809.5
1041.10034471211	2810.75
1043.70779293008	2828.25
1046.31441820402	2839
1048.92022100052	2811.25
1051.52520178525	2844.25
1054.12936102295	2827.25
1056.73269917742	2849
1059.33521671154	2836
1061.93691408729	2858
1064.53779176571	2843.5
1067.13785020694	2815.25
1069.73708987022	2820.25
1072.33551121386	2826.5
1074.93311469528	2833
1077.52990077103	2847.75
1080.12586989674	2819.75
1082.72102252714	2847.5
1085.31535911611	2855.75
1087.90888011663	2846.75
1090.50158598078	2831
1093.09347715979	2854.25
1095.68455410403	2892.75
1098.27481726296	2869.25
1100.86426708523	2866.75
1103.45290401857	2890
1106.04072850991	2880
1108.6277410053	2871
1111.21394194993	2912
1113.79933178816	2931
1116.3839109635	2883.5
1118.96767991862	2924.25
1121.55063909539	2929.25
1124.13278893477	2949.25
1126.71412987696	2948.5
1129.29466236132	2937
1131.87438682637	2948.25
1134.45330370982	2977
1137.03141344858	3006.25
1139.60871647872	2958.5
1142.18521323554	3000.25
1144.7609041535	2999.25
1147.33578966629	3031.5
1149.90987020676	3079.5
1152.48314620702	3039
1155.05561809835	3020.5
1157.62728631125	3033.75
1160.19815127545	3036
1162.76821341988	3016.25
1165.33747317271	3038
1167.90593096133	3051
1170.47358721235	3043.5
1173.04044235163	3035
1175.60649680425	3027.75
1178.17175099454	3011
1180.73620534607	3033.75
1183.29986028165	3001.25
1185.86271622336	3029.5
1188.42477359249	3060
1190.98603280964	3012
1193.54649429462	3022.75
1196.10615846653	3033.75
1198.66502574372	3029.5
1201.22309654385	3041
1203.78037128378	3041.5
1206.33685037971	3044.25
1208.89253424709	3036.5
1211.44742330063	3041.5
1214.00151795438	3044.25
1216.55481862163	3073.75
1219.10732571497	3105.5
1221.65903964631	3080.25
1224.20996082683	3086.25
1226.760089667	3096.75
1229.30942657664	3090.25
1231.85797196483	3126.75
1234.40572623998	3073.75
1236.95268980981	3163.5
1239.49886308136	3112.5
1242.04424646098	3146.75
1244.58884035435	3147.25
1247.13264516647	3168.5
1249.67566130166	3181.5
1252.21788916358	3159.75
1254.75932915524	3230.75
1257.29998167896	3227.25
1259.83984713639	3191.5
1262.37892592857	3232
1264.91721845586	3227.75
1267.45472511795	3231.5
1269.9914463139	3224.5
1272.52738244213	3260.5
1275.0625339004	3267.5
1277.59690108587	3274.75
1280.130484395	3280.5
1282.66328422367	3293.5
1285.19530096712	3245.5
1287.72653501993	3323.5
1290.25698677608	3295
1292.78665662894	3341.75
1295.31554497125	3312.5
1297.8436521951	3350.75
1300.37097869203	3356.75
1302.89752485292	3339.5
1305.42329106805	3327
1307.94827772713	3335.5
1310.47248521921	3345.5
1312.99591393279	3414.25
1315.51856425575	3365.25
1318.04043657536	3362
1320.56153127836	3407
1323.08184875083	3471.5
1325.6013893783	3455
1328.12015354572	3517.75
1330.63814163744	3499.25
1333.15535403727	3537.25
1335.67179112839	3512.75
1338.18745329347	3529.5
1340.70234091454	3507.75
1343.21645437314	3542.25
1345.72979405019	3551.75
1348.24236032607	3553.25
1350.75415358059	3571
1353.26517419303	3566.25
1355.7754225421	3603
1358.28489900594	3634.25
1360.79360396218	3645.5
1363.30153778787	3649.5
1365.80870085955	3583.5
1368.31509355319	3640.75
1370.82071624424	3606
1373.32556930762	3631.75
1375.8296531177	3629.5
1378.33296804832	3617.5
1380.83551447282	3639.75
1383.33729276399	3648.25
1385.83830329408	3615.25
1388.33854643489	3638.75
1390.83802255762	3634.75
1393.33673203301	3617.75
1395.83467523128	3599.5
1398.33185252211	3617.25
1400.82826427471	3637.25
1403.32391085777	3603.25
1405.81879263947	3637.5
1408.31290998752	3639.5
1410.80626326908	3645.5
1413.29885285087	3657.75
1415.79067909909	3676.75
1418.28174237944	3675.5
1420.77204305717	3695
1423.26158149702	3681.25
1425.75035806323	3735.5
1428.2383731196	3730.75
1430.72562702942	3761.5
1433.21212015554	3795.75
1435.69785286028	3841
1438.18282550555	3838.75
1440.66703845275	3829.25
1443.15049206284	3865
1445.6331866963	3871
1448.11512271316	3917.25
1450.59630047298	3886.75
1453.07672033486	3942.25
1455.55638265748	3931.5
1458.03528779902	3994.75
1460.51343611725	3945.25
1462.99082796946	4018
1465.46746371252	3958
1467.94334370285	3982.5
1470.41846829642	3960.25
1472.89283784878	3946.5
1475.36645271503	4007
1477.83931324983	3984.25
1480.31141980743	3992.5
1482.78277274164	4011.5
1485.25337240583	3975.25
1487.72321915297	3957.25
1490.19231333557	3971
1492.66065530578	3981
1495.12824541525	4029.75
1497.5950840153	4011.5
1500.06117145678	3972.5
1502.52650809014	3996
1504.99109426543	3952.5
1507.45493033227	4039
1509.91801663992	4004
1512.38035353717	4043.25
1514.84194137248	4047.5
1517.30278049386	4055.25
1519.76287124894	4071.25
1522.22221398497	4034.25
1524.68080904876	4071
1527.13865678681	4057.75
1529.59575754514	4102.75
1532.05211166945	4145.5
1534.50771950503	4124.25
1536.96258139678	4160.25
1539.41669768924	4178.75
1541.87006872656	4180
1544.32269485252	4206.25
1546.77457641051	4221.75
1549.22571374357	4237.5
1551.67610719434	4245.25
1554.12575710513	4295.5
1556.57466381785	4274.5
1559.02282767408	4258.5
1561.47024901499	4298.75
1563.91692818144	4329.75
1566.3628655139	4339
1568.80806135249	4376.75
1571.252516037	4313.25
1573.6962299068	4397.5
1576.13920330099	4394.5
1578.58143655828	4471.25
1581.02293001704	4456.25
1583.46368401528	4474.5
1585.90369889071	4446.25
1588.34297498065	4471.25
1590.7815126221	4438.25
1593.21931215173	4514.5
1595.65637390588	4489.5
1598.09269822053	4444.75
1600.52828543135	4497.75
1602.96313587367	4472.75
1605.3972498825	4495
1607.83062779252	4474.25
1610.26326993808	4485.5
1612.69517665322	4468
1615.12634827165	4499.25
1617.55678512676	4470.25
1619.98648755163	4505.75
1622.41545587902	4456
1624.84369044138	4503
1627.27119157085	4489
1629.69795959924	4513.75
1632.12399485808	4497.25
1634.54929767859	4513.5
1636.97386839165	4553
1639.39770732789	4504
1641.8208148176	4524
1644.24319119078	4545.5
1646.66483677715	4498
1649.0857519061	4550
1651.50593690677	4557.5
1653.92539210795	4592.25
1656.3441178382	4567.5
1658.76211442575	4585
1661.17938219855	4631.25
1663.59592148428	4652.5
1666.01173261032	4603.25
1668.42681590377	4672.25
1670.84117169145	4693
1673.25480029991	4699.25
1675.66770205541	4699.5
1678.07987728393	4726.75
1680.49132631119	4734.5
1682.90204946263	4793
1685.31204706342	4724.5
1687.72131943846	4783.25
1690.1298669124	4807.25
1692.53768980957	4845.5
1694.94478845411	4784.75
1697.35116316982	4780.25
1699.75681428031	4827.75
1702.16174210887	4849.5
1704.56594697858	4817.25
1706.96942921222	4875.75
1709.37218913235	4849.25
1711.77422706125	4807.25
1714.17554332098	4837.5
1716.5761382333	4896.75
1718.97601211977	4838
1721.37516530169	4849.75
1723.77359810006	4850.5
1726.17131083572	4851
1728.56830382922	4891.5
1730.96457740087	4898.25
1733.36013187075	4810.25
1735.75496755868	4904.5
1738.14908478428	4873
1740.54248386689	4869.75
1742.93516512565	4867.25
1745.32712887946	4920.25
1747.71837544697	4920
1750.10890514662	4923.75
1752.49871829661	4896
1754.88781521492	4927
1757.27619621929	4975.75
1759.66386162726	4947.25
1762.05081175612	4934.5
1764.43704692297	4949.5
1766.82256744465	4930.5
1769.20737363782	5028.5
1771.59146581887	4977.75
1773.97484430405	5040.25
1776.35750940932	4993
1778.73946145048	5051.75
1781.12070074309	5021.5
1783.50122760249	5029.75
1785.88104234385	5074.75
1788.26014528209	5042.5
1790.63853673196	5040.25
1793.01621700796	5095.75
1795.39318642443	5131.75
1797.76944529549	5128.5
1800.14499393503	5160.25
1802.51983265681	5082.75
1804.8939617743	5145.25
1807.26738160085	5179.5
1809.64009244957	5201.75
1812.01209463339	5154.25
1814.38338846504	5210.75
1816.75397425706	5189.5
1819.12385232181	5191
1821.49302297142	5196.25
1823.86148651789	5189.25
1826.22924327299	5191.25
1828.59629354831	5231.5
1830.96263765526	5189.5
1833.32827590507	5216.75
1835.69320860877	5236
1838.05743607724	5225.75
1840.42095862113	5229.5
1842.78377655097	5283.75
1845.14589017707	5243.5
1847.50729980956	5208.75
1849.86800575843	5247.75
1852.22800833346	5241
1854.58730784427	5303.75
1856.94590460032	5301.25
1859.30379891087	5337.25
1861.66099108503	5302.5
1864.01748143175	5345
1866.37327025978	5317.25
1868.72835787773	5346.25
1871.08274459403	5357.5
1873.43643071697	5377
1875.78941655464	5418.75
1878.14170241498	5349.75
1880.4932886058	5418.25
1882.84417543469	5508.25
1885.19436320915	5448.5
1887.54385223646	5485
1889.89264282378	5490
1892.24073527809	5504.5
1894.58812990625	5542
1896.93482701493	5654.25
1899.28082691067	5618.75
1901.62612989984	5636.5
1903.97073628868	5642.5
1906.31464638326	5627.5
1908.6578604895	5658.25
1911.00037891321	5638
1913.34220196	5728.25
1915.68332993537	5695.25
1918.02376314468	5772.25
1920.36350189311	5741.75
1922.70254648573	5739.75
1925.04089722744	5713.25
1927.37855442303	5767.5
1929.71551837715	5751
1932.05178939426	5785.5
1934.38736777876	5786
1936.72225383484	5769.75
1939.0564478666	5827.5
1941.38995017799	5805
1943.72276107283	5813.5
1946.05488085479	5822.5
1948.38630982744	5768.25
1950.71704829419	5845.75
1953.04709655832	5784.25
1955.376454923	5822.5
1957.70512369126	5790
1960.03310316599	5867.75
1962.36039364999	5766.75
1964.68699544589	5822.5
1967.01290885622	5868.75
1969.33813418338	5843.75
1971.66267172965	5849.75
1973.98652179718	5871.75
1976.309684688	5915
1978.63216070402	5914.75
1980.95395014705	5962.25
1983.27505331873	5844.5
1985.59547052063	5951
1987.9152020542	5954
1990.23424822074	5929.75
1992.55260932146	5930.25
1994.87028565746	5960.75
1997.18727752968	6019
1999.503585239	5981.75
2001.81920908618	6009.75
2004.13414937184	6063.75
2006.44840639651	6089.75
2008.7619804606	6121.75
2011.07487186442	6079.25
2013.38708090815	6168
2015.6986078919	6136
2018.00945311564	6145.5
2020.31961687923	6127.75
2022.62909948246	6154
2024.93790122498	6202.75
2027.24602240636	6239.5
2029.55346332604	6193.75
2031.86022428337	6226
2034.16630557761	6254.75
2036.47170750791	6255.5
2038.77643037331	6270
2041.08047447275	6326.5
2043.38384010509	6235.25
2045.68652756907	6321.75
2047.98853716335	6308.75
2050.28986918648	6278.25
2052.59052393692	6337.5
2054.89050171302	6294.25
2057.18980281306	6312.75
2059.4884275352	6367.75
2061.78637617753	6302.25
2064.08364903802	6335.25
2066.38024641457	6280.75
2068.67616860497	6361
2070.97141590694	6350
2073.26598861809	6303
2075.55988703595	6291.5
2077.85311145796	6276.5
2080.14566218145	6317.25
2082.43753950371	6348
2084.72874372188	6320.25
2087.01927513307	6312
2089.30913403428	6270.75
2091.59832072241	6272.5
2093.88683549429	6266.75
2096.17467864666	6293
2098.46185047619	6308.75
2100.74835127944	6386
2103.03418135292	6384.75
2105.31934099303	6286
2107.6038304961	6309
2109.88765015838	6326
2112.17080027602	6369
2114.45328114513	6395.75
2116.7350930617	6363
2119.01623632165	6377
2121.29671122085	6398.75
2123.57651805505	6397.5
2125.85565711996	6355.25
2128.13412871117	6395.75
2130.41193312424	6423
2132.68907065462	6420.5
2134.96554159771	6421.75
2137.24134624881	6394.75
2139.51648490317	6430.25
2141.79095785593	6411.75
2144.0647654022	6391.75
2146.33790783698	6427
2148.61038545524	6402
2150.88219855182	6456.5
2153.15334742154	6452
2155.42383235911	6453
2157.6936536592	6439.75
2159.9628116164	6418.5
2162.23130652522	6404.5
2164.49913868011	6415.75
2166.76630837544	6430.5
2169.03281590552	6365
2171.2986615646	6376.5
2173.56384564685	6390.75
2175.82836844637	6366.25
2178.0922302572	6359.25
2180.35543137332	6364.5
2182.61797208862	6385.75
2184.87985269695	6326
2187.14107349208	6290.5
2189.40163476773	6353.5
2191.66153681753	6309.75
2193.92077993507	6269.5
2196.17936441386	6292.5
2198.43729054735	6295.75
2200.69455862894	6230
2202.95116895194	6293.75
2205.20712180962	6225
2207.46241749519	6189.25
2209.71705630179	6237
2211.97103852248	6214.25
2214.2243644503	6217
2216.47703437819	6166.25
2218.72904859905	6196.5
2220.98040740571	6193
2223.23111109095	6205.5
2225.4811599475	6138.25
2227.73055426799	6151.75
2229.97929434504	6104
2232.22738047118	6091.75
2234.47481293889	6054
2236.72159204058	6153.75
2238.96771806864	6061
2241.21319131536	6030.75
2243.458012073	6004.75
2245.70218063374	6074
2247.94569728973	6100.25
2250.18856233304	6090.25
2252.4307760557	5980.75
2254.67233874967	6019.5
2256.91325070687	6027.25
2259.15351221915	6003.75
2261.39312357831	6031
2263.63208507611	5958.5
2265.87039700422	5949.75
2268.1080596543	5976.75
2270.34507331792	5950
2272.5814382866	5893.75
2274.81715485183	5975.75
2277.05222330502	5970.5
2279.28664393755	5902.75
2281.52041704072	5877.5
2283.75354290581	5917.5
2285.98602182401	5877
2288.21785408648	5830.5
2290.44903998434	5853.5
2292.67957980862	5876.5
2294.90947385033	5831.25
2297.1387224004	5839.25
2299.36732574975	5845.5
2301.59528418921	5817.5
2303.82259800958	5831.25
2306.04926750158	5772.75
2308.27529295593	5792.5
2310.50067466325	5762.75
2312.72541291412	5772.25
2314.9495079991	5745.5
2317.17296020866	5740.5
2319.39576983323	5734
2321.61793716322	5697.75
2323.83946248894	5669.25
2326.06034610069	5698.5
2328.28058828871	5741.5
2330.50018934317	5668
2332.7191495542	5662.5
2334.93746921192	5660.5
2337.15514860633	5593.5
2339.37218802743	5626
2341.58858776516	5607.75
2343.80434810941	5607.5
2346.01946935001	5572.25
2348.23395177675	5538.25
2350.44779567939	5548.5
2352.66100134759	5537.75
2354.87356907101	5562.25
2357.08549913925	5520.25
2359.29679184185	5529
2361.50744746829	5562.75
2363.71746630804	5517
2365.92684865048	5490.75
2368.13559478499	5513
2370.34370500083	5475.75
2372.55117958727	5510.25
2374.75801883352	5434.5
2376.96422302874	5463.5
2379.16979246202	5412.25
2381.37472742243	5399
2383.57902819898	5426
2385.78269508063	5359.75
2387.98572835629	5364.5
2390.18812831482	5344.75
2392.38989524505	5367.25
2394.59102943573	5363.5
2396.79153117559	5378.25
2398.9914007533	5348.75
2401.19063845748	5327.75
2403.38924457672	5313.25
2405.58721939951	5318.25
2407.78456321435	5276
2409.98127630966	5285
2412.17735897382	5285.25
2414.37281149517	5250
2416.56763416198	5225.5
2418.76182726249	5271.75
2420.95539108487	5220.25
2423.14832591726	5209.5
2425.34063204776	5189.5
2427.53230976439	5194
2429.72335935513	5172.5
2431.91378110795	5165.25
2434.10357531071	5177.25
2436.29274225125	5203.25
2438.48128221739	5139
2440.66919549683	5106
2442.8564823773	5134.25
2445.04314314641	5131.25
2447.22917809176	5097.5
2449.4145875009	5163.5
2451.59937166131	5069.5
2453.78353086044	5076
2455.96706538568	5081.75
2458.14997552436	5044
2460.33226156379	5036.25
2462.51392379119	5053.25
2464.69496249376	4971.25
2466.87537795862	5013
2469.05517047288	5013
2471.23434032357	5046
2473.41288779767	5053.75
2475.59081318211	4977
2477.76811676378	4957.75
2479.9447988295	4963.25
2482.12085966605	4922.75
2484.29629956016	4952
2486.4711187985	4916.25
2488.64531766769	4954
2490.8188964543	4949
2492.99185544484	4889.25
2495.16419492579	4910.25
2497.33591518353	4930.75
2499.50701650444	4921.25
2501.67749917482	4902
2503.84736348091	4876.5
2506.01660970891	4865.75
2508.18523814496	4895.5
2510.35324907514	4878.75
2512.52064278551	4860.5
2514.68741956201	4862.25
2516.85357969058	4890.75
2519.01912345709	4887.5
2521.18405114735	4869.25
2523.34836304711	4827.5
2525.51205944208	4894
2527.6751406179	4882.5
2529.83760686016	4823.5
2531.99945845439	4880.75
2534.16069568606	4868
2536.3213188406	4852.5
2538.48132820336	4827
2540.64072405965	4847.25
2542.79950669471	4865.5
2544.95767639373	4847.75
2547.11523344184	4784.5
2549.27217812411	4803.5
2551.42851072555	4821.75
2553.58423153111	4793.5
2555.73934082569	4782.25
2557.89383889412	4808
2560.04772602118	4757.75
2562.20100249158	4793
2564.35366858996	4740.5
2566.50572460093	4757
2568.65717080901	4732.25
2570.80800749867	4690.75
2572.95823495433	4698.5
2575.10785346031	4695.75
2577.25686330093	4703.75
2579.40526476038	4659.5
2581.55305812282	4678.25
2583.70024367237	4620
2585.84682169303	4653.5
2587.99279246879	4622.75
2590.13815628354	4647.25
2592.28291342112	4628
2594.42706416531	4639.75
2596.5706087998	4592.5
2598.71354760826	4672.75
2600.85588087425	4679.75
2602.99760888127	4625
2605.13873191278	4605.5
2607.27925025214	4581.5
2609.41916418269	4600.75
2611.55847398764	4623.75
2613.69717995017	4631.5
2615.83528235339	4614.25
2617.97278148034	4610.75
2620.10967761398	4618.5
2622.2459710372	4618.5
2624.38166203284	4609.75
2626.51675088365	4596.75
2628.65123787231	4612.5
2630.78512328145	4613
2632.9184073936	4591.25
2635.05109049124	4616.5
2637.18317285676	4602.25
2639.31465477248	4635.25
2641.44553652067	4621
2643.5758183835	4568.75
2645.70550064309	4565.25
2647.83458358144	4624.75
2649.96306748053	4642.5
2652.09095262223	4640
2654.21823928836	4649
2656.34492776063	4613.5
2658.47101832071	4573.5
2660.59651125015	4624
2662.72140683047	4654
2664.84570534309	4654.25
2666.96940706934	4612.5
2669.0925122905	4615.75
2671.21502128773	4610.75
2673.33693434215	4626
2675.45825173479	4631.5
2677.57897374658	4603
2679.69910065839	4623.75
2681.818632751	4624.75
2683.93757030511	4617.75
2686.05591360133	4614.5
2688.17366292021	4647
2690.29081854218	4639.25
2692.40738074762	4515.5
2694.52334981681	4618.5
2696.63872602995	4617
2698.75350966713	4614.25
2700.86770100841	4636.25
2702.98130033371	4549.75
2705.09430792289	4628.25
2707.20672405571	4621.5
2709.31854901185	4645
2711.42978307091	4612.25
2713.54042651238	4591.5
2715.65047961567	4647
2717.7599426601	4631.75
2719.86881592491	4674.5
2721.97709968924	4672.5
2724.08479423213	4631
2726.19189983255	4656.25
2728.29841676934	4634.75
2730.4043453213	4678
2732.5096857671	4696
2734.61443838532	4599.75
2736.71860345444	4652.25
2738.82218125286	4651.25
2740.92517205889	4667.25
2743.02757615072	4696
2745.12939380646	4635.75
2747.23062530411	4637.25
2749.33127092159	4670
2751.4313309367	4625
2753.53080562716	4645
2755.62969527058	4613.75
2757.72800014448	4632
2759.82572052625	4639.25
2761.92285669323	4595.5
2764.0194089226	4628.75
2766.11537749147	4631.75
2768.21076267686	4665.75
2770.30556475566	4623
2772.39978400465	4660
2774.49342070054	4669.75
2776.58647511991	4655
2778.67894753923	4611.5
2780.77083823487	4707.25
2782.8621474831	4628.5
2784.95287556007	4645.5
2787.04302274184	4634.75
2789.13258930433	4651.75
2791.22157552338	4651.25
2793.30998167471	4655.25
2795.39780803392	4697.5
2797.4850548765	4679.5
2799.57172247786	4692.5
2801.65781111324	4663.25
2803.74332105781	4659.75
2805.82825258661	4692.25
2807.91260597457	4688.75
2809.9963814965	4664
2812.07957942711	4674
2814.16220004096	4672
2816.24424361252	4663.25
2818.32571041614	4727.25
2820.40660072604	4692.25
2822.48691481631	4735.25
2824.56665296098	4746.5
2826.64581543388	4768.75
2828.72440250876	4858.5
2830.80241445925	4807
2832.87985155885	4901.5
2834.95671408093	4959.5
2837.03300229875	5015
2839.10871648544	5072.5
2841.18385691399	5140.75
2843.25842385729	5101.25
2845.33241758808	5052
2847.40583837898	5088
2849.4786865025	5092.25
2851.550962231	5033.75
2853.6226658367	5057.25
2855.69379759173	5035.75
2857.76435776806	5068.75
2859.83434663753	5068.5
2861.90376447184	5190
2863.97261154259	5261.25
2866.0408881212	5337.25
2868.10859447901	5360.5
2870.17573088717	5397.25
2872.24229761673	5397.75
2874.30829493859	5422
2876.37372312352	5441.25
2878.43858244215	5550.25
2880.50287316496	5611.5
2882.56659556231	5633.75
2884.62974990439	5635.5
2886.69233646129	5571
2888.75435550293	5496
2890.81580729909	5526.75
2892.87669211941	5445
2894.93701023339	5482.25
2896.99676191039	5488.25
2899.05594741961	5505
2901.1145670301	5502.25
2903.1726210108	5528.75
2905.23010963045	5581.5
2907.28703315768	5472.5
2909.34339186096	5473.5
2911.39918600861	5461
2913.45441586879	5338
2915.50908170952	5354
2917.56318379867	5354.5
2919.61672240395	5386.25
2921.66969779291	5386
2923.72211023295	5366
2925.77395999134	5361
2927.82524733515	5367.25
2929.87597253132	5309.75
2931.92613584663	5282.75
2933.97573754769	5216
2936.02477790097	5144.5
2938.07325717276	5147
2940.1211756292	5177.5
2942.16853353626	5159.25
2944.21533115976	5197.75
2946.26156876536	5198
2948.30724661853	5240
2950.3523649846	5355.75
2952.39692412872	5261
2954.44092431587	5282.5
2956.48436581089	5241.25
2958.52724887843	5268.5
2960.56957378296	5258.75
2962.6113407888	5236.5
2964.65255016011	5170.5
2966.69320216083	5204.5
2968.73329705479	5135.5
2970.77283510559	5079.5
2972.81181657671	5113.5
2974.8502417314	5085.25
2976.88811083279	5050.5
2978.92542414378	5080.5
2980.96218192713	5070.75
2982.99838444541	5086.25
2985.034031961	5057
2987.06912473612	5064.25
2989.1036630328	5043.5
2991.13764711288	5011.5
2993.17107723804	5052.75
2995.20395366974	5092.25
2997.23627666931	5093
2999.26804649782	5130.25
3001.29926341624	5114.5
3003.32992768528	5151
3005.3600395655	5160
3007.38959931726	5161.5
3009.41860720076	5218
3011.44706347595	5185.5
3013.47496840263	5185.5
3015.50232224041	5244
3017.5291252487	5226.75
3019.5553776867	5197.75
3021.58107981344	5234.75
3023.60623188773	5270.25
3025.63083416822	5236.5
3027.65488691331	5275
3029.67839038125	5301.5
3031.70134483007	5202
3033.72375051759	5331
3035.74560770144	5296.25
3037.76691663907	5316.5
3039.78767758768	5319.5
3041.80789080431	5331
3043.82755654577	5307.75
3045.84667506867	5270
3047.8652466294	5304.25
3049.88327148418	5316.75
3051.90074988899	5293.25
3053.91768209961	5306.75
3055.9340683716	5296.5
3057.94990896033	5300.75
3059.96520412095	5325.75
3061.97995410838	5326
3063.99415917734	5376
3066.00781958234	5327.5
3068.02093557766	5337
3070.03350741738	5316.5
3072.04553535535	5338.75
3074.05701964521	5351.25
3076.06796054036	5324.5
3078.078358294	5303.5
3080.08821315912	5346.75
3082.09752538846	5395.5
3084.10629523454	5244.75
3086.11452294967	5375.25
3088.12220878592	5393
3090.12935299515	5408.5
3092.13595582898	5348.5
3094.1420175388	5333.5
3096.14753837579	5379.25
3098.15251859088	5355.75
3100.15695843477	5384
3102.16085815793	5353
3104.16421801061	5353.5
3106.16703824282	5402.5
3108.16931910432	5420.25
3110.17106084464	5392.75
3112.17226371308	5430
3114.17292795872	5390.25
3116.17305383034	5402
3118.17264157657	5378.5
3120.17169144571	5384.5
3122.17020368587	5351
3124.16817854492	5395.5
3126.16561627044	5437
3128.16251710982	5492.25
3130.15888131017	5406.5
3132.15470911837	5471.5
3134.15000078104	5470
3136.14475654455	5435.75
3138.13897665502	5499.25
3140.13266135835	5469.75
3142.12581090014	5453.25
3144.11842552577	5503.25
3146.11050548036	5503.5
3148.10205100875	5496.75
3150.09306235557	5537
3152.08353976515	5508
3154.07348348158	5463
3156.06289374869	5480.75
3158.05177081006	5479
3160.04011490899	5539.75
3162.02792628852	5535.75
3164.01520519145	5493.75
3166.00195186029	5514
3167.98816653728	5535.5
3169.97384946442	5490.75
3171.95900088344	5467.5
3173.94362103577	5469.5
3175.92771016259	5525
3177.91126850484	5549
3179.89429630312	5543.5
3181.87679379782	5492.75
3183.85876122903	5518.5
3185.84019883657	5536
3187.82110685997	5583.75
3189.80148553851	5518.25
3191.78133511116	5604
3193.76065581664	5585.25
3195.73944789337	5498.25
3197.7177115795	5544.5
3199.6954471129	5589.25
3201.67265473114	5584.5
3203.64933467153	5569.25
3205.62548717107	5626.75
3207.60111246648	5664.25
3209.57621079421	5563.5
3211.55078239041	5656.25
3213.52482749093	5603
3215.49834633133	5634.75
3217.4713391469	5692.75
3219.44380617262	5645.5
3221.41574764317	5673.5
3223.38716379296	5670.75
3225.35805485607	5660
3227.32842106631	5692.5
3229.29826265718	5675.75
3231.26757986187	5689.25
3233.2363729133	5730
3235.20464204405	5730.25
3237.17238748643	5725
3239.13960947243	5731.75
3241.10630823374	5740.25
3243.07248400174	5736.5
3245.03813700748	5783.5
3247.00326748177	5788.25
3248.96787565503	5748.5
3250.93196175742	5821.25
3252.89552601877	5773.5
3254.8585686686	5796
3256.82108993612	5796
3258.78309005022	5830.5
3260.74456923948	5781
3262.70552773215	5860.75
3264.66596575617	5872.5
3266.62588353916	5819.5
3268.58528130843	5816
3270.54415929094	5798.75
3272.50251771336	5817.5
3274.46035680201	5880.5
3276.4176767829	5822.5
3278.37447788171	5786.75
3280.33076032379	5859.75
3282.28652433416	5860.75
3284.24177013751	5905
3286.1964979582	5878.25
3288.15070802027	5861
3290.10440054741	5846.75
3292.05757576298	5864.75
3294.01023389001	5848.25
3295.96237515119	5834.5
3297.91399976887	5916.25
3299.86510796506	5862.5
3301.81569996142	5913
3303.76577597932	5869
3305.7153362397	5916.75
3307.66438096324	5837
3309.61291037024	5889.75
3311.56092468064	5927.75
3313.50842411404	5897.25
3315.45540888971	5875.75
3317.40187922656	5842.5
3319.34783534315	5900
3321.29327745768	5859.25
3323.23820578801	5762.25
3325.18262055164	5843.75
3327.1265219657	5843.25
3329.06991024699	5879
3331.01278561194	5865
3332.95514827662	5800.75
3334.89699845674	5902
3336.83833636766	5873
3338.77916222434	5833.75
3340.71947624143	5873
3342.65927863317	5859.75
3344.59856961346	5863
3346.53734939584	5875.5
3348.47561819344	5876.75
3350.41337621906	5844.75
3352.35062368513	5868.25
3354.28736080368	5850.75
3356.22358778637	5856.5
3358.15930484452	5885
3360.09451218904	5871.75
3362.02921003047	5888.75
3363.96339857898	5938.25
3365.89707804436	5883
3367.83024863602	5859.25
3369.76291056299	5863
3371.69506403389	5848.75
3373.62670925699	5853
3375.55784644016	5928.25
3377.4884757909	5870.75
3379.41859751629	5932.5
3381.34821182305	5880
3383.27731891749	5959
3385.20591900555	5926.5
3387.13401229276	5915.5
3389.06159898426	5889.5
3390.9886792848	5952.75
3392.91525339872	5996.25
3394.84132152998	5990.75
3396.76688388213	5967.25
3398.69194065833	5937.5
3400.61649206133	5937.75
3402.54053829348	5947.25
3404.46407955672	5935.25
3406.3871160526	5917.5
3408.30964798225	5970.25
3410.23167554639	5938.75
3412.15319894535	6001.5
3414.07421837904	5972.75
3415.99473404695	5958.5
3417.91474614817	5963.5
3419.83425488136	5984.75
3421.75326044479	5932.5
3423.67176303631	5969.75
3425.58976285332	5984
3427.50726009282	5988
3429.42425495143	5894.75
3431.34074762528	5976.5
3433.25673831012	5945
3435.17222720127	5929.25
3437.08721449362	5954.5
3439.00170038164	5897.5
3440.91568505936	5921
3442.82916872039	5874.75
3444.74215155791	5904.25
3446.65463376468	5916.75
3448.566615533	5907
3450.47809705476	5905
3452.3890785214	5877
3454.29956012393	5920.75
3456.20954205293	5931.25
3458.11902449853	5910.75
3460.02800765041	5869.25
3461.93649169784	5853.5
3463.84447682962	5886.75
3465.75196323412	5854.75
3467.65895109925	5840.5
3469.56544061249	5844.25
3471.47143196086	5804.25
3473.37692533093	5813.5
3475.28192090884	5773.5
3477.18641888026	5785.25
3479.09041943039	5849
3480.99392274402	5807.75
3482.89692900545	5757.75
3484.79943839853	5778
3486.70145110666	5779.75
3488.60296731277	5749.75
3490.50398719933	5690.5
3492.40451094836	5698.25
3494.30453874141	5717
3496.20407075956	5731.75
3498.10310718342	5745.75
3500.00164819315	5676.5