201.866871357051	907.5
204.754250281454	925.75
207.640596790938	907.5
210.525911876299	917.25
213.410196525689	912.75
216.293451724508	914.25
219.175678455485	907
222.056877698662	926.75
224.937050431388	905.25
227.816197628363	919.25
230.694320261602	912
233.571419300504	907.75
236.447495711764	916.75
239.322550459507	923
242.196584505182	922.5
245.069598807626	929
247.941594323078	923.75
250.812572005154	928
253.682532804884	929.75
256.551477670699	930
259.419407548456	941.75
262.286323381439	928
265.152226110364	921.25
268.017116673389	935
270.880996006115	938.5
273.743865041622	967.25
276.605724710436	974.75
279.466575940562	973.75
282.326419657496	960.5
285.1852567842	951
288.043088241157	957
290.899914946349	951.25
293.75573781526	942.25
296.610557760898	953.75
299.464375693817	944.75
302.317192522078	936.25
305.169009151297	943
308.019826484655	944.5
310.86964542287	943.75
313.718466864233	955.5
316.566291704614	942.75
319.413120837457	942.5
322.258955153804	932.5
325.103795542291	934.25
327.947642889128	940.5
330.79049807819	945
333.632361990927	955.75
336.473235506444	947.5
339.31311950145	946.25
342.152014850322	947.25
344.989922425062	954.25
347.826843095354	957.5
350.662777728528	954.75
353.497727189577	951
356.331692341195	956.5
359.164674043732	963.5
361.996673155267	956.5
364.827690531536	965.75
367.65772702602	947.5
370.486783489887	965.5
373.314860772047	964.5
376.14195971912	979.25
378.968081175466	969.25
381.793225983212	956.25
384.617394982201	963
387.44058901005	968
390.262808902131	967.75
393.08405549161	971.25
395.904329609395	967
398.723632084213	972.25
401.541963742569	974
404.359325408779	980.25
407.175717904938	974
409.991142050982	983.5
412.805598664665	970
415.619088561551	987
418.43161255505	993
421.243171456415	984
424.053766074758	983.75
426.863397217017	997.25
429.672065688024	991
432.479772290455	996.25
435.286517824879	994
438.092303089736	1000
440.897128881359	983.25
443.70099599399	1004.75
446.503905219761	979.5
449.305857348711	997.5
452.106853168796	993.25
454.906893465919	997
457.705979023885	988
460.504110624439	997.5
463.3012890473	1003.5
466.097515070087	1007.75
468.892789468424	1002
471.687113015869	1006
474.48048648395	999.75
477.272910642198	1001.5
480.064386258109	1003.5
482.854914097159	1009.75
485.644494922839	1014.5
488.433129496636	1002.75
491.220818578047	1013.25
494.007562924584	1007.5
496.793363291785	1010.25
499.578220433217	1023.75
502.362135100473	1018
505.145108043209	1041
507.927140009098	1022.25
510.708231743909	1022.25
513.488383991433	1014.25
516.267597493556	1023.5
519.04587299022	1030.5
521.82321121946	1038
524.599612917398	1021.75
527.375078818233	1019.75
530.149609654287	1022.25
532.923206155967	1037.75
535.695869051804	1032.5
538.467599068448	1036.75
541.238396930665	1023.25
544.008263361364	1035.25
546.777199081578	1032.75
549.545204810493	1026.5
552.312281265436	1031
555.078429161898	1040
557.843649213533	1043.5
560.607942132156	1031.75
563.371308627753	1029.5
566.133749408495	1033.5
568.895265180756	1058.25
571.655856649064	1039
574.415524516189	1050.5
577.174269483075	1057
579.932092248884	1052.75
582.688993510994	1048.5
585.444973965023	1057
588.200034304795	1065.5
590.95417522237	1058
593.70739740807	1073.5
596.459701550433	1064
599.21108833628	1061.5
601.961558450668	1081.75
604.711112576933	1060
607.459751396673	1053
610.207475589748	1064.5
612.954285834338	1058.5
615.700182806879	1064
618.445167182101	1076.5
621.189239633055	1057.5
623.932400831087	1066.25
626.674651445839	1052.75
629.415992145303	1073
632.156423595745	1070.5
634.895946461813	1047.25
637.634561406449	1060
640.37226909096	1074.5
643.109070174978	1075.75
645.844965316508	1069
648.579955171888	1071.25
651.314040395846	1061
654.047221641456	1071.25
656.779499560176	1058.75
659.510874801828	1083.25
662.241348014642	1091.5
664.97091984524	1087.25
667.699590938606	1094.5
670.427361938164	1085.25
673.15423348573	1099
675.880206221526	1091.25
678.605280784206	1103
681.329457810829	1103.25
684.05273793692	1097.5
686.775121796389	1103
689.49661002163	1095.25
692.217203243454	1103.25
694.936902091144	1096.75
697.655707192425	1103.5
700.373619173493	1110.25
703.09063865901	1111.75
705.806766272093	1131
708.522002634378	1121
711.236348365946	1109.5
713.94980408538	1120.75
716.662370409762	1117
719.374047954676	1104.75
722.08483733419	1115.25
724.794739160909	1109.5
727.503754045949	1123.5
730.21188259892	1116
732.919125427998	1133.5
735.625483139855	1126.75
738.330956339723	1124
741.035545631374	1121.5
743.739251617106	1130.75
746.44207489779	1133.75
749.144016072852	1131.5
751.845075740272	1137.75
754.545254496603	1146
757.244552936976	1154.5
759.94297165508	1147.25
762.640511243222	1146.25
765.337172292249	1149.75
768.032955391649	1135
770.727861129482	1142.25
773.421890092413	1166.75
776.11504286572	1153.5
778.807320033298	1148
781.49872217765	1149.75
784.18924987991	1160.5
786.87890371984	1148.5
789.567684275826	1148.5
792.255592124908	1165
794.94262784276	1150.25
797.628792003703	1164.25
800.314085180715	1158.25
802.998507945427	1164.5
805.682060868145	1168
808.364744517821	1179
811.046559462105	1152.25
813.727506267311	1171.25
816.407585498422	1176.75
819.08679771913	1187.25
821.765143491822	1180
824.442623377563	1181.75
827.119237936127	1197
829.794987726003	1192.5
832.469873304377	1181.5
835.143895227167	1175.75
837.817054048985	1189.5
840.489350323205	1209
843.160784601892	1198
845.831357435894	1199.5
848.501069374739	1213.5
851.169920966753	1204.5
853.837912758987	1214.25
856.505045297232	1210.5
859.171319126071	1219.75
861.836734788823	1224.5
864.501292827579	1215.5
867.164993783208	1206.5
869.827838195361	1203.75
872.489826602454	1227.5
875.150959541701	1226.75
877.811237549104	1205.75
880.470661159456	1217.5
883.129230906357	1219.25
885.786947322205	1202
888.443810938206	1210.75
891.099822284385	1214.75
893.754981889586	1218
896.409290281452	1205.5
899.062747986485	1215
901.715355529999	1217.25
904.367113436154	1218.25
907.01802222793	1232
909.668082427172	1212.25
912.317294554574	1230
914.965659129659	1241.5
917.613176670835	1240
920.259847695364	1235
922.90567271936	1231.25
925.550652257825	1223.75
928.194786824621	1235
930.838076932512	1245.75
933.480523093109	1251.25
936.122125816953	1249.5
938.762885613447	1229.75
941.402802990899	1241.75
944.041878456523	1260.25
946.680112516428	1248.25
949.31750567563	1261.25
951.954058438081	1253.25
954.589771306633	1256.75
957.224644783048	1261
959.858679368044	1274.75
962.491875561238	1249.75
965.12423386121	1244.75
967.75575476545	1242
970.386438770423	1263.5
973.016286371501	1252.75
975.645298063046	1256.5
978.273474338355	1271
980.900815689674	1257.5
983.527322608243	1243
986.152995584245	1267.25
988.777835106834	1285.5
991.401841664148	1273.75
994.025015743307	1264.5
996.647357830407	1275.5
999.268868410534	1273.25
1001.88954796777	1279
1004.50939698518	1285.75
1007.12841594484	1282.5
1009.74660532783	1286
1012.36396561423	1302.75
1014.98049728314	1285.25
1017.59620081267	1283
1020.21107667995	1288.75
1022.82512536112	1302.75
1025.43834733138	1316.75
1028.05074306493	1300.25
1030.66231303501	1296.25
1033.27305771392	1314
1035.88297757299	1300.75
1038.49207308257	1300
1041.10034471211	1304.25
1043.70779293008	1328.75
1046.31441820402	1314.75
1048.92022100052	1331.5
1051.52520178525	1346
1054.12936102295	1364
1056.73269917742	1396.75
1059.33521671154	1420.75
1061.93691408729	1423.75
1064.53779176571	1422
1067.13785020694	1376.25
1069.73708987022	1364.75
1072.33551121386	1375.75
1074.93311469528	1362.75
1077.52990077103	1358.75
1080.12586989674	1376.75
1082.72102252714	1432
1085.31535911611	1466
1087.90888011663	1446.5
1090.50158598078	1396.75
1093.09347715979	1382
1095.68455410403	1342.5
1098.27481726296	1344.75
1100.86426708523	1342.25
1103.45290401857	1362
1106.04072850991	1326.75
1108.6277410053	1338
1111.21394194993	1337
1113.79933178816	1343
1116.3839109635	1371.25
1118.96767991862	1391.75
1121.55063909539	1389
1124.13278893477	1445
1126.71412987696	1467.25
1129.29466236132	1437.75
1131.87438682637	1427.25
1134.45330370982	1386.25
1137.03141344858	1373.25
1139.60871647872	1359
1142.18521323554	1353.75
1144.7609041535	1358.25
1147.33578966629	1338.5
1149.90987020676	1368.25
1152.48314620702	1373.5
1155.05561809835	1362
1157.62728631125	1363.25
1160.19815127545	1364.25
1162.76821341988	1375
1165.33747317271	1385.75
1167.90593096133	1378
1170.47358721235	1365.75
1173.04044235163	1370.5
1175.60649680425	1368.75
1178.17175099454	1366.25
1180.73620534607	1366.5
1183.29986028165	1367.75
1185.86271622336	1370
1188.42477359249	1347.75
1190.98603280964	1352.25
1193.54649429462	1347.25
1196.10615846653	1366.75
1198.66502574372	1366.25
1201.22309654385	1355
1203.78037128378	1377.75
1206.33685037971	1352.75
1208.89253424709	1370.5
1211.44742330063	1356
1214.00151795438	1359
1216.55481862163	1365.5
1219.10732571497	1373.25
1221.65903964631	1380.25
1224.20996082683	1355.75
1226.760089667	1377.5
1229.30942657664	1364
1231.85797196483	1362.75
1234.40572623998	1371.25
1236.95268980981	1379
1239.49886308136	1379.5
1242.04424646098	1383
1244.58884035435	1357.5
1247.13264516647	1375.25
1249.67566130166	1396.25
1252.21788916358	1369.25
1254.75932915524	1400
1257.29998167896	1395.5
1259.83984713639	1397.5
1262.37892592857	1387.75
1264.91721845586	1406.25
1267.45472511795	1408
1269.9914463139	1408.25
1272.52738244213	1419.75
1275.0625339004	1412.5
1277.59690108587	1408.5
1280.130484395	1415.5
1282.66328422367	1425.25
1285.19530096712	1437.25
1287.72653501993	1446
1290.25698677608	1498
1292.78665662894	1561.25
1295.31554497125	1618
1297.8436521951	1567.5
1300.37097869203	1521.5
1302.89752485292	1494
1305.42329106805	1464.75
1307.94827772713	1466.25
1310.47248521921	1451
1312.99591393279	1454
1315.51856425575	1456
1318.04043657536	1455.5
1320.56153127836	1457.5
1323.08184875083	1459.75
1325.6013893783	1446.75
1328.12015354572	1457.5
1330.63814163744	1444.75
1333.15535403727	1435
1335.67179112839	1469.75
1338.18745329347	1446.5
1340.70234091454	1444.25
1343.21645437314	1450.75
1345.72979405019	1473.25
1348.24236032607	1458.5
1350.75415358059	1465.5
1353.26517419303	1481.5
1355.7754225421	1490
1358.28489900594	1473.75
1360.79360396218	1475.25
1363.30153778787	1486
1365.80870085955	1490.25
1368.31509355319	1465.25
1370.82071624424	1450.25
1373.32556930762	1458
1375.8296531177	1447.5
1378.33296804832	1459.5
1380.83551447282	1460.75
1383.33729276399	1456.75
1385.83830329408	1450.75
1388.33854643489	1451.25
1390.83802255762	1446.75
1393.33673203301	1430.25
1395.83467523128	1444.75
1398.33185252211	1457.75
1400.82826427471	1435.25
1403.32391085777	1446.5
1405.81879263947	1440.25
1408.31290998752	1452
1410.80626326908	1456.5
1413.29885285087	1495.75
1415.79067909909	1495.25
1418.28174237944	1518
1420.77204305717	1502.25
1423.26158149702	1508.25
1425.75035806323	1503.25
1428.2383731196	1500.5
1430.72562702942	1574.75
1433.21212015554	1581.25
1435.69785286028	1642.5
1438.18282550555	1643.75
1440.66703845275	1659.5
1443.15049206284	1642.25
1445.6331866963	1599.25
1448.11512271316	1619.25
1450.59630047298	1584.75
1453.07672033486	1593
1455.55638265748	1579.25
1458.03528779902	1590.5
1460.51343611725	1598.5
1462.99082796946	1584.25
1465.46746371252	1567.5
1467.94334370285	1548.75
1470.41846829642	1557.25
1472.89283784878	1516.25
1475.36645271503	1524.25
1477.83931324983	1529.75
1480.31141980743	1509.75
1482.78277274164	1510.75
1485.25337240583	1508.75
1487.72321915297	1487.5
1490.19231333557	1479.25
1492.66065530578	1471
1495.12824541525	1475
1497.5950840153	1479.25
1500.06117145678	1486
1502.52650809014	1507.25
1504.99109426543	1494.75
1507.45493033227	1482
1509.91801663992	1492.5
1512.38035353717	1490
1514.84194137248	1514.5
1517.30278049386	1482
1519.76287124894	1509.25
1522.22221398497	1487.25
1524.68080904876	1507.75
1527.13865678681	1494
1529.59575754514	1515
1532.05211166945	1495.75
1534.50771950503	1516.5
1536.96258139678	1503.75
1539.41669768924	1517.5
1541.87006872656	1512.5
1544.32269485252	1510
1546.77457641051	1500.75
1549.22571374357	1524.25
1551.67610719434	1495.75
1554.12575710513	1514.75
1556.57466381785	1520
1559.02282767408	1532.5
1561.47024901499	1527.75
1563.91692818144	1534.75
1566.3628655139	1534.75
1568.80806135249	1530
1571.252516037	1537.75
1573.6962299068	1549.25
1576.13920330099	1545
1578.58143655828	1547.75
1581.02293001704	1546.5
1583.46368401528	1564.75
1585.90369889071	1564.25
1588.34297498065	1568
1590.7815126221	1550.25
1593.21931215173	1563.25
1595.65637390588	1558.75
1598.09269822053	1549
1600.52828543135	1554.5
1602.96313587367	1572.25
1605.3972498825	1557.25
1607.83062779252	1532.5
1610.26326993808	1549.25
1612.69517665322	1545.75
1615.12634827165	1563
1617.55678512676	1562.25
1619.98648755163	1552.5
1622.41545587902	1538.75
1624.84369044138	1526
1627.27119157085	1546.5
1629.69795959924	1550.5
1632.12399485808	1546
1634.54929767859	1549.25
1636.97386839165	1556.25
1639.39770732789	1540.75
1641.8208148176	1544
1644.24319119078	1545.5
1646.66483677715	1559.75
1649.0857519061	1546
1651.50593690677	1555.5
1653.92539210795	1544
1656.3441178382	1557.5
1658.76211442575	1562.25
1661.17938219855	1570.75
1663.59592148428	1561.75
1666.01173261032	1584
1668.42681590377	1585.25
1670.84117169145	1569.25
1673.25480029991	1584
1675.66770205541	1571.25
1678.07987728393	1589.25
1680.49132631119	1620.25
1682.90204946263	1617.25
1685.31204706342	1586.25
1687.72131943846	1592.5
1690.1298669124	1596.25
1692.53768980957	1607.75
1694.94478845411	1602.5
1697.35116316982	1603
1699.75681428031	1619.5
1702.16174210887	1606.25
1704.56594697858	1637.25
1706.96942921222	1622.75
1709.37218913235	1614.75
1711.77422706125	1630.5
1714.17554332098	1608.25
1716.5761382333	1628.25
1718.97601211977	1623.25
1721.37516530169	1614.75
1723.77359810006	1613.5
1726.17131083572	1609
1728.56830382922	1628
1730.96457740087	1621.25
1733.36013187075	1613.25
1735.75496755868	1633
1738.14908478428	1624.75
1740.54248386689	1628.25
1742.93516512565	1621.5
1745.32712887946	1618.75
1747.71837544697	1623
1750.10890514662	1628.75
1752.49871829661	1611.25
1754.88781521492	1633
1757.27619621929	1618.75
1759.66386162726	1634
1762.05081175612	1630.75
1764.43704692297	1617.25
1766.82256744465	1634.5
1769.20737363782	1628.25
1771.59146581887	1639.5
1773.97484430405	1638.5
1776.35750940932	1646.5
1778.73946145048	1625.25
1781.12070074309	1657.75
1783.50122760249	1647.5
1785.88104234385	1660.25
1788.26014528209	1642.25
1790.63853673196	1638.25
1793.01621700796	1654.5
1795.39318642443	1651.75
1797.76944529549	1654
1800.14499393503	1676.25
1802.51983265681	1640.25
1804.8939617743	1703.25
1807.26738160085	1683.5
1809.64009244957	1661
1812.01209463339	1676
1814.38338846504	1661
1816.75397425706	1676.5
1819.12385232181	1688
1821.49302297142	1701.75
1823.86148651789	1671.5
1826.22924327299	1663.5
1828.59629354831	1681.5
1830.96263765526	1671.75
1833.32827590507	1691.5
1835.69320860877	1702.25
1838.05743607724	1695.25
1840.42095862113	1685.5
1842.78377655097	1690.75
1845.14589017707	1690
1847.50729980956	1703.25
1849.86800575843	1674.25
1852.22800833346	1702.75
1854.58730784427	1687
1856.94590460032	1709.25
1859.30379891087	1698.75
1861.66099108503	1689
1864.01748143175	1702.25
1866.37327025978	1719.25
1868.72835787773	1707
1871.08274459403	1700.25
1873.43643071697	1723.5
1875.78941655464	1717
1878.14170241498	1738.5
1880.4932886058	1714.5
1882.84417543469	1727.5
1885.19436320915	1727
1887.54385223646	1722.5
1889.89264282378	1739.5
1892.24073527809	1755.5
1894.58812990625	1757
1896.93482701493	1753.25
1899.28082691067	1736
1901.62612989984	1771.75
1903.97073628868	1762.75
1906.31464638326	1768
1908.6578604895	1763.5
1911.00037891321	1789.5
1913.34220196	1786.25
1915.68332993537	1782.5
1918.02376314468	1791.75
1920.36350189311	1783.5
1922.70254648573	1818.25
1925.04089722744	1795.75
1927.37855442303	1812.25
1929.71551837715	1814.75
1932.05178939426	1809.75
1934.38736777876	1787.5
1936.72225383484	1800.5
1939.0564478666	1820
1941.38995017799	1809.75
1943.72276107283	1803.5
1946.05488085479	1812.25
1948.38630982744	1776.5
1950.71704829419	1816
1953.04709655832	1800.5
1955.376454923	1810.25
1957.70512369126	1821.5
1960.03310316599	1806.25
1962.36039364999	1800
1964.68699544589	1808.5
1967.01290885622	1801.25
1969.33813418338	1805.5
1971.66267172965	1835.5
1973.98652179718	1826
1976.309684688	1815.5
1978.63216070402	1840
1980.95395014705	1849.25
1983.27505331873	1832
1985.59547052063	1850.5
1987.9152020542	1836.5
1990.23424822074	1845
1992.55260932146	1821.5
1994.87028565746	1866.75
1997.18727752968	1854
1999.503585239	1869.5
2001.81920908618	1866
2004.13414937184	1847.25
2006.44840639651	1863.25
2008.7619804606	1883.25
2011.07487186442	1877.25
2013.38708090815	1891.25
2015.6986078919	1895.25
2018.00945311564	1904.25
2020.31961687923	1896
2022.62909948246	1918.75
2024.93790122498	1883.5
2027.24602240636	1919.25
2029.55346332604	1925.25
2031.86022428337	1934.75
2034.16630557761	1909.75
2036.47170750791	1949
2038.77643037331	1947.75
2041.08047447275	1942.25
2043.38384010509	1925.5
2045.68652756907	1950.5
2047.98853716335	1977
2050.28986918648	1909.75
2052.59052393692	1951.25
2054.89050171302	1974.75
2057.18980281306	1954.75
2059.4884275352	1968
2061.78637617753	1981.75
2064.08364903802	1974
2066.38024641457	1963.75
2068.67616860497	1983
2070.97141590694	1928.75
2073.26598861809	1959.75
2075.55988703595	1950
2077.85311145796	1978.25
2080.14566218145	1988
2082.43753950371	1970.5
2084.72874372188	1952.75
2087.01927513307	1965
2089.30913403428	1978.75
2091.59832072241	1992.25
2093.88683549429	1979.25
2096.17467864666	1992.5
2098.46185047619	1979.5
2100.74835127944	1999.25
2103.03418135292	1989.25
2105.31934099303	2000
2107.6038304961	2011
2109.88765015838	2010
2112.17080027602	2019
2114.45328114513	2017.25
2116.7350930617	1997
2119.01623632165	2027.25
2121.29671122085	2023.75
2123.57651805505	2028.25
2125.85565711996	2051.25
2128.13412871117	2022
2130.41193312424	2053.25
2132.68907065462	2042.5
2134.96554159771	2048.75
2137.24134624881	2016.75
2139.51648490317	2043.25
2141.79095785593	2074.25
2144.0647654022	2055.5
2146.33790783698	2044.25
2148.61038545524	2068.75
2150.88219855182	2105
2153.15334742154	2085.25
2155.42383235911	2104.25
2157.6936536592	2073.75
2159.9628116164	2120
2162.23130652522	2106.75
2164.49913868011	2111.5
2166.76630837544	2095.5
2169.03281590552	2115.25
2171.2986615646	2104.5
2173.56384564685	2115
2175.82836844637	2104.25
2178.0922302572	2117.25
2180.35543137332	2139.75
2182.61797208862	2124.25
2184.87985269695	2100
2187.14107349208	2114
2189.40163476773	2138.25
2191.66153681753	2126
2193.92077993507	2135.5
2196.17936441386	2135.75
2198.43729054735	2127.5
2200.69455862894	2106.25
2202.95116895194	2144.5
2205.20712180962	2152.5
2207.46241749519	2143
2209.71705630179	2142.5
2211.97103852248	2148.5
2214.2243644503	2134.25
2216.47703437819	2130
2218.72904859905	2143
2220.98040740571	2151.25
2223.23111109095	2150.5
2225.4811599475	2158
2227.73055426799	2164.25
2229.97929434504	2134
2232.22738047118	2146.25
2234.47481293889	2150.25
2236.72159204058	2192.25
2238.96771806864	2183.5
2241.21319131536	2166.5
2243.458012073	2171.25
2245.70218063374	2162.25
2247.94569728973	2190.75
2250.18856233304	2190.5
2252.4307760557	2158.25
2254.67233874967	2170.75
2256.91325070687	2187.25
2259.15351221915	2183.75
2261.39312357831	2192
2263.63208507611	2189.25
2265.87039700422	2195.5
2268.1080596543	2208.25
2270.34507331792	2192
2272.5814382866	2199.75
2274.81715485183	2221
2277.05222330502	2228.75
2279.28664393755	2230.5
2281.52041704072	2208.25
2283.75354290581	2210.75
2285.98602182401	2224.5
2288.21785408648	2209.5
2290.44903998434	2240.75
2292.67957980862	2228
2294.90947385033	2231
2297.1387224004	2227.25
2299.36732574975	2218.5
2301.59528418921	2249.75
2303.82259800958	2253.25
2306.04926750158	2232.75
2308.27529295593	2235.25
2310.50067466325	2258.75
2312.72541291412	2232.25
2314.9495079991	2265.75
2317.17296020866	2249.25
2319.39576983323	2269.75
2321.61793716322	2240
2323.83946248894	2261.25
2326.06034610069	2263
2328.28058828871	2253.25
2330.50018934317	2259
2332.7191495542	2270.5
2334.93746921192	2277.25
2337.15514860633	2272.75
2339.37218802743	2249.25
2341.58858776516	2237.75
2343.80434810941	2280
2346.01946935001	2245.5
2348.23395177675	2283.5
2350.44779567939	2260.75
2352.66100134759	2300.25
2354.87356907101	2291.5
2357.08549913925	2271
2359.29679184185	2291.25
2361.50744746829	2280.75
2363.71746630804	2272
2365.92684865048	2293.75
2368.13559478499	2292.5
2370.34370500083	2283
2372.55117958727	2275.25
2374.75801883352	2284.75
2376.96422302874	2299.5
2379.16979246202	2314
2381.37472742243	2262.25
2383.57902819898	2290.25
2385.78269508063	2294.75
2387.98572835629	2257.5
2390.18812831482	2278
2392.38989524505	2302.75
2394.59102943573	2274.25
2396.79153117559	2300.75
2398.9914007533	2261.5
2401.19063845748	2279.25
2403.38924457672	2289.75
2405.58721939951	2296.75
2407.78456321435	2299.5
2409.98127630966	2291.25
2412.17735897382	2315.25
2414.37281149517	2305
2416.56763416198	2310
2418.76182726249	2322
2420.95539108487	2289.75
2423.14832591726	2296.75
2425.34063204776	2293.75
2427.53230976439	2297.5
2429.72335935513	2286.75
2431.91378110795	2274.75
2434.10357531071	2287.5
2436.29274225125	2290.25
2438.48128221739	2293.25
2440.66919549683	2306.75
2442.8564823773	2309.75
2445.04314314641	2291.5
2447.22917809176	2278
2449.4145875009	2293.25
2451.59937166131	2297.75
2453.78353086044	2288.25
2455.96706538568	2315.5
2458.14997552436	2301.75
2460.33226156379	2283.25
2462.51392379119	2309.25
2464.69496249376	2275.5
2466.87537795862	2279.5
2469.05517047288	2277.25
2471.23434032357	2294
2473.41288779767	2290.5
2475.59081318211	2285
2477.76811676378	2284
2479.9447988295	2294.75
2482.12085966605	2265
2484.29629956016	2293.5
2486.4711187985	2291
2488.64531766769	2274
2490.8188964543	2267.75
2492.99185544484	2264.5
2495.16419492579	2294.25
2497.33591518353	2292.75
2499.50701650444	2271.25
2501.67749917482	2294.25
2503.84736348091	2279.5
2506.01660970891	2298.25
2508.18523814496	2282.5
2510.35324907514	2291.25
2512.52064278551	2313.5
2514.68741956201	2321.5
2516.85357969058	2316.5
2519.01912345709	2292.5
2521.18405114735	2324.5
2523.34836304711	2335
2525.51205944208	2319
2527.6751406179	2307.25
2529.83760686016	2332.25
2531.99945845439	2312.75
2534.16069568606	2317.5
2536.3213188406	2320.75
2538.48132820336	2309.25
2540.64072405965	2325.5
2542.79950669471	2327.25
2544.95767639373	2345
2547.11523344184	2312.75
2549.27217812411	2306
2551.42851072555	2328.25
2553.58423153111	2334.5
2555.73934082569	2325.25
2557.89383889412	2310.25
2560.04772602118	2333.5
2562.20100249158	2312
2564.35366858996	2331.75
2566.50572460093	2319.25
2568.65717080901	2316.75
2570.80800749867	2325.5
2572.95823495433	2335.75
2575.10785346031	2307.75
2577.25686330093	2330.25
2579.40526476038	2313
2581.55305812282	2325.5
2583.70024367237	2320.75
2585.84682169303	2319.25
2587.99279246879	2333.25
2590.13815628354	2330.75
2592.28291342112	2318.5
2594.42706416531	2304
2596.5706087998	2297
2598.71354760826	2312.5
2600.85588087425	2315
2602.99760888127	2318.25
2605.13873191278	2306.75
2607.27925025214	2307.75
2609.41916418269	2346
2611.55847398764	2329.75
2613.69717995017	2302.5
2615.83528235339	2321.75
2617.97278148034	2330.5
2620.10967761398	2324.5
2622.2459710372	2310.75
2624.38166203284	2352.25
2626.51675088365	2338
2628.65123787231	2357
2630.78512328145	2304
2632.9184073936	2323.75
2635.05109049124	2319.25
2637.18317285676	2346.75
2639.31465477248	2336.5
2641.44553652067	2362.25
2643.5758183835	2336.5
2645.70550064309	2349.25
2647.83458358144	2356
2649.96306748053	2362
2652.09095262223	2374.75
2654.21823928836	2352.5
2656.34492776063	2325
2658.47101832071	2349
2660.59651125015	2377.5
2662.72140683047	2337.75
2664.84570534309	2344.75
2666.96940706934	2365.5
2669.0925122905	2348.25
2671.21502128773	2354.25
2673.33693434215	2346.75
2675.45825173479	2369
2677.57897374658	2361.25
2679.69910065839	2384.75
2681.818632751	2376.25
2683.93757030511	2407.75
2686.05591360133	2377.75
2688.17366292021	2385.25
2690.29081854218	2362.25
2692.40738074762	2353.5
2694.52334981681	2383
2696.63872602995	2385.5
2698.75350966713	2372.25
2700.86770100841	2413.5
2702.98130033371	2402.25
2705.09430792289	2414.75
2707.20672405571	2423.75
2709.31854901185	2432.5
2711.42978307091	2441.5
2713.54042651238	2439.75
2715.65047961567	2484.5
2717.7599426601	2442.5
2719.86881592491	2463.5
2721.97709968924	2462.5
2724.08479423213	2431
2726.19189983255	2443.5
2728.29841676934	2430.75
2730.4043453213	2426
2732.5096857671	2402.75
2734.61443838532	2418.75
2736.71860345444	2388
2738.82218125286	2398.75
2740.92517205889	2413
2743.02757615072	2401.25
2745.12939380646	2358.5
2747.23062530411	2380.75
2749.33127092159	2377.5
2751.4313309367	2383.5
2753.53080562716	2396.25
2755.62969527058	2396.25
2757.72800014448	2378.75
2759.82572052625	2368.75
2761.92285669323	2384.75
2764.0194089226	2404.25
2766.11537749147	2392.25
2768.21076267686	2369
2770.30556475566	2378
2772.39978400465	2393.75
2774.49342070054	2390.5
2776.58647511991	2404
2778.67894753923	2408.5
2780.77083823487	2373.75
2782.8621474831	2372
2784.95287556007	2370.5
2787.04302274184	2366.75
2789.13258930433	2402.25
2791.22157552338	2393.25
2793.30998167471	2413
2795.39780803392	2405.25
2797.4850548765	2403.5
2799.57172247786	2392.75
2801.65781111324	2412
2803.74332105781	2400
2805.82825258661	2401
2807.91260597457	2396.25
2809.9963814965	2411.5
2812.07957942711	2442
2814.16220004096	2437.75
2816.24424361252	2436.5
2818.32571041614	2487.5
2820.40660072604	2454
2822.48691481631	2495
2824.56665296098	2520
2826.64581543388	2536.25
2828.72440250876	2625
2830.80241445925	2675.75
2832.87985155885	2795.25
2834.95671408093	2955.25
2837.03300229875	3108
2839.10871648544	3347.75
2841.18385691399	3628
2843.25842385729	3928.75
2845.33241758808	4165.5
2847.40583837898	4307.25
2849.4786865025	4347.75
2851.550962231	4311.25
2853.6226658367	4116
2855.69379759173	3983.5
2857.76435776806	3844.25
2859.83434663753	3770.5
2861.90376447184	3638.25
2863.97261154259	3565.25
2866.0408881212	3568.5
2868.10859447901	3491
2870.17573088717	3557
2872.24229761673	3614
2874.30829493859	3756.75
2876.37372312352	3956.75
2878.43858244215	4300
2880.50287316496	4623.75
2882.56659556231	4579.75
2884.62974990439	4213.75
2886.69233646129	3892
2888.75435550293	3667.75
2890.81580729909	3656.75
2892.87669211941	3571
2894.93701023339	3528.75
2896.99676191039	3520.25
2899.05594741961	3523
2901.1145670301	3462.75
2903.1726210108	3371
2905.23010963045	3382.5
2907.28703315768	3290.25
2909.34339186096	3289.25
2911.39918600861	3244.5
2913.45441586879	3202.25
2915.50908170952	3160.25
2917.56318379867	3187.75
2919.61672240395	3191.5
2921.66969779291	3182.75
2923.72211023295	3187.75
2925.77395999134	3155.25
2927.82524733515	3169.25
2929.87597253132	3126.5
2931.92613584663	3087.5
2933.97573754769	3049.75
2936.02477790097	2993
2938.07325717276	2905.75
2940.1211756292	2833
2942.16853353626	2737.75
2944.21533115976	2681
2946.26156876536	2640.25
2948.30724661853	2594.75
2950.3523649846	2557
2952.39692412872	2577
2954.44092431587	2535
2956.48436581089	2505.75
2958.52724887843	2482.75
2960.56957378296	2493.5
2962.6113407888	2498.75
2964.65255016011	2502.75
2966.69320216083	2489.75
2968.73329705479	2487.75
2970.77283510559	2459.5
2972.81181657671	2462
2974.8502417314	2461.5
2976.88811083279	2462.75
2978.92542414378	2465.75
2980.96218192713	2448.25
2982.99838444541	2484.5
2985.034031961	2460
2987.06912473612	2452.5
2989.1036630328	2466.75
2991.13764711288	2438
2993.17107723804	2452.25
2995.20395366974	2454.75
2997.23627666931	2478.5
2999.26804649782	2453.5
3001.29926341624	2461
3003.32992768528	2466.25
3005.3600395655	2459
3007.38959931726	2448.25
3009.41860720076	2478.25
3011.44706347595	2484
3013.47496840263	2456.5
3015.50232224041	2497.75
3017.5291252487	2450.25
3019.5553776867	2471
3021.58107981344	2476.75
3023.60623188773	2491.25
3025.63083416822	2513.25
3027.65488691331	2481.5
3029.67839038125	2488.5
3031.70134483007	2484.25
3033.72375051759	2512.75
3035.74560770144	2502
3037.76691663907	2484
3039.78767758768	2494.5
3041.80789080431	2471.25
3043.82755654577	2505.75
3045.84667506867	2480.5
3047.8652466294	2484.75
3049.88327148418	2484.75
3051.90074988899	2463
3053.91768209961	2476.25
3055.9340683716	2500.5
3057.94990896033	2483.5
3059.96520412095	2491.5
3061.97995410838	2499
3063.99415917734	2512.5
3066.00781958234	2487.25
3068.02093557766	2491
3070.03350741738	2479.5
3072.04553535535	2480.25
3074.05701964521	2495.5
3076.06796054036	2453.25
3078.078358294	2489.5
3080.08821315912	2476
3082.09752538846	2479.25
3084.10629523454	2464.75
3086.11452294967	2502.25
3088.12220878592	2473.75
3090.12935299515	2503.5
3092.13595582898	2462.25
3094.1420175388	2461.75
3096.14753837579	2480.5
3098.15251859088	2478
3100.15695843477	2476.5
3102.16085815793	2478
3104.16421801061	2468.5
3106.16703824282	2475.5
3108.16931910432	2478.5
3110.17106084464	2462.75
3112.17226371308	2529
3114.17292795872	2484.75
3116.17305383034	2497.5
3118.17264157657	2443.5
3120.17169144571	2492.5
3122.17020368587	2474.75
3124.16817854492	2495.75
3126.16561627044	2508.75
3128.16251710982	2515.75
3130.15888131017	2546.75
3132.15470911837	2510.5
3134.15000078104	2512.5
3136.14475654455	2503.75
3138.13897665502	2527.5
3140.13266135835	2499.75
3142.12581090014	2491
3144.11842552577	2536.75
3146.11050548036	2548.25
3148.10205100875	2523.5
3150.09306235557	2533.5
3152.08353976515	2509.25
3154.07348348158	2466
3156.06289374869	2510
3158.05177081006	2523.25
3160.04011490899	2544.25
3162.02792628852	2552.75
3164.01520519145	2533.75
3166.00195186029	2531
3167.98816653728	2532.25
3169.97384946442	2525
3171.95900088344	2511.5
3173.94362103577	2513.75
3175.92771016259	2529.25
3177.91126850484	2525.75
3179.89429630312	2528.5
3181.87679379782	2512.75
3183.85876122903	2532
3185.84019883657	2573
3187.82110685997	2556.5
3189.80148553851	2527.5
3191.78133511116	2541.75
3193.76065581664	2532
3195.73944789337	2541.75
3197.7177115795	2529.25
3199.6954471129	2539.25
3201.67265473114	2566.75
3203.64933467153	2575.5
3205.62548717107	2538
3207.60111246648	2529.5
3209.57621079421	2553
3211.55078239041	2556.5
3213.52482749093	2552.75
3215.49834633133	2551.75
3217.4713391469	2531.75
3219.44380617262	2559.5
3221.41574764317	2566.5
3223.38716379296	2560
3225.35805485607	2574
3227.32842106631	2601
3229.29826265718	2609.75
3231.26757986187	2588.5
3233.2363729133	2570.5
3235.20464204405	2554
3237.17238748643	2628.25
3239.13960947243	2585.75
3241.10630823374	2590.25
3243.07248400174	2603.5
3245.03813700748	2613.5
3247.00326748177	2607.25
3248.96787565503	2607.5
3250.93196175742	2637.25
3252.89552601877	2585.25
3254.8585686686	2620.75
3256.82108993612	2625.75
3258.78309005022	2640.75
3260.74456923948	2649.25
3262.70552773215	2627
3264.66596575617	2652.25
3266.62588353916	2618.25
3268.58528130843	2628.75
3270.54415929094	2600.25
3272.50251771336	2633.5
3274.46035680201	2632.25
3276.4176767829	2652.25
3278.37447788171	2599.75
3280.33076032379	2649.5
3282.28652433416	2649.5
3284.24177013751	2625.5
3286.1964979582	2642.25
3288.15070802027	2644.5
3290.10440054741	2631.5
3292.05757576298	2617
3294.01023389001	2637
3295.96237515119	2636.75
3297.91399976887	2657
3299.86510796506	2618.5
3301.81569996142	2660
3303.76577597932	2643.25
3305.7153362397	2642
3307.66438096324	2648.5
3309.61291037024	2619.25
3311.56092468064	2641.25
3313.50842411404	2637.5
3315.45540888971	2648.25
3317.40187922656	2598
3319.34783534315	2638.5
3321.29327745768	2629.5
3323.23820578801	2618
3325.18262055164	2636
3327.1265219657	2658.75
3329.06991024699	2628.25
3331.01278561194	2636.25
3332.95514827662	2621
3334.89699845674	2638.25
3336.83833636766	2660.75
3338.77916222434	2613
3340.71947624143	2636.75
3342.65927863317	2643.5
3344.59856961346	2624.25
3346.53734939584	2652
3348.47561819344	2627.25
3350.41337621906	2656.5
3352.35062368513	2638.5
3354.28736080368	2641.75
3356.22358778637	2630.25
3358.15930484452	2618.5
3360.09451218904	2666.5
3362.02921003047	2660.5
3363.96339857898	2676.5
3365.89707804436	2652.25
3367.83024863602	2653.25
3369.76291056299	2651.5
3371.69506403389	2652.5
3373.62670925699	2636.25
3375.55784644016	2663.75
3377.4884757909	2640
3379.41859751629	2666.5
3381.34821182305	2667.5
3383.27731891749	2674.75
3385.20591900555	2661.5
3387.13401229276	2692.75
3389.06159898426	2641.25
3390.9886792848	2705
3392.91525339872	2677
3394.84132152998	2679.75
3396.76688388213	2687.75
3398.69194065833	2683.25
3400.61649206133	2703.5
3402.54053829348	2696.5
3404.46407955672	2685.25
3406.3871160526	2727.25
3408.30964798225	2706.75
3410.23167554639	2703.75
3412.15319894535	2706.25
3414.07421837904	2717
3415.99473404695	2755.25
3417.91474614817	2736.75
3419.83425488136	2722.25
3421.75326044479	2704
3423.67176303631	2706
3425.58976285332	2736.5
3427.50726009282	2695
3429.42425495143	2697.25
3431.34074762528	2755.25
3433.25673831012	2703
3435.17222720127	2715.75
3437.08721449362	2708.75
3439.00170038164	2672.5
3440.91568505936	2689.25
3442.82916872039	2711.75
3444.74215155791	2717.5
3446.65463376468	2694.75
3448.566615533	2714.25
3450.47809705476	2678.5
3452.3890785214	2728
3454.29956012393	2724
3456.20954205293	2729
3458.11902449853	2708
3460.02800765041	2732.5
3461.93649169784	2713.25
3463.84447682962	2697.75
3465.75196323412	2690.5
3467.65895109925	2713
3469.56544061249	2695.5
3471.47143196086	2695.75
3473.37692533093	2693.75
3475.28192090884	2700.25
3477.18641888026	2702.25
3479.09041943039	2729
3480.99392274402	2706.75
3482.89692900545	2714.5
3484.79943839853	2695.75
3486.70145110666	2701.75
3488.60296731277	2690
3490.50398719933	2684.5
3492.40451094836	2672.5
3494.30453874141	2720.5
3496.20407075956	2703.25
3498.10310718342	2718.5
3500.00164819315	2704.5