201.866871357053	1154
204.754250281456	1146.25
207.640596790939	1153
210.525911876301	1178.75
213.41019652569	1167.5
216.293451724511	1152
219.175678455486	1157.25
222.056877698663	1173
224.937050431391	1160.25
227.816197628365	1157.25
230.694320261604	1182
233.571419300504	1158.75
236.447495711765	1179.25
239.322550459507	1173.25
242.196584505184	1190.25
245.069598807628	1175.25
247.94159432308	1178.25
250.812572005157	1189
253.682532804885	1187
256.551477670701	1190.25
259.419407548458	1182.25
262.286323381442	1181.5
265.152226110364	1190.25
268.017116673389	1191.5
270.880996006118	1165.75
273.743865041624	1202
276.605724710438	1176.75
279.466575940565	1204.75
282.326419657499	1186.75
285.185256784201	1200.25
288.04308824116	1193.25
290.899914946356	1213
293.75573781526	1200
296.610557760899	1204.5
299.464375693819	1211.25
302.317192522079	1199.75
305.169009151297	1216
308.019826484655	1221
310.869645422872	1211.5
313.718466864235	1212.25
316.566291704615	1203.5
319.41312083746	1198
322.258955153805	1201.25
325.103795542294	1214.5
327.947642889129	1204.25
330.79049807819	1219
333.63236199093	1222.75
336.473235506447	1203
339.313119501453	1209.75
342.152014850323	1226.25
344.989922425064	1229.25
347.826843095356	1217
350.662777728529	1225.75
353.497727189577	1231
356.331692341196	1231
359.164674043732	1229.5
361.996673155267	1227.5
364.827690531538	1235.75
367.657727026021	1243
370.486783489887	1233.5
373.314860772046	1248.5
376.14195971912	1237.25
378.968081175469	1244.75
381.793225983214	1251.75
384.617394982201	1246.75
387.44058901005	1270
390.262808902134	1246.25
393.084055491614	1246
395.904329609395	1237
398.723632084216	1264.25
401.541963742572	1243
404.359325408781	1244.75
407.17571790494	1260
409.991142050985	1266
412.805598664665	1255.75
415.619088561551	1271.25
418.431612555051	1283.25
421.243171456419	1270
424.05376607476	1272.75
426.86339721702	1255.25
429.672065688025	1266
432.479772290455	1267.5
435.28651782488	1284.5
438.092303089737	1277.75
440.897128881362	1276.25
443.700995993992	1276.5
446.503905219761	1278.25
449.305857348711	1268.75
452.106853168798	1290.5
454.906893465921	1271
457.705979023886	1290.75
460.504110624441	1282.75
463.301289047302	1273.75
466.09751507009	1283.5
468.892789468424	1276.75
471.687113015869	1297.25
474.480486483952	1278.75
477.272910642201	1291
480.064386258111	1283.5
482.854914097161	1272.25
485.644494922841	1284.75
488.433129496637	1301
491.22081857805	1276.25
494.007562924587	1300.75
496.793363291787	1293.75
499.578220433219	1299
502.362135100475	1312
505.145108043209	1309.5
507.927140009101	1294
510.70823174391	1304.5
513.488383991435	1316.25
516.267597493556	1315
519.045872990221	1304.5
521.823211219462	1302.25
524.5996129174	1306.25
527.375078818234	1314.5
530.149609654287	1311
532.923206155968	1330.25
535.695869051803	1307
538.46759906845	1319.5
541.238396930667	1295
544.008263361365	1305
546.777199081581	1307
549.545204810496	1298.75
552.312281265439	1298.75
555.078429161901	1318.25
557.843649213536	1325.25
560.607942132158	1326
563.371308627753	1321
566.133749408497	1315
568.895265180758	1324.75
571.655856649067	1320
574.415524516192	1320.5
577.174269483075	1330.25
579.932092248886	1329.25
582.688993510996	1320.5
585.444973965024	1323
588.200034304796	1326.25
590.954175222372	1322.75
593.707397408072	1340
596.459701550436	1349.75
599.211088336284	1350
601.961558450671	1309.5
604.711112576934	1328.75
607.459751396673	1333.75
610.207475589751	1335
612.954285834339	1353.25
615.70018280688	1316
618.445167182103	1309.5
621.189239633057	1324
623.932400831087	1323.25
626.674651445839	1329.75
629.415992145303	1329.75
632.156423595745	1312.75
634.895946461815	1317
637.634561406448	1312.75
640.372269090962	1334.75
643.109070174981	1327.25
645.84496531651	1341.75
648.579955171891	1326.25
651.314040395848	1323
654.047221641459	1315.75
656.779499560178	1328.25
659.510874801831	1333
662.241348014646	1337
664.970919845243	1340.75
667.699590938608	1348.5
670.427361938164	1345.75
673.154233485732	1324.25
675.880206221526	1342.5
678.605280784208	1349.75
681.329457810832	1336.5
684.052737936921	1351.75
686.77512179639	1351
689.496610021632	1350.75
692.217203243456	1345
694.936902091147	1356.5
697.655707192428	1340.5
700.373619173495	1343.75
703.090638659013	1344
705.806766272093	1348.5
708.522002634379	1344.25
711.236348365948	1356.75
713.949804085381	1352
716.662370409764	1323
719.374047954676	1365.5
722.084837334191	1348.25
724.79473916091	1350
727.50375404595	1351.25
730.21188259892	1342.25
732.919125427998	1344
735.625483139858	1361.5
738.330956339726	1355.75
741.035545631373	1379.25
743.739251617109	1351.75
746.44207489779	1379.5
749.144016072856	1370.25
751.845075740273	1377.75
754.545254496604	1375.5
757.244552936979	1393.5
759.942971655083	1358.5
762.640511243225	1368.75
765.337172292252	1381.5
768.032955391651	1380.25
770.727861129485	1385.25
773.421890092416	1381.25
776.11504286572	1371.5
778.807320033299	1386
781.49872217765	1380.5
784.189249879911	1388.25
786.87890371984	1365.25
789.567684275826	1375.75
792.255592124909	1372
794.942627842762	1400.25
797.628792003709	1365.5
800.314085180718	1385.25
802.998507945429	1378.5
805.682060868145	1392
808.364744517821	1382.25
811.046559462106	1414
813.727506267312	1406
816.407585498422	1392.5
819.086797719131	1397.25
821.765143491823	1399.75
824.442623377565	1391.25
827.119237936129	1412.25
829.794987726006	1389.25
832.469873304377	1411
835.143895227169	1402.25
837.817054048985	1395
840.489350323206	1408.75
843.160784601894	1413.5
845.831357435894	1407.75
848.501069374742	1403.25
851.169920966756	1405.5
853.837912758989	1419
856.505045297233	1433.25
859.171319126073	1442.75
861.836734788825	1407.25
864.501292827581	1426
867.164993783208	1410.5
869.827838195363	1426.75
872.489826602455	1446.75
875.150959541702	1443.75
877.811237549104	1433.75
880.470661159458	1434
883.129230906359	1428.25
885.786947322208	1433.75
888.443810938208	1431.5
891.099822284387	1415.75
893.754981889586	1433.75
896.409290281453	1426
899.062747986487	1437.75
901.715355530001	1440
904.367113436154	1439.25
907.018022227933	1432.25
909.668082427173	1432.25
912.317294554575	1438.75
914.965659129661	1459.5
917.613176670838	1431.75
920.259847695365	1465.25
922.90567271936	1451.5
925.550652257826	1455.5
928.194786824624	1461.25
930.838076932514	1460.25
933.480523093111	1452.75
936.122125816956	1460.5
938.762885613448	1464.25
941.402802990899	1466
944.041878456524	1457.75
946.680112516429	1461.75
949.317505675633	1466
951.954058438084	1465
954.589771306634	1485.25
957.224644783051	1483
959.858679368047	1457
962.491875561238	1454.75
965.124233861212	1462.25
967.755754765453	1469
970.386438770423	1473
973.016286371502	1485
975.645298063046	1465.5
978.273474338357	1472.25
980.900815689675	1463.75
983.527322608245	1468.25
986.152995584248	1475.5
988.777835106835	1479.25
991.401841664151	1470.25
994.025015743307	1493.5
996.64735783041	1483.75
999.268868410535	1478
1001.88954796777	1485
1004.50939698518	1491
1007.12841594484	1506.25
1009.74660532783	1487
1012.36396561423	1506.25
1014.98049728314	1511.5
1017.59620081267	1494
1020.21107667995	1484.5
1022.82512536112	1499.5
1025.43834733138	1518.75
1028.05074306492	1523.25
1030.66231303501	1523.25
1033.27305771392	1532.25
1035.88297757299	1528
1038.49207308257	1519.25
1041.10034471211	1522.25
1043.70779293008	1542.75
1046.31441820402	1533.5
1048.92022100052	1543.5
1051.52520178525	1537.25
1054.12936102295	1565
1056.73269917742	1587
1059.33521671154	1627.75
1061.93691408729	1617.5
1064.53779176572	1635.5
1067.13785020694	1587.5
1069.73708987022	1578.75
1072.33551121386	1546.5
1074.93311469528	1542.5
1077.52990077103	1568.25
1080.12586989674	1569.25
1082.72102252715	1562.25
1085.31535911612	1541
1087.90888011663	1566.5
1090.50158598078	1552.25
1093.09347715979	1562.25
1095.68455410403	1568.75
1098.27481726296	1562.25
1100.86426708523	1579.5
1103.45290401857	1549
1106.04072850991	1565.75
1108.6277410053	1550.25
1111.21394194993	1566.5
1113.79933178816	1567.75
1116.3839109635	1589.5
1118.96767991862	1604
1121.55063909539	1624
1124.13278893477	1645
1126.71412987696	1666.75
1129.29466236132	1672.5
1131.87438682637	1663.5
1134.45330370982	1634.75
1137.03141344858	1628.25
1139.60871647873	1607
1142.18521323554	1605
1144.7609041535	1603
1147.33578966629	1611.25
1149.90987020677	1617.75
1152.48314620702	1601
1155.05561809835	1609.5
1157.62728631126	1607.5
1160.19815127545	1584.5
1162.76821341988	1610.25
1165.33747317271	1611.5
1167.90593096133	1605.5
1170.47358721235	1605
1173.04044235163	1614.25
1175.60649680425	1593.25
1178.17175099454	1581
1180.73620534607	1602.75
1183.29986028165	1584
1185.86271622336	1605.75
1188.42477359249	1603
1190.98603280964	1581.75
1193.54649429462	1579
1196.10615846653	1576.5
1198.66502574373	1581.75
1201.22309654385	1587.5
1203.78037128379	1597.75
1206.33685037971	1595.5
1208.89253424709	1587.75
1211.44742330063	1586.75
1214.00151795439	1609.75
1216.55481862163	1615
1219.10732571498	1599
1221.65903964631	1614.25
1224.20996082683	1603.75
1226.760089667	1621.5
1229.30942657664	1625.75
1231.85797196483	1602.75
1234.40572623998	1619.25
1236.95268980981	1618.5
1239.49886308136	1626.5
1242.04424646099	1617.75
1244.58884035435	1625.75
1247.13264516647	1639.5
1249.67566130166	1644.75
1252.21788916359	1645
1254.75932915524	1653
1257.29998167896	1652.25
1259.8398471364	1659.5
1262.37892592858	1665
1264.91721845586	1688.75
1267.45472511795	1680.5
1269.9914463139	1667.5
1272.52738244213	1695
1275.06253390041	1682
1277.59690108587	1700.25
1280.130484395	1707.25
1282.66328422368	1708
1285.19530096712	1684
1287.72653501993	1756
1290.25698677609	1775.75
1292.78665662895	1860.5
1295.31554497125	1844
1297.84365219511	1831.75
1300.37097869203	1793.75
1302.89752485292	1765.25
1305.42329106806	1753
1307.94827772713	1743
1310.47248521921	1755.5
1312.99591393279	1771.5
1315.51856425575	1760.75
1318.04043657537	1747
1320.56153127836	1756.5
1323.08184875083	1775.5
1325.6013893783	1734.25
1328.12015354572	1763.5
1330.63814163744	1776.75
1333.15535403727	1782.75
1335.67179112839	1799
1338.18745329347	1800.5
1340.70234091455	1790.25
1343.21645437314	1796
1345.72979405019	1782
1348.24236032607	1804.75
1350.75415358059	1821.5
1353.26517419303	1807.75
1355.7754225421	1829.75
1358.28489900594	1842.25
1360.79360396218	1853.75
1363.30153778788	1871.75
1365.80870085955	1859
1368.31509355319	1857.25
1370.82071624425	1876
1373.32556930762	1872
1375.8296531177	1856.75
1378.33296804833	1867
1380.83551447282	1859.75
1383.33729276399	1862
1385.83830329408	1861
1388.33854643489	1862
1390.83802255762	1869.5
1393.33673203302	1898
1395.83467523128	1877
1398.33185252212	1891.25
1400.82826427472	1908
1403.32391085777	1900.25
1405.81879263948	1896
1408.31290998752	1911.75
1410.80626326908	1930.75
1413.29885285087	1948.25
1415.79067909909	1978.25
1418.28174237944	1996.5
1420.77204305717	1992
1423.26158149702	1984.75
1425.75035806323	1997.5
1428.2383731196	2025
1430.72562702943	2050.25
1433.21212015554	2087.75
1435.69785286029	2158.25
1438.18282550555	2216.5
1440.66703845276	2198.25
1443.15049206284	2186.5
1445.6331866963	2172.5
1448.11512271316	2175.25
1450.59630047298	2172
1453.07672033486	2200.5
1455.55638265748	2217
1458.03528779902	2185.5
1460.51343611725	2233
1462.99082796946	2240.25
1465.46746371252	2225.25
1467.94334370285	2216.75
1470.41846829642	2218.25
1472.89283784878	2202.5
1475.36645271503	2219.5
1477.83931324984	2228.5
1480.31141980743	2226.5
1482.78277274164	2258.75
1485.25337240583	2231.5
1487.72321915297	2245.75
1490.19231333557	2266.5
1492.66065530577	2274
1495.12824541525	2281
1497.5950840153	2293.25
1500.06117145678	2308.75
1502.52650809014	2332
1504.99109426543	2337.75
1507.45493033228	2325
1509.91801663992	2315.5
1512.38035353717	2354.25
1514.84194137248	2380
1517.30278049386	2367.5
1519.76287124895	2395.5
1522.22221398497	2381.75
1524.68080904877	2393.25
1527.13865678681	2384.5
1529.59575754514	2435.5
1532.05211166946	2480.75
1534.50771950503	2473.75
1536.96258139678	2463
1539.41669768925	2488.75
1541.87006872656	2480.75
1544.32269485252	2525.75
1546.77457641051	2549
1549.22571374357	2574.75
1551.67610719434	2589.5
1554.12575710513	2599.5
1556.57466381786	2587
1559.02282767408	2614
1561.470249015	2629.25
1563.91692818144	2702.75
1566.3628655139	2692.25
1568.80806135249	2699.25
1571.252516037	2716.25
1573.6962299068	2754.5
1576.139203301	2743.5
1578.58143655828	2785
1581.02293001704	2791.75
1583.46368401528	2799
1585.90369889071	2818.5
1588.34297498065	2839.25
1590.7815126221	2855.25
1593.21931215174	2863
1595.65637390588	2838
1598.09269822053	2853.5
1600.52828543135	2869.5
1602.96313587367	2906.25
1605.3972498825	2899.75
1607.83062779252	2909
1610.26326993808	2912.5
1612.69517665322	2908.5
1615.12634827165	2944.25
1617.55678512676	2913
1619.98648755164	2935.25
1622.41545587903	2963.25
1624.84369044138	2949.25
1627.27119157085	3010.25
1629.69795959924	2978
1632.12399485809	2974
1634.54929767859	3007
1636.97386839165	3026
1639.39770732789	3037.25
1641.8208148176	3014.25
1644.24319119078	3027
1646.66483677715	3053
1649.08575190611	3114.75
1651.50593690677	3074.25
1653.92539210795	3091.75
1656.3441178382	3101.5
1658.76211442575	3099.75
1661.17938219855	3105.5
1663.59592148428	3160.25
1666.01173261033	3158.25
1668.42681590377	3175.5
1670.84117169145	3213.75
1673.25480029991	3201.75
1675.66770205541	3234.25
1678.07987728393	3241.5
1680.49132631119	3265.5
1682.90204946263	3240.75
1685.31204706342	3274.25
1687.72131943847	3293.75
1690.1298669124	3298.25
1692.53768980957	3318.25
1694.94478845411	3318.5
1697.35116316982	3337.75
1699.75681428031	3345.5
1702.16174210887	3340.5
1704.56594697858	3358
1706.96942921222	3384.25
1709.37218913235	3359.75
1711.77422706126	3356.5
1714.17554332098	3367.25
1716.57613823331	3413.5
1718.97601211977	3375.5
1721.37516530169	3408.25
1723.77359810006	3374
1726.17131083573	3393.5
1728.56830382922	3418.5
1730.96457740087	3396.5
1733.36013187075	3430.75
1735.75496755868	3429
1738.14908478428	3418
1740.54248386689	3453.25
1742.93516512566	3448.5
1745.32712887946	3497.75
1747.71837544697	3492.25
1750.10890514662	3521.75
1752.49871829661	3498.75
1754.88781521492	3514.25
1757.27619621929	3558
1759.66386162726	3532.5
1762.05081175613	3566.5
1764.43704692297	3569.25
1766.82256744465	3576.5
1769.20737363782	3608.25
1771.59146581888	3601.75
1773.97484430405	3606.5
1776.35750940932	3664.75
1778.73946145048	3663.75
1781.12070074309	3662
1783.50122760249	3693.75
1785.88104234385	3696.75
1788.26014528209	3678.75
1790.63853673197	3699
1793.01621700796	3766
1795.39318642444	3791.25
1797.76944529549	3795
1800.14499393504	3797.75
1802.51983265681	3806.5
1804.8939617743	3827.5
1807.26738160085	3838.75
1809.64009244957	3862.75
1812.01209463339	3850.5
1814.38338846504	3881.5
1816.75397425706	3886.25
1819.12385232181	3912.5
1821.49302297142	3906.5
1823.86148651789	3926.5
1826.22924327299	3905.5
1828.59629354831	3961.75
1830.96263765526	3936.25
1833.32827590507	3935.5
1835.69320860877	3980
1838.05743607724	3991.25
1840.42095862113	3982.25
1842.78377655097	3975
1845.14589017707	4011.75
1847.50729980956	4059.5
1849.86800575843	4029
1852.22800833346	4055.25
1854.58730784427	4071.5
1856.94590460032	4100.25
1859.30379891087	4067.5
1861.66099108503	4091.5
1864.01748143175	4128
1866.37327025978	4137.5
1868.72835787773	4138
1871.08274459404	4155
1873.43643071697	4154.75
1875.78941655464	4216.75
1878.14170241499	4176.25
1880.4932886058	4246.25
1882.84417543469	4293.75
1885.19436320915	4272
1887.54385223646	4294.75
1889.89264282378	4319.75
1892.24073527809	4322
1894.58812990625	4397.75
1896.93482701494	4394
1899.28082691067	4393.5
1901.62612989985	4394.75
1903.97073628868	4401.5
1906.31464638326	4420.25
1908.6578604895	4465
1911.00037891321	4540
1913.34220196001	4530
1915.68332993538	4519.25
1918.02376314468	4530.5
1920.36350189311	4524.25
1922.70254648573	4526.5
1925.04089722744	4522.25
1927.37855442304	4547.75
1929.71551837715	4558.75
1932.05178939427	4566.25
1934.38736777876	4572.25
1936.72225383484	4549.25
1939.0564478666	4645.5
1941.38995017799	4578.75
1943.72276107283	4658.25
1946.05488085479	4636.75
1948.38630982744	4586
1950.71704829419	4639.75
1953.04709655832	4648.5
1955.376454923	4646.25
1957.70512369126	4634
1960.03310316599	4654.5
1962.36039364999	4630
1964.68699544589	4639.75
1967.01290885622	4686.75
1969.33813418338	4673
1971.66267172965	4704
1973.98652179718	4749.25
1976.309684688	4768
1978.63216070402	4732.75
1980.95395014705	4808.5
1983.27505331873	4729.75
1985.59547052064	4807.25
1987.9152020542	4811.5
1990.23424822074	4801.75
1992.55260932146	4826.5
1994.87028565746	4853
1997.18727752968	4860.25
1999.50358523901	4855.5
2001.81920908618	4893.75
2004.13414937184	4967.75
2006.44840639651	4995.5
2008.7619804606	4990.75
2011.07487186442	5058
2013.38708090815	5082.25
2015.6986078919	5092.75
2018.00945311564	5134.5
2020.31961687924	5110.25
2022.62909948247	5194.75
2024.93790122499	5159
2027.24602240636	5168
2029.55346332604	5233
2031.86022428337	5241.25
2034.16630557761	5273.25
2036.47170750791	5298
2038.77643037331	5306.75
2041.08047447275	5379
2043.38384010509	5311.5
2045.68652756907	5375.25
2047.98853716335	5348
2050.28986918648	5392.25
2052.59052393692	5408.75
2054.89050171302	5469
2057.18980281307	5457.5
2059.4884275352	5505.5
2061.78637617753	5455
2064.08364903802	5531.5
2066.38024641457	5508.75
2068.67616860497	5572.5
2070.97141590694	5553.5
2073.26598861809	5569.75
2075.55988703595	5552.25
2077.85311145796	5583.25
2080.14566218145	5595
2082.43753950371	5587
2084.72874372188	5627.5
2087.01927513307	5629.5
2089.30913403428	5666.75
2091.59832072241	5671.75
2093.88683549429	5617
2096.17467864666	5702
2098.46185047619	5710.5
2100.74835127944	5733.75
2103.03418135292	5799.25
2105.31934099303	5749.75
2107.6038304961	5806.5
2109.88765015838	5808.25
2112.17080027602	5864.25
2114.45328114513	5880
2116.7350930617	5870.75
2119.01623632165	5933
2121.29671122085	5879.25
2123.57651805505	5919.25
2125.85565711996	5934.75
2128.13412871117	5996.75
2130.41193312424	5967.75
2132.68907065462	6001.25
2134.96554159771	6043.75
2137.24134624881	6045.5
2139.51648490317	6051.5
2141.79095785594	6085.25
2144.0647654022	6060.25
2146.33790783698	6041
2148.61038545524	6045.5
2150.88219855182	6105.5
2153.15334742154	6144
2155.42383235911	6151.25
2157.69365365921	6139.25
2159.9628116164	6122.5
2162.23130652522	6180.25
2164.49913868011	6137.5
2166.76630837544	6170.25
2169.03281590553	6169
2171.29866156461	6115.25
2173.56384564685	6165.75
2175.82836844637	6196.75
2178.0922302572	6152.5
2180.35543137332	6187
2182.61797208862	6188
2184.87985269695	6138.75
2187.14107349208	6086
2189.40163476773	6244.75
2191.66153681753	6189.25
2193.92077993507	6065.5
2196.17936441386	6126.75
2198.43729054735	6114.75
2200.69455862894	6093.25
2202.95116895194	6112.5
2205.20712180963	6072.5
2207.4624174952	6035
2209.71705630179	6080.75
2211.97103852248	6065.25
2214.22436445031	6016.5
2216.47703437819	6026.75
2218.72904859905	5956.75
2220.98040740571	6052.5
2223.23111109096	6046.5
2225.4811599475	5943.75
2227.730554268	6013.75
2229.97929434505	5945.5
2232.22738047118	5942
2234.47481293889	5912.75
2236.72159204058	5973
2238.96771806864	5976.5
2241.21319131537	5918.75
2243.458012073	5855
2245.70218063374	5879.5
2247.94569728973	5902.25
2250.18856233304	5858
2252.4307760557	5806.75
2254.67233874967	5787
2256.91325070687	5769.25
2259.15351221915	5761.25
2261.39312357831	5806.5
2263.63208507611	5695.75
2265.87039700422	5738.25
2268.1080596543	5711.25
2270.34507331792	5723.5
2272.5814382866	5710
2274.81715485183	5683
2277.05222330502	5664
2279.28664393755	5687
2281.52041704073	5624.5
2283.75354290581	5624.75
2285.98602182401	5623.75
2288.21785408649	5565.25
2290.44903998434	5588
2292.67957980862	5567
2294.90947385033	5547.5
2297.1387224004	5510.5
2299.36732574976	5524
2301.59528418921	5466.75
2303.82259800958	5475.75
2306.04926750158	5469.5
2308.27529295593	5399.25
2310.50067466325	5471.75
2312.72541291412	5405
2314.9495079991	5369.5
2317.17296020866	5386.5
2319.39576983324	5423.25
2321.61793716322	5335
2323.83946248895	5314
2326.0603461007	5352
2328.28058828871	5315.5
2330.50018934317	5281.75
2332.7191495542	5246.75
2334.93746921192	5236
2337.15514860633	5195
2339.37218802743	5223.5
2341.58858776516	5173
2343.80434810941	5178.5
2346.01946935001	5178
2348.23395177676	5192.75
2350.44779567939	5100.5
2352.66100134759	5150.25
2354.87356907102	5146.25
2357.08549913925	5066
2359.29679184185	5069
2361.50744746829	5106.25
2363.71746630804	5085.5
2365.92684865049	5029.75
2368.13559478499	5002.75
2370.34370500083	4967.25
2372.55117958727	4981.25
2374.75801883353	5005
2376.96422302874	4942.75
2379.16979246202	4927.25
2381.37472742244	4881.75
2383.57902819898	4919
2385.78269508063	4874.5
2387.98572835629	4862
2390.18812831482	4816.5
2392.38989524505	4825.25
2394.59102943573	4805.25
2396.79153117559	4823
2398.9914007533	4814
2401.19063845748	4823.75
2403.38924457672	4750
2405.58721939951	4763
2407.78456321435	4765
2409.98127630966	4745
2412.17735897383	4758
2414.37281149518	4706.75
2416.56763416198	4668
2418.76182726249	4715.75
2420.95539108487	4688.5
2423.14832591726	4685.5
2425.34063204776	4666
2427.53230976439	4681.75
2429.72335935513	4691.25
2431.91378110795	4611
2434.10357531071	4617.75
2436.29274225126	4630.5
2438.48128221739	4567.5
2440.66919549684	4582.5
2442.8564823773	4567.5
2445.04314314641	4546
2447.22917809176	4545.5
2449.4145875009	4563.25
2451.59937166131	4501.5
2453.78353086044	4507.25
2455.96706538567	4480.75
2458.14997552437	4477.25
2460.33226156379	4443.75
2462.51392379119	4446.75
2464.69496249376	4472.25
2466.87537795862	4423.5
2469.05517047288	4406.75
2471.23434032358	4400.75
2473.41288779767	4408.5
2475.59081318212	4368.75
2477.76811676378	4370.25
2479.9447988295	4350.5
2482.12085966605	4367
2484.29629956016	4337.25
2486.4711187985	4321
2488.64531766769	4324.25
2490.8188964543	4304
2492.99185544484	4300.5
2495.16419492579	4284.25
2497.33591518353	4317.75
2499.50701650444	4290.25
2501.67749917482	4286.25
2503.84736348091	4254.25
2506.01660970891	4300.5
2508.18523814496	4242.75
2510.35324907515	4243.25
2512.52064278551	4222.5
2514.68741956201	4200.5
2516.85357969058	4283.5
2519.01912345709	4238.75
2521.18405114735	4227.25
2523.34836304711	4201
2525.51205944209	4228.75
2527.6751406179	4194.25
2529.83760686016	4233
2531.99945845439	4188.25
2534.16069568607	4163
2536.3213188406	4178.75
2538.48132820336	4142.5
2540.64072405965	4154.25
2542.79950669471	4142.5
2544.95767639373	4201.75
2547.11523344184	4143.25
2549.27217812411	4141
2551.42851072555	4117.25
2553.58423153111	4112.25
2555.7393408257	4086.5
2557.89383889413	4073
2560.04772602119	4068.75
2562.20100249158	4043
2564.35366858996	4092.25
2566.50572460093	4050.5
2568.65717080901	3994.5
2570.80800749867	3990.25
2572.95823495433	3999
2575.10785346031	3963
2577.25686330093	3994.5
2579.40526476038	3940
2581.55305812282	3944
2583.70024367237	3920.5
2585.84682169303	3915.5
2587.99279246879	3934.25
2590.13815628354	3874.5
2592.28291342112	3899.5
2594.42706416531	3844.75
2596.57060879981	3895.5
2598.71354760826	3911.5
2600.85588087425	3879
2602.99760888127	3867.25
2605.13873191278	3822.75
2607.27925025215	3826.25
2609.41916418269	3878.75
2611.55847398764	3833.5
2613.69717995017	3835.75
2615.8352823534	3869.75
2617.97278148034	3853.75
2620.10967761398	3835.5
2622.2459710372	3813.25
2624.38166203284	3816.25
2626.51675088365	3801.75
2628.65123787232	3796.5
2630.78512328145	3802.5
2632.9184073936	3808.25
2635.05109049124	3816.5
2637.18317285676	3787.25
2639.31465477249	3829.25
2641.44553652067	3786.25
2643.5758183835	3774.25
2645.70550064309	3761
2647.83458358144	3767.75
2649.96306748053	3784.5
2652.09095262224	3755.25
2654.21823928836	3799.75
2656.34492776063	3771.5
2658.47101832071	3801.5
2660.59651125015	3762
2662.72140683047	3737
2664.84570534309	3741.25
2666.96940706935	3760.25
2669.0925122905	3700.25
2671.21502128773	3706.75
2673.33693434216	3752.5
2675.45825173479	3742.75
2677.57897374658	3755.25
2679.6991006584	3740.25
2681.81863275101	3712.25
2683.93757030512	3731.75
2686.05591360133	3772
2688.17366292021	3732
2690.29081854218	3718.5
2692.40738074762	3731.5
2694.52334981681	3679.75
2696.63872602995	3698.5
2698.75350966714	3737
2700.86770100842	3730.25
2702.98130033372	3688.75
2705.09430792289	3738.5
2707.20672405572	3726
2709.31854901185	3712.75
2711.42978307091	3734
2713.54042651238	3703.25
2715.65047961567	3743.25
2717.7599426601	3723
2719.86881592492	3733.5
2721.97709968924	3756.75
2724.08479423213	3721.25
2726.19189983255	3744
2728.29841676935	3708.75
2730.40434532131	3714
2732.5096857671	3676.75
2734.61443838532	3666.25
2736.71860345444	3668
2738.82218125287	3678.5
2740.92517205889	3705.75
2743.02757615073	3672.5
2745.12939380646	3671.25
2747.23062530411	3668.25
2749.33127092159	3673.25
2751.4313309367	3612.5
2753.53080562717	3662
2755.62969527058	3690.25
2757.72800014448	3653.75
2759.82572052625	3669.25
2761.92285669323	3599.25
2764.0194089226	3656.75
2766.11537749147	3655.5
2768.21076267686	3648.5
2770.30556475566	3610.75
2772.39978400465	3662.25
2774.49342070054	3608.75
2776.58647511991	3636.25
2778.67894753923	3629
2780.77083823487	3645.75
2782.8621474831	3608.75
2784.95287556007	3598.5
2787.04302274184	3631
2789.13258930433	3641
2791.22157552338	3595.5
2793.30998167471	3578
2795.39780803392	3629.25
2797.48505487651	3618.5
2799.57172247786	3606
2801.65781111324	3573.5
2803.74332105781	3617.75
2805.82825258661	3655.75
2807.91260597457	3597.75
2809.9963814965	3655.5
2812.07957942711	3629
2814.16220004096	3594.5
2816.24424361252	3646
2818.32571041614	3632.25
2820.40660072604	3673
2822.48691481632	3687.5
2824.56665296098	3681.75
2826.64581543388	3675.5
2828.72440250876	3770.75
2830.80241445925	3763
2832.87985155885	3878
2834.95671408094	3963.25
2837.03300229875	4111
2839.10871648544	4325.75
2841.18385691399	4544.5
2843.25842385729	4774.75
2845.33241758808	4977
2847.40583837899	5077
2849.4786865025	5072
2851.550962231	4892
2853.6226658367	4827.75
2855.69379759174	4725.75
2857.76435776806	4618
2859.83434663753	4539.75
2861.90376447184	4484
2863.97261154259	4466.5
2866.04088812121	4397
2868.10859447901	4419
2870.17573088717	4402.75
2872.24229761673	4510.5
2874.30829493859	4603.25
2876.37372312353	4750
2878.43858244215	5072.25
2880.50287316496	5288.25
2882.56659556231	5199.25
2884.6297499044	4952
2886.69233646129	4800.75
2888.75435550293	4674
2890.81580729909	4621.75
2892.87669211941	4609
2894.9370102334	4567
2896.99676191039	4576.25
2899.05594741961	4595.75
2901.11456703011	4495
2903.1726210108	4443.5
2905.23010963045	4464.75
2907.28703315768	4399.25
2909.34339186096	4383.5
2911.39918600861	4357
2913.45441586879	4295.75
2915.50908170953	4319.25
2917.56318379867	4318.75
2919.61672240395	4269.5
2921.66969779291	4277.25
2923.72211023296	4324
2925.77395999134	4273
2927.82524733515	4320.75
2929.87597253133	4292.75
2931.92613584663	4253
2933.9757375477	4213.75
2936.02477790097	4141.25
2938.07325717276	4085.25
2940.1211756292	4075.25
2942.16853353626	3989.5
2944.21533115977	3982.75
2946.26156876536	3919.5
2948.30724661853	3914.25
2950.3523649846	3912.75
2952.39692412872	3854.25
2954.44092431587	3838
2956.4843658109	3865.25
2958.52724887843	3839.5
2960.56957378296	3835
2962.6113407888	3889.75
2964.65255016011	3816
2966.69320216083	3822.75
2968.73329705479	3820
2970.77283510559	3838.5
2972.81181657671	3855.75
2974.85024173141	3803.75
2976.88811083279	3825.75
2978.92542414379	3831
2980.96218192714	3850.75
2982.99838444541	3837.5
2985.034031961	3845
2987.06912473612	3838
2989.1036630328	3855
2991.13764711289	3833.25
2993.17107723804	3827.75
2995.20395366975	3860
2997.23627666931	3900.75
2999.26804649782	3877.25
3001.29926341624	3900.25
3003.32992768528	3888.5
3005.3600395655	3905
3007.38959931727	3914.5
3009.41860720076	3916.5
3011.44706347595	3917.25
3013.47496840263	3932.5
3015.50232224042	3911
3017.5291252487	3956.75
3019.5553776867	3922.5
3021.58107981344	3962.75
3023.60623188773	4006.25
3025.63083416822	3978
3027.65488691331	4000.75
3029.67839038125	3934.75
3031.70134483007	3988
3033.72375051759	4014.75
3035.74560770145	3978.5
3037.76691663907	4007.5
3039.78767758768	4056.5
3041.80789080431	4035.5
3043.82755654577	4030
3045.84667506867	4068.25
3047.8652466294	4021.75
3049.88327148418	4002.5
3051.90074988899	4028
3053.91768209961	4066.5
3055.93406837161	3984.75
3057.94990896033	4059.25
3059.96520412095	4041.25
3061.97995410838	4045.5
3063.99415917734	4059
3066.00781958234	4023
3068.02093557766	4032.5
3070.03350741738	4018.75
3072.04553535535	4021.25
3074.05701964521	4072.25
3076.06796054036	4035.5
3078.07835829401	4008.5
3080.08821315912	4059.5
3082.09752538846	4046.75
3084.10629523454	4012.25
3086.11452294967	4062.75
3088.12220878592	4091.25
3090.12935299515	4065.25
3092.13595582898	4066
3094.1420175388	4039
3096.1475383758	4041.75
3098.15251859088	4062.75
3100.15695843477	4056.5
3102.16085815793	4056.75
3104.16421801062	4067.5
3106.16703824282	4092.75
3108.16931910432	4088
3110.17106084464	4056.25
3112.17226371308	4064.75
3114.17292795872	4117.5
3116.17305383034	4104.25
3118.17264157657	4071.5
3120.17169144571	4090
3122.17020368587	4088
3124.16817854492	4105.75
3126.16561627044	4125.25
3128.16251710982	4186
3130.15888131017	4170.5
3132.15470911837	4165.25
3134.15000078104	4144.5
3136.14475654455	4163.75
3138.13897665502	4163.5
3140.13266135835	4171
3142.12581090015	4178
3144.11842552578	4171.5
3146.11050548036	4195.5
3148.10205100875	4199.75
3150.09306235557	4199.75
3152.08353976515	4213
3154.07348348158	4188
3156.06289374869	4222
3158.05177081006	4180.25
3160.04011490899	4224
3162.02792628852	4264.5
3164.01520519145	4212.25
3166.00195186029	4209
3167.98816653728	4253.5
3169.97384946442	4218.25
3171.95900088344	4209
3173.94362103577	4233.75
3175.9277101626	4248
3177.91126850484	4248.25
3179.89429630312	4260
3181.87679379782	4213.25
3183.85876122904	4262.25
3185.84019883657	4260.25
3187.82110685997	4283.25
3189.80148553851	4258.75
3191.78133511116	4273.25
3193.76065581664	4296.25
3195.73944789337	4287.25
3197.7177115795	4275.75
3199.6954471129	4321.5
3201.67265473114	4342
3203.64933467153	4316.25
3205.62548717107	4358.25
3207.60111246649	4329.5
3209.57621079422	4315.5
3211.55078239041	4340
3213.52482749093	4371.75
3215.49834633133	4373.75
3217.4713391469	4434.5
3219.44380617262	4344.75
3221.41574764318	4396
3223.38716379296	4400.25
3225.35805485607	4380.5
3227.32842106631	4414.5
3229.29826265718	4453
3231.26757986187	4434.25
3233.2363729133	4467.5
3235.20464204405	4444.75
3237.17238748644	4470.5
3239.13960947243	4473
3241.10630823374	4471.5
3243.07248400174	4511
3245.03813700748	4507.5
3247.00326748177	4496.25
3248.96787565503	4525.75
3250.93196175742	4515.75
3252.89552601877	4500.25
3254.8585686686	4491.75
3256.82108993612	4550
3258.78309005022	4544.75
3260.74456923948	4539.5
3262.70552773215	4557
3264.66596575617	4531
3266.62588353916	4567.25
3268.58528130843	4524
3270.54415929094	4570
3272.50251771336	4554
3274.46035680202	4612.5
3276.4176767829	4574.5
3278.37447788171	4553
3280.33076032379	4563.5
3282.28652433416	4579.75
3284.24177013751	4604.75
3286.1964979582	4579.75
3288.15070802027	4603
3290.10440054741	4612.25
3292.05757576298	4604.5
3294.01023389001	4588
3295.96237515119	4645.25
3297.91399976887	4592.25
3299.86510796506	4595
3301.81569996143	4590.75
3303.76577597932	4601.25
3305.71533623971	4593.25
3307.66438096325	4609.25
3309.61291037024	4604
3311.56092468063	4650.75
3313.50842411404	4571.25
3315.45540888971	4616.75
3317.40187922656	4597.25
3319.34783534315	4631.75
3321.29327745768	4601
3323.23820578801	4602
3325.18262055164	4599.5
3327.1265219657	4596
3329.06991024699	4634
3331.01278561194	4601.25
3332.95514827663	4593
3334.89699845675	4619
3336.83833636766	4613.75
3338.77916222434	4571.5
3340.71947624143	4590
3342.65927863317	4603.75
3344.59856961347	4609.5
3346.53734939584	4638.5
3348.47561819344	4574.25
3350.41337621907	4587.75
3352.35062368513	4602.5
3354.28736080368	4579.75
3356.22358778637	4645
3358.15930484452	4582.5
3360.09451218904	4644.25
3362.02921003047	4625.5
3363.96339857899	4650.75
3365.89707804437	4660.5
3367.83024863603	4631.25
3369.76291056299	4615.25
3371.69506403389	4626
3373.62670925699	4627.25
3375.55784644016	4636.75
3377.4884757909	4662
3379.41859751629	4636
3381.34821182305	4650.5
3383.27731891749	4681.5
3385.20591900555	4719
3387.13401229276	4708.5
3389.06159898426	4718.25
3390.9886792848	4701.5
3392.91525339872	4662.25
3394.84132152998	4715
3396.76688388213	4736.5
3398.69194065834	4715.25
3400.61649206133	4722.75
3402.54053829348	4722.5
3404.46407955672	4769
3406.3871160526	4729.25
3408.30964798225	4713.75
3410.23167554639	4749
3412.15319894535	4780.25
3414.07421837904	4765
3415.99473404695	4774
3417.91474614817	4765.75
3419.83425488136	4788.5
3421.7532604448	4743.75
3423.67176303631	4780.25
3425.58976285332	4788.75
3427.50726009283	4721
3429.42425495143	4756.25
3431.34074762528	4777.5
3433.25673831012	4738.25
3435.17222720127	4762.75
3437.08721449362	4721
3439.00170038164	4708.75
3440.91568505936	4743.25
3442.8291687204	4707.75
3444.74215155792	4769.25
3446.65463376469	4721.75
3448.566615533	4747.25
3450.47809705476	4721.5
3452.3890785214	4755.25
3454.29956012393	4788.75
3456.20954205293	4767.5
3458.11902449853	4738.25
3460.02800765042	4756.25
3461.93649169784	4764.25
3463.84447682962	4743.25
3465.75196323412	4773
3467.65895109925	4734.75
3469.56544061249	4740
3471.47143196086	4728
3473.37692533094	4707.75
3475.28192090884	4765
3477.18641888026	4732.75
3479.09041943039	4765
3480.99392274402	4759
3482.89692900545	4730.25
3484.79943839853	4744
3486.70145110666	4753
3488.60296731277	4705.5
3490.50398719933	4715.25
3492.40451094836	4699.25
3494.30453874141	4702
3496.20407075956	4759.25
3498.10310718342	4756.5
3500.00164819315	4734