201.866871357051	1013.25
204.754250281454	1025.5
207.640596790938	1030
210.525911876299	1022.25
213.410196525689	1026.75
216.293451724508	1034
219.175678455485	1030.25
222.056877698662	1039.25
224.937050431388	1044.75
227.816197628363	1038.25
230.694320261602	1054.75
233.571419300504	1065.5
236.447495711764	1057
239.322550459507	1062.25
242.196584505182	1063.5
245.069598807626	1054.25
247.941594323078	1069.5
250.812572005154	1070.5
253.682532804884	1055.5
256.551477670699	1056.25
259.419407548456	1054
262.286323381439	1075.75
265.152226110364	1063.75
268.017116673389	1073.5
270.880996006115	1072
273.743865041622	1072.75
276.605724710436	1096.5
279.466575940562	1084.25
282.326419657496	1091.5
285.1852567842	1068.75
288.043088241157	1092.25
290.899914946349	1097.25
293.75573781526	1092.75
296.610557760898	1090
299.464375693817	1085.5
302.317192522078	1083.5
305.169009151297	1096.5
308.019826484655	1107
310.86964542287	1083.75
313.718466864233	1112.5
316.566291704614	1080.25
319.413120837457	1096
322.258955153804	1098.25
325.103795542291	1106.75
327.947642889128	1110.5
330.79049807819	1098
333.632361990927	1112
336.473235506444	1120
339.31311950145	1119.25
342.152014850322	1107.5
344.989922425062	1136.25
347.826843095354	1128.25
350.662777728528	1144.5
353.497727189577	1137.5
356.331692341195	1146.25
359.164674043732	1145.5
361.996673155267	1162
364.827690531536	1170.25
367.65772702602	1153
370.486783489887	1163
373.314860772047	1149.75
376.14195971912	1179
378.968081175466	1174
381.793225983212	1189
384.617394982201	1197
387.44058901005	1199
390.262808902131	1208.75
393.08405549161	1204.5
395.904329609395	1197.25
398.723632084213	1185
401.541963742569	1194
404.359325408779	1188.25
407.175717904938	1186.25
409.991142050982	1209.5
412.805598664665	1198
415.619088561551	1205.5
418.43161255505	1209.75
421.243171456415	1203.75
424.053766074758	1220
426.863397217017	1230
429.672065688024	1231.75
432.479772290455	1263
435.286517824879	1251
438.092303089736	1255.25
440.897128881359	1268.75
443.70099599399	1264.25
446.503905219761	1267.5
449.305857348711	1280.75
452.106853168796	1273.25
454.906893465919	1280.75
457.705979023885	1269
460.504110624439	1277.5
463.3012890473	1252.25
466.097515070087	1265.25
468.892789468424	1256.5
471.687113015869	1253.5
474.48048648395	1249.5
477.272910642198	1241.25
480.064386258109	1257.75
482.854914097159	1249.75
485.644494922839	1251
488.433129496636	1245.5
491.220818578047	1269.25
494.007562924584	1267.5
496.793363291785	1273
499.578220433217	1267.5
502.362135100473	1269.25
505.145108043209	1287.75
507.927140009098	1283.25
510.708231743909	1299.25
513.488383991433	1302.5
516.267597493556	1292
519.04587299022	1294.5
521.82321121946	1285.5
524.599612917398	1293.5
527.375078818233	1285.25
530.149609654287	1292.25
532.923206155967	1296.75
535.695869051804	1308
538.467599068448	1305.25
541.238396930665	1293.75
544.008263361364	1302.75
546.777199081578	1301.75
549.545204810493	1293.75
552.312281265436	1308.5
555.078429161898	1295.25
557.843649213533	1308.25
560.607942132156	1290.75
563.371308627753	1314.5
566.133749408495	1306.75
568.895265180756	1335.5
571.655856649064	1334.25
574.415524516189	1327.25
577.174269483075	1330.25
579.932092248884	1346.75
582.688993510994	1373.25
585.444973965023	1362.5
588.200034304795	1360.75
590.95417522237	1379.25
593.70739740807	1372.75
596.459701550433	1398.25
599.21108833628	1402.5
601.961558450668	1398
604.711112576933	1419
607.459751396673	1396.75
610.207475589748	1431
612.954285834338	1419.25
615.700182806879	1383.5
618.445167182101	1392.25
621.189239633055	1367.5
623.932400831087	1374
626.674651445839	1381.75
629.415992145303	1378.25
632.156423595745	1357
634.895946461813	1355.5
637.634561406449	1350.25
640.37226909096	1371.75
643.109070174978	1376.25
645.844965316508	1370.25
648.579955171888	1379
651.314040395846	1366.75
654.047221641456	1387.75
656.779499560176	1365.5
659.510874801828	1392.5
662.241348014642	1394.25
664.97091984524	1399.25
667.699590938606	1409.75
670.427361938164	1422.5
673.15423348573	1409
675.880206221526	1428.75
678.605280784206	1455.5
681.329457810829	1558.5
684.05273793692	1559.75
686.775121796389	1583.75
689.49661002163	1533
692.217203243454	1446.5
694.936902091144	1431.5
697.655707192425	1436.5
700.373619173493	1435.5
703.09063865901	1441.25
705.806766272093	1432
708.522002634378	1442.75
711.236348365946	1411
713.94980408538	1416.25
716.662370409762	1407.75
719.374047954676	1438.75
722.08483733419	1413.25
724.794739160909	1449.75
727.503754045949	1430
730.21188259892	1436
732.919125427998	1448.5
735.625483139855	1440.5
738.330956339723	1457.75
741.035545631374	1460.25
743.739251617106	1454
746.44207489779	1463
749.144016072852	1447.5
751.845075740272	1488
754.545254496603	1461.25
757.244552936976	1482.5
759.94297165508	1485.75
762.640511243222	1459
765.337172292249	1496
768.032955391649	1487
770.727861129482	1476
773.421890092413	1484
776.11504286572	1493
778.807320033298	1470
781.49872217765	1479.25
784.18924987991	1473.25
786.87890371984	1468.25
789.567684275826	1463.25
792.255592124908	1485.25
794.94262784276	1492
797.628792003703	1489
800.314085180715	1480.5
802.998507945427	1492.75
805.682060868145	1476.75
808.364744517821	1508.75
811.046559462105	1511
813.727506267311	1511.5
816.407585498422	1523.5
819.08679771913	1532.25
821.765143491822	1527.75
824.442623377563	1530
827.119237936127	1538.25
829.794987726003	1534.5
832.469873304377	1532.5
835.143895227167	1534.75
837.817054048985	1533.5
840.489350323205	1534.75
843.160784601892	1558.75
845.831357435894	1544
848.501069374739	1549.75
851.169920966753	1543.5
853.837912758987	1574.25
856.505045297232	1571
859.171319126071	1558.25
861.836734788823	1552.5
864.501292827579	1568.25
867.164993783208	1561.25
869.827838195361	1571
872.489826602454	1550
875.150959541701	1556
877.811237549104	1554.75
880.470661159456	1573
883.129230906357	1561.5
885.786947322205	1561
888.443810938206	1554.5
891.099822284385	1572.25
893.754981889586	1582
896.409290281452	1562.75
899.062747986485	1577.5
901.715355529999	1581.5
904.367113436154	1590.75
907.01802222793	1591.75
909.668082427172	1597
912.317294554574	1583.75
914.965659129659	1597.25
917.613176670835	1598.5
920.259847695364	1603
922.90567271936	1595.25
925.550652257825	1596.25
928.194786824621	1590.75
930.838076932512	1619.75
933.480523093109	1604.75
936.122125816953	1604.75
938.762885613447	1595.5
941.402802990899	1624.5
944.041878456523	1631.75
946.680112516428	1609.5
949.31750567563	1650.25
951.954058438081	1662
954.589771306633	1659.75
957.224644783048	1643.5
959.858679368044	1655.5
962.491875561238	1625.5
965.12423386121	1619.5
967.75575476545	1639.5
970.386438770423	1642.5
973.016286371501	1649.75
975.645298063046	1642.75
978.273474338355	1672.25
980.900815689674	1655
983.527322608243	1646.5
986.152995584245	1646
988.777835106834	1653.75
991.401841664148	1667.25
994.025015743307	1659.25
996.647357830407	1666.5
999.268868410534	1659
1001.88954796777	1663.5
1004.50939698518	1650
1007.12841594484	1659.75
1009.74660532783	1669.75
1012.36396561423	1670
1014.98049728314	1670.25
1017.59620081267	1670.5
1020.21107667995	1647.25
1022.82512536112	1702.75
1025.43834733138	1704.5
1028.05074306493	1696
1030.66231303501	1703.75
1033.27305771392	1712.5
1035.88297757299	1697
1038.49207308257	1703.75
1041.10034471211	1709.25
1043.70779293008	1712
1046.31441820402	1716.25
1048.92022100052	1713.75
1051.52520178525	1748.5
1054.12936102295	1759.25
1056.73269917742	1803.5
1059.33521671154	1862.5
1061.93691408729	1869
1064.53779176571	1877.25
1067.13785020694	1829.75
1069.73708987022	1796.5
1072.33551121386	1757.5
1074.93311469528	1792
1077.52990077103	1806.25
1080.12586989674	1797.25
1082.72102252714	1833
1085.31535911611	1853.75
1087.90888011663	1845.75
1090.50158598078	1782
1093.09347715979	1786
1095.68455410403	1780.25
1098.27481726296	1792.25
1100.86426708523	1776
1103.45290401857	1792.25
1106.04072850991	1786
1108.6277410053	1792.75
1111.21394194993	1768.75
1113.79933178816	1797.5
1116.3839109635	1802.25
1118.96767991862	1819.25
1121.55063909539	1854
1124.13278893477	1916.25
1126.71412987696	1922.5
1129.29466236132	1954.75
1131.87438682637	1923
1134.45330370982	1871.75
1137.03141344858	1829.5
1139.60871647872	1821.75
1142.18521323554	1798
1144.7609041535	1810.5
1147.33578966629	1808
1149.90987020676	1840.75
1152.48314620702	1824
1155.05561809835	1842
1157.62728631125	1835.75
1160.19815127545	1820.25
1162.76821341988	1844
1165.33747317271	1833
1167.90593096133	1854.75
1170.47358721235	1855.25
1173.04044235163	1882
1175.60649680425	1871.25
1178.17175099454	1888.25
1180.73620534607	1921
1183.29986028165	1907.25
1185.86271622336	1948.25
1188.42477359249	1896.25
1190.98603280964	1895
1193.54649429462	1890.75
1196.10615846653	1857.75
1198.66502574372	1866.25
1201.22309654385	1884.5
1203.78037128378	1873
1206.33685037971	1874.25
1208.89253424709	1862
1211.44742330063	1865
1214.00151795438	1852.75
1216.55481862163	1865.25
1219.10732571497	1870.25
1221.65903964631	1869.75
1224.20996082683	1894.25
1226.760089667	1886.25
1229.30942657664	1894
1231.85797196483	1912.75
1234.40572623998	1899
1236.95268980981	1908.5
1239.49886308136	1915.25
1242.04424646098	1908.75
1244.58884035435	1919
1247.13264516647	1931.5
1249.67566130166	1943
1252.21788916358	1937.25
1254.75932915524	2001.25
1257.29998167896	2032.25
1259.83984713639	2068.5
1262.37892592857	2128.25
1264.91721845586	2153.75
1267.45472511795	2131.75
1269.9914463139	2117.5
1272.52738244213	2078.75
1275.0625339004	2049.5
1277.59690108587	2063
1280.130484395	2113
1282.66328422367	2121.75
1285.19530096712	2099.5
1287.72653501993	2149.5
1290.25698677608	2188
1292.78665662894	2322.75
1295.31554497125	2334
1297.8436521951	2255.25
1300.37097869203	2177
1302.89752485292	2156
1305.42329106805	2118.5
1307.94827772713	2108.5
1310.47248521921	2107.75
1312.99591393279	2083.75
1315.51856425575	2126.5
1318.04043657536	2140.5
1320.56153127836	2124.75
1323.08184875083	2158.75
1325.6013893783	2151.75
1328.12015354572	2135.5
1330.63814163744	2132.25
1333.15535403727	2165.75
1335.67179112839	2170.5
1338.18745329347	2183.25
1340.70234091454	2200.5
1343.21645437314	2195.25
1345.72979405019	2200
1348.24236032607	2207.5
1350.75415358059	2201.75
1353.26517419303	2192.5
1355.7754225421	2211.25
1358.28489900594	2236.75
1360.79360396218	2273
1363.30153778787	2236.5
1365.80870085955	2262.5
1368.31509355319	2297
1370.82071624424	2283.5
1373.32556930762	2313.75
1375.8296531177	2267.75
1378.33296804832	2283.25
1380.83551447282	2338.5
1383.33729276399	2334.5
1385.83830329408	2425
1388.33854643489	2465.75
1390.83802255762	2437.5
1393.33673203301	2402.75
1395.83467523128	2385
1398.33185252211	2349.25
1400.82826427471	2359
1403.32391085777	2350
1405.81879263947	2361
1408.31290998752	2355
1410.80626326908	2379
1413.29885285087	2425.75
1415.79067909909	2454.5
1418.28174237944	2486.5
1420.77204305717	2509.75
1423.26158149702	2522
1425.75035806323	2551.75
1428.2383731196	2594.25
1430.72562702942	2641
1433.21212015554	2715.25
1435.69785286028	2773.25
1438.18282550555	2855.75
1440.66703845275	2801.5
1443.15049206284	2807.25
1445.6331866963	2801.75
1448.11512271316	2778.75
1450.59630047298	2785.25
1453.07672033486	2759.25
1455.55638265748	2800
1458.03528779902	2790
1460.51343611725	2830.25
1462.99082796946	2869.5
1465.46746371252	2833.75
1467.94334370285	2874.5
1470.41846829642	2841
1472.89283784878	2889
1475.36645271503	2879.25
1477.83931324983	2921.5
1480.31141980743	2930.75
1482.78277274164	2932.75
1485.25337240583	2974.25
1487.72321915297	2987.25
1490.19231333557	3074.75
1492.66065530578	3121.5
1495.12824541525	3186.5
1497.5950840153	3252
1500.06117145678	3212.25
1502.52650809014	3273.75
1504.99109426543	3293.75
1507.45493033227	3289
1509.91801663992	3189.75
1512.38035353717	3193.5
1514.84194137248	3165.25
1517.30278049386	3200
1519.76287124894	3219.25
1522.22221398497	3278.75
1524.68080904876	3277
1527.13865678681	3328.75
1529.59575754514	3406.75
1532.05211166945	3489.5
1534.50771950503	3550.25
1536.96258139678	3642.25
1539.41669768924	3638
1541.87006872656	3592
1544.32269485252	3545
1546.77457641051	3505.75
1549.22571374357	3527
1551.67610719434	3565.5
1554.12575710513	3590.5
1556.57466381785	3602
1559.02282767408	3652.75
1561.47024901499	3687.75
1563.91692818144	3725.5
1566.3628655139	3781.25
1568.80806135249	3787.5
1571.252516037	3755.25
1573.6962299068	3802.75
1576.13920330099	3776
1578.58143655828	3787
1581.02293001704	3825.25
1583.46368401528	3835.25
1585.90369889071	3886.5
1588.34297498065	3914.25
1590.7815126221	3946
1593.21931215173	3948
1595.65637390588	3981.25
1598.09269822053	3973.75
1600.52828543135	4018.75
1602.96313587367	4060.75
1605.3972498825	4071.5
1607.83062779252	4150
1610.26326993808	4221.5
1612.69517665322	4224
1615.12634827165	4146.5
1617.55678512676	4140.5
1619.98648755163	4093.75
1622.41545587902	4080.25
1624.84369044138	4083.25
1627.27119157085	4135.5
1629.69795959924	4130.5
1632.12399485808	4178
1634.54929767859	4110.5
1636.97386839165	4151.5
1639.39770732789	4205.75
1641.8208148176	4161
1644.24319119078	4182.5
1646.66483677715	4217.25
1649.0857519061	4260.5
1651.50593690677	4248.5
1653.92539210795	4305.25
1656.3441178382	4248
1658.76211442575	4311.25
1661.17938219855	4331
1663.59592148428	4391.75
1666.01173261032	4358.25
1668.42681590377	4438.5
1670.84117169145	4427.75
1673.25480029991	4413
1675.66770205541	4441.75
1678.07987728393	4449.25
1680.49132631119	4487
1682.90204946263	4512.5
1685.31204706342	4510.5
1687.72131943846	4557.25
1690.1298669124	4556.5
1692.53768980957	4617
1694.94478845411	4547
1697.35116316982	4589.75
1699.75681428031	4615.25
1702.16174210887	4612.25
1704.56594697858	4634
1706.96942921222	4635.5
1709.37218913235	4670.5
1711.77422706125	4645.75
1714.17554332098	4642.75
1716.5761382333	4667.75
1718.97601211977	4663.5
1721.37516530169	4705.75
1723.77359810006	4650.75
1726.17131083572	4652
1728.56830382922	4683
1730.96457740087	4704
1733.36013187075	4673
1735.75496755868	4716.75
1738.14908478428	4698.75
1740.54248386689	4747
1742.93516512565	4691
1745.32712887946	4738
1747.71837544697	4746.25
1750.10890514662	4800.5
1752.49871829661	4745
1754.88781521492	4817.75
1757.27619621929	4814.5
1759.66386162726	4787.5
1762.05081175612	4850.5
1764.43704692297	4810.25
1766.82256744465	4827.75
1769.20737363782	4900
1771.59146581887	4885.75
1773.97484430405	4912
1776.35750940932	4936
1778.73946145048	4914.25
1781.12070074309	4908.75
1783.50122760249	5001
1785.88104234385	5036
1788.26014528209	5024
1790.63853673196	5029.75
1793.01621700796	5015.25
1795.39318642443	5107.75
1797.76944529549	5071.25
1800.14499393503	5095.25
1802.51983265681	5044.75
1804.8939617743	5133.5
1807.26738160085	5185.5
1809.64009244957	5174.75
1812.01209463339	5133.5
1814.38338846504	5245
1816.75397425706	5206.75
1819.12385232181	5198
1821.49302297142	5236
1823.86148651789	5240.25
1826.22924327299	5240.75
1828.59629354831	5271.25
1830.96263765526	5273.25
1833.32827590507	5273.25
1835.69320860877	5290.25
1838.05743607724	5287
1840.42095862113	5316.5
1842.78377655097	5309.75
1845.14589017707	5325.5
1847.50729980956	5322.25
1849.86800575843	5346.75
1852.22800833346	5352.25
1854.58730784427	5376.25
1856.94590460032	5414.25
1859.30379891087	5429.25
1861.66099108503	5426.75
1864.01748143175	5462.25
1866.37327025978	5489.5
1868.72835787773	5465.75
1871.08274459403	5525
1873.43643071697	5539
1875.78941655464	5591.5
1878.14170241498	5585
1880.4932886058	5608.25
1882.84417543469	5642
1885.19436320915	5631
1887.54385223646	5642
1889.89264282378	5690.75
1892.24073527809	5673
1894.58812990625	5761.25
1896.93482701493	5766.25
1899.28082691067	5762.25
1901.62612989984	5844.75
1903.97073628868	5842.75
1906.31464638326	5828.75
1908.6578604895	5875.25
1911.00037891321	5883.75
1913.34220196	5938
1915.68332993537	5930
1918.02376314468	5909.75
1920.36350189311	5975
1922.70254648573	5955.25
1925.04089722744	5927.75
1927.37855442303	5962.5
1929.71551837715	5955.75
1932.05178939426	5947.25
1934.38736777876	6004.75
1936.72225383484	5969
1939.0564478666	6061.25
1941.38995017799	5948
1943.72276107283	5999
1946.05488085479	5969.75
1948.38630982744	5939
1950.71704829419	6049.5
1953.04709655832	5915.5
1955.376454923	6003.5
1957.70512369126	5998
1960.03310316599	5994.25
1962.36039364999	5982.5
1964.68699544589	6006
1967.01290885622	5997.25
1969.33813418338	5984
1971.66267172965	6010.25
1973.98652179718	6013.25
1976.309684688	6088.5
1978.63216070402	6076.5
1980.95395014705	6066
1983.27505331873	6061.5
1985.59547052063	6086.25
1987.9152020542	6106.75
1990.23424822074	6077
1992.55260932146	6063.75
1994.87028565746	6103
1997.18727752968	6161
1999.503585239	6171
2001.81920908618	6118
2004.13414937184	6241.5
2006.44840639651	6235.5
2008.7619804606	6255
2011.07487186442	6290
2013.38708090815	6317.25
2015.6986078919	6301.5
2018.00945311564	6347
2020.31961687923	6319.5
2022.62909948246	6365
2024.93790122498	6420.75
2027.24602240636	6457.25
2029.55346332604	6451.75
2031.86022428337	6440
2034.16630557761	6486.5
2036.47170750791	6440
2038.77643037331	6538.25
2041.08047447275	6471.75
2043.38384010509	6497.75
2045.68652756907	6500.75
2047.98853716335	6537.75
2050.28986918648	6537.5
2052.59052393692	6568.75
2054.89050171302	6614.25
2057.18980281306	6580.5
2059.4884275352	6637.25
2061.78637617753	6562.75
2064.08364903802	6631.5
2066.38024641457	6555.75
2068.67616860497	6630.25
2070.97141590694	6551.75
2073.26598861809	6622.5
2075.55988703595	6563.25
2077.85311145796	6593.75
2080.14566218145	6632.75
2082.43753950371	6597.25
2084.72874372188	6652
2087.01927513307	6657
2089.30913403428	6678.5
2091.59832072241	6708
2093.88683549429	6720.25
2096.17467864666	6702
2098.46185047619	6743
2100.74835127944	6785.75
2103.03418135292	6788.25
2105.31934099303	6730.75
2107.6038304961	6777.25
2109.88765015838	6791.75
2112.17080027602	6807.75
2114.45328114513	6848.75
2116.7350930617	6865.75
2119.01623632165	6886.5
2121.29671122085	6876
2123.57651805505	6918.25
2125.85565711996	6904.25
2128.13412871117	6915
2130.41193312424	6943.5
2132.68907065462	6946.5
2134.96554159771	6951.75
2137.24134624881	7000.25
2139.51648490317	7001
2141.79095785593	7017.5
2144.0647654022	7098.5
2146.33790783698	7073.75
2148.61038545524	7059.75
2150.88219855182	7127
2153.15334742154	7124.75
2155.42383235911	7125.25
2157.6936536592	7153.5
2159.9628116164	7120.25
2162.23130652522	7079.5
2164.49913868011	7166.5
2166.76630837544	7126.75
2169.03281590552	7155.25
2171.2986615646	7171.25
2173.56384564685	7147.25
2175.82836844637	7169.75
2178.0922302572	7141.75
2180.35543137332	7097.25
2182.61797208862	7169.75
2184.87985269695	7147.25
2187.14107349208	7136.75
2189.40163476773	7201.5
2191.66153681753	7211.25
2193.92077993507	7065.75
2196.17936441386	7118
2198.43729054735	7127
2200.69455862894	7142.25
2202.95116895194	7081.25
2205.20712180962	7074
2207.46241749519	7128.5
2209.71705630179	7098.25
2211.97103852248	7090.75
2214.2243644503	7084
2216.47703437819	7067.75
2218.72904859905	7044.5
2220.98040740571	7117
2223.23111109095	7090.25
2225.4811599475	7039.5
2227.73055426799	7038.75
2229.97929434504	7019.25
2232.22738047118	6976.25
2234.47481293889	7045.25
2236.72159204058	7069.25
2238.96771806864	7039.25
2241.21319131536	6962
2243.458012073	6968.25
2245.70218063374	6992.75
2247.94569728973	7058.75
2250.18856233304	6997.75
2252.4307760557	6926
2254.67233874967	6943
2256.91325070687	6910.75
2259.15351221915	6876.75
2261.39312357831	6905.5
2263.63208507611	6855.75
2265.87039700422	6857.25
2268.1080596543	6882.25
2270.34507331792	6862.25
2272.5814382866	6833.75
2274.81715485183	6887.25
2277.05222330502	6886.75
2279.28664393755	6849.25
2281.52041704072	6749.5
2283.75354290581	6808.5
2285.98602182401	6793.25
2288.21785408648	6749
2290.44903998434	6788.25
2292.67957980862	6775.5
2294.90947385033	6721
2297.1387224004	6692.25
2299.36732574975	6743
2301.59528418921	6751
2303.82259800958	6701.75
2306.04926750158	6741.25
2308.27529295593	6664.5
2310.50067466325	6676.25
2312.72541291412	6659.75
2314.9495079991	6664.75
2317.17296020866	6640
2319.39576983323	6610.25
2321.61793716322	6637.5
2323.83946248894	6588.25
2326.06034610069	6606.25
2328.28058828871	6610
2330.50018934317	6568
2332.7191495542	6564.75
2334.93746921192	6536.25
2337.15514860633	6555
2339.37218802743	6455.75
2341.58858776516	6511
2343.80434810941	6461.75
2346.01946935001	6466.75
2348.23395177675	6459.25
2350.44779567939	6456.75
2352.66100134759	6384
2354.87356907101	6423.25
2357.08549913925	6386.5
2359.29679184185	6360
2361.50744746829	6407.25
2363.71746630804	6402.5
2365.92684865048	6318.5
2368.13559478499	6329.25
2370.34370500083	6330.5
2372.55117958727	6306.75
2374.75801883352	6279.25
2376.96422302874	6276.5
2379.16979246202	6214.75
2381.37472742243	6207.5
2383.57902819898	6217
2385.78269508063	6204.25
2387.98572835629	6177.25
2390.18812831482	6136.25
2392.38989524505	6121
2394.59102943573	6140.75
2396.79153117559	6163.5
2398.9914007533	6062.25
2401.19063845748	6125.75
2403.38924457672	6078.25
2405.58721939951	6033
2407.78456321435	6086.25
2409.98127630966	5993.75
2412.17735897382	6015.75
2414.37281149517	5989.5
2416.56763416198	6021.5
2418.76182726249	6024.75
2420.95539108487	6028.5
2423.14832591726	5967.75
2425.34063204776	5975.25
2427.53230976439	5930
2429.72335935513	5939.5
2431.91378110795	5852.25
2434.10357531071	5890.25
2436.29274225125	5911.25
2438.48128221739	5837.5
2440.66919549683	5850.5
2442.8564823773	5836.75
2445.04314314641	5862.25
2447.22917809176	5846
2449.4145875009	5826.5
2451.59937166131	5738.75
2453.78353086044	5763
2455.96706538568	5775.75
2458.14997552436	5766.5
2460.33226156379	5710.5
2462.51392379119	5705.25
2464.69496249376	5627.75
2466.87537795862	5694.75
2469.05517047288	5630.25
2471.23434032357	5639
2473.41288779767	5626
2475.59081318211	5624.25
2477.76811676378	5625.75
2479.9447988295	5583.25
2482.12085966605	5505
2484.29629956016	5565.75
2486.4711187985	5549.25
2488.64531766769	5554
2490.8188964543	5593
2492.99185544484	5523.75
2495.16419492579	5577.5
2497.33591518353	5526
2499.50701650444	5506
2501.67749917482	5508.5
2503.84736348091	5465.25
2506.01660970891	5504.75
2508.18523814496	5485.25
2510.35324907514	5491.25
2512.52064278551	5460.75
2514.68741956201	5456.75
2516.85357969058	5497
2519.01912345709	5441.25
2521.18405114735	5448.25
2523.34836304711	5407.75
2525.51205944208	5411
2527.6751406179	5416.75
2529.83760686016	5442.25
2531.99945845439	5380.5
2534.16069568606	5464.25
2536.3213188406	5422.75
2538.48132820336	5335.75
2540.64072405965	5343.25
2542.79950669471	5427.25
2544.95767639373	5418.25
2547.11523344184	5382.25
2549.27217812411	5340.75
2551.42851072555	5382.75
2553.58423153111	5336.5
2555.73934082569	5328.75
2557.89383889412	5343
2560.04772602118	5296.5
2562.20100249158	5251.75
2564.35366858996	5274.25
2566.50572460093	5290.75
2568.65717080901	5218.75
2570.80800749867	5267.75
2572.95823495433	5221.5
2575.10785346031	5205.25
2577.25686330093	5187
2579.40526476038	5117
2581.55305812282	5166
2583.70024367237	5147.25
2585.84682169303	5092
2587.99279246879	5092
2590.13815628354	5101.5
2592.28291342112	5051.75
2594.42706416531	5112
2596.5706087998	5045.25
2598.71354760826	5090
2600.85588087425	5075
2602.99760888127	5039.25
2605.13873191278	5013.5
2607.27925025214	5008.25
2609.41916418269	5048
2611.55847398764	4987.25
2613.69717995017	4980.75
2615.83528235339	5051.25
2617.97278148034	5030.25
2620.10967761398	5044
2622.2459710372	5024
2624.38166203284	4987
2626.51675088365	4955
2628.65123787231	4945.25
2630.78512328145	4999.75
2632.9184073936	4951.25
2635.05109049124	4966.75
2637.18317285676	4985.25
2639.31465477248	4973.75
2641.44553652067	4969.25
2643.5758183835	4955.25
2645.70550064309	4955
2647.83458358144	4950
2649.96306748053	4980.5
2652.09095262223	4990.75
2654.21823928836	4978
2656.34492776063	4917
2658.47101832071	4912.25
2660.59651125015	4947.5
2662.72140683047	4945.5
2664.84570534309	4931
2666.96940706934	4910
2669.0925122905	4890.75
2671.21502128773	4913.5
2673.33693434215	4894.5
2675.45825173479	4916.75
2677.57897374658	4891.5
2679.69910065839	4915.5
2681.818632751	4904
2683.93757030511	4913.25
2686.05591360133	4858.75
2688.17366292021	4909.75
2690.29081854218	4880.25
2692.40738074762	4839.5
2694.52334981681	4859.75
2696.63872602995	4866.25
2698.75350966713	4920.75
2700.86770100841	4916.5
2702.98130033371	4917.25
2705.09430792289	4833.25
2707.20672405571	4897
2709.31854901185	4952.5
2711.42978307091	4911.25
2713.54042651238	4937
2715.65047961567	4938.5
2717.7599426601	4922
2719.86881592491	4902.5
2721.97709968924	4965
2724.08479423213	4889
2726.19189983255	4912
2728.29841676934	4926.75
2730.4043453213	4895
2732.5096857671	4896.5
2734.61443838532	4877.25
2736.71860345444	4860.25
2738.82218125286	4894.75
2740.92517205889	4898
2743.02757615072	4876
2745.12939380646	4827.25
2747.23062530411	4863.25
2749.33127092159	4833.25
2751.4313309367	4857.75
2753.53080562716	4837.5
2755.62969527058	4884.25
2757.72800014448	4862.5
2759.82572052625	4859
2761.92285669323	4814.75
2764.0194089226	4850.75
2766.11537749147	4864.25
2768.21076267686	4872.25
2770.30556475566	4841.5
2772.39978400465	4869.75
2774.49342070054	4860
2776.58647511991	4849.75
2778.67894753923	4873
2780.77083823487	4865.75
2782.8621474831	4842.75
2784.95287556007	4849
2787.04302274184	4855
2789.13258930433	4868
2791.22157552338	4854
2793.30998167471	4821.5
2795.39780803392	4886.5
2797.4850548765	4873.5
2799.57172247786	4871.5
2801.65781111324	4866
2803.74332105781	4903.75
2805.82825258661	4889.5
2807.91260597457	4938.75
2809.9963814965	4860.5
2812.07957942711	4897.75
2814.16220004096	4877
2816.24424361252	4949.5
2818.32571041614	4975.25
2820.40660072604	4936.75
2822.48691481631	4998
2824.56665296098	5017.5
2826.64581543388	5004.25
2828.72440250876	5119.5
2830.80241445925	5172
2832.87985155885	5275.5
2834.95671408093	5393.25
2837.03300229875	5575.5
2839.10871648544	5835.5
2841.18385691399	6144.25
2843.25842385729	6464.75
2845.33241758808	6613.5
2847.40583837898	6739
2849.4786865025	6755
2851.550962231	6633
2853.6226658367	6411.5
2855.69379759173	6338.75
2857.76435776806	6277.5
2859.83434663753	6124.25
2861.90376447184	6064.5
2863.97261154259	6033.5
2866.0408881212	5986.25
2868.10859447901	5985.5
2870.17573088717	6055.25
2872.24229761673	6077
2874.30829493859	6230.5
2876.37372312352	6452.75
2878.43858244215	6946.25
2880.50287316496	7275.25
2882.56659556231	7225
2884.62974990439	6891
2886.69233646129	6610.25
2888.75435550293	6389.5
2890.81580729909	6323.25
2892.87669211941	6333.75
2894.93701023339	6301.75
2896.99676191039	6268.75
2899.05594741961	6252.75
2901.1145670301	6174
2903.1726210108	6137.75
2905.23010963045	6071
2907.28703315768	5954.25
2909.34339186096	6019.25
2911.39918600861	5967
2913.45441586879	5861.5
2915.50908170952	5860
2917.56318379867	5848.5
2919.61672240395	5942.5
2921.66969779291	5914.75
2923.72211023295	5898.25
2925.77395999134	5884.75
2927.82524733515	5917.75
2929.87597253132	5845.5
2931.92613584663	5854
2933.97573754769	5780
2936.02477790097	5733
2938.07325717276	5662
2940.1211756292	5632.75
2942.16853353626	5532.25
2944.21533115976	5520.5
2946.26156876536	5441.25
2948.30724661853	5389.75
2950.3523649846	5398.75
2952.39692412872	5358.5
2954.44092431587	5352.5
2956.48436581089	5345.25
2958.52724887843	5309.25
2960.56957378296	5269.75
2962.6113407888	5339.75
2964.65255016011	5319
2966.69320216083	5308
2968.73329705479	5303.25
2970.77283510559	5299.5
2972.81181657671	5311.25
2974.8502417314	5361.5
2976.88811083279	5337
2978.92542414378	5358.25
2980.96218192713	5337
2982.99838444541	5371.25
2985.034031961	5381
2987.06912473612	5435.75
2989.1036630328	5441.75
2991.13764711288	5361.75
2993.17107723804	5396.75
2995.20395366974	5393.5
2997.23627666931	5433.75
2999.26804649782	5472
3001.29926341624	5483
3003.32992768528	5462.5
3005.3600395655	5459.25
3007.38959931726	5465.25
3009.41860720076	5511.25
3011.44706347595	5548
3013.47496840263	5492.5
3015.50232224041	5510.75
3017.5291252487	5597
3019.5553776867	5529.25
3021.58107981344	5611.75
3023.60623188773	5541.25
3025.63083416822	5561
3027.65488691331	5613.25
3029.67839038125	5593.5
3031.70134483007	5565.25
3033.72375051759	5611.75
3035.74560770144	5590.75
3037.76691663907	5642.25
3039.78767758768	5708.75
3041.80789080431	5657.75
3043.82755654577	5675.25
3045.84667506867	5663.25
3047.8652466294	5684
3049.88327148418	5650.75
3051.90074988899	5682.5
3053.91768209961	5654.75
3055.9340683716	5596.5
3057.94990896033	5655.75
3059.96520412095	5686.25
3061.97995410838	5691.75
3063.99415917734	5697.5
3066.00781958234	5667.5
3068.02093557766	5694
3070.03350741738	5648.25
3072.04553535535	5684
3074.05701964521	5741.5
3076.06796054036	5657.75
3078.078358294	5684.75
3080.08821315912	5624.25
3082.09752538846	5679.5
3084.10629523454	5616.25
3086.11452294967	5677.75
3088.12220878592	5596
3090.12935299515	5686.5
3092.13595582898	5680.25
3094.1420175388	5621.75
3096.14753837579	5663
3098.15251859088	5671.5
3100.15695843477	5668.5
3102.16085815793	5648.75
3104.16421801061	5687
3106.16703824282	5691
3108.16931910432	5666.25
3110.17106084464	5612.25
3112.17226371308	5692.25
3114.17292795872	5676
3116.17305383034	5672.5
3118.17264157657	5637.5
3120.17169144571	5689
3122.17020368587	5655.5
3124.16817854492	5685.75
3126.16561627044	5700.25
3128.16251710982	5719.25
3130.15888131017	5729
3132.15470911837	5747
3134.15000078104	5695.5
3136.14475654455	5687.75
3138.13897665502	5767.25
3140.13266135835	5779.75
3142.12581090014	5720.25
3144.11842552577	5733.5
3146.11050548036	5788
3148.10205100875	5770
3150.09306235557	5780.25
3152.08353976515	5756.25
3154.07348348158	5752.5
3156.06289374869	5816.25
3158.05177081006	5724
3160.04011490899	5705.25
3162.02792628852	5814
3164.01520519145	5744
3166.00195186029	5779.5
3167.98816653728	5834
3169.97384946442	5768.75
3171.95900088344	5758
3173.94362103577	5768.5
3175.92771016259	5739
3177.91126850484	5836
3179.89429630312	5841.25
3181.87679379782	5752.5
3183.85876122903	5808.75
3185.84019883657	5826.25
3187.82110685997	5798.75
3189.80148553851	5812.5
3191.78133511116	5818
3193.76065581664	5761.75
3195.73944789337	5821.25
3197.7177115795	5838
3199.6954471129	5838
3201.67265473114	5835.75
3203.64933467153	5818
3205.62548717107	5875.5
3207.60111246648	5850
3209.57621079421	5847.5
3211.55078239041	5899
3213.52482749093	5854.25
3215.49834633133	5924.5
3217.4713391469	5950.5
3219.44380617262	5935.25
3221.41574764317	5918.25
3223.38716379296	5914.25
3225.35805485607	5928.25
3227.32842106631	5970.75
3229.29826265718	6007
3231.26757986187	5948.75
3233.2363729133	6000
3235.20464204405	5991.5
3237.17238748643	5988.5
3239.13960947243	6038.75
3241.10630823374	6029.5
3243.07248400174	5997
3245.03813700748	6075.25
3247.00326748177	6031.25
3248.96787565503	6034
3250.93196175742	6023.75
3252.89552601877	6070
3254.8585686686	6048.25
3256.82108993612	6064.25
3258.78309005022	6063.25
3260.74456923948	6060.5
3262.70552773215	6056.5
3264.66596575617	6060.5
3266.62588353916	6094.75
3268.58528130843	6066.75
3270.54415929094	6003.25
3272.50251771336	6059.75
3274.46035680201	6055
3276.4176767829	6067.5
3278.37447788171	6091
3280.33076032379	6079.25
3282.28652433416	6070.75
3284.24177013751	6096
3286.1964979582	6106.5
3288.15070802027	6077
3290.10440054741	6070.25
3292.05757576298	6063.25
3294.01023389001	6090.25
3295.96237515119	6111.75
3297.91399976887	6098.5
3299.86510796506	6127.5
3301.81569996142	6109.5
3303.76577597932	6080.5
3305.7153362397	6111.25
3307.66438096324	6135
3309.61291037024	6116
3311.56092468064	6067
3313.50842411404	6062
3315.45540888971	6099.5
3317.40187922656	6048.25
3319.34783534315	6068.25
3321.29327745768	6021.25
3323.23820578801	6014.25
3325.18262055164	6057
3327.1265219657	6041.25
3329.06991024699	6061.5
3331.01278561194	6043.5
3332.95514827662	6064.5
3334.89699845674	6041.25
3336.83833636766	6055.75
3338.77916222434	5987.5
3340.71947624143	6012.75
3342.65927863317	6107.5
3344.59856961346	5998.25
3346.53734939584	5990.25
3348.47561819344	5994
3350.41337621906	6018.25
3352.35062368513	6022.75
3354.28736080368	5972.25
3356.22358778637	5979.75
3358.15930484452	6022.75
3360.09451218904	6062.75
3362.02921003047	6030.25
3363.96339857898	6049.75
3365.89707804436	6009.25
3367.83024863602	5981.75
3369.76291056299	5993.25
3371.69506403389	5998.25
3373.62670925699	5997
3375.55784644016	6011.75
3377.4884757909	6003.5
3379.41859751629	6013
3381.34821182305	6034.25
3383.27731891749	6015.75
3385.20591900555	6005.5
3387.13401229276	6043.25
3389.06159898426	6061
3390.9886792848	6098.75
3392.91525339872	6081.75
3394.84132152998	6064.75
3396.76688388213	6047.5
3398.69194065833	6079.25
3400.61649206133	6063
3402.54053829348	6106.75
3404.46407955672	6072.5
3406.3871160526	6056.75
3408.30964798225	6100.75
3410.23167554639	6047.75
3412.15319894535	6101.5
3414.07421837904	6044.25
3415.99473404695	6064.75
3417.91474614817	6077.25
3419.83425488136	6076.5
3421.75326044479	6081.75
3423.67176303631	6073.75
3425.58976285332	6094.75
3427.50726009282	6108.25
3429.42425495143	6050.5
3431.34074762528	6030.75
3433.25673831012	5983
3435.17222720127	6033.25
3437.08721449362	5990.25
3439.00170038164	6026.25
3440.91568505936	6046.25
3442.82916872039	5995.25
3444.74215155791	5972
3446.65463376468	6010.25
3448.566615533	5981.5
3450.47809705476	5971.25
3452.3890785214	6000
3454.29956012393	6007
3456.20954205293	6018.5
3458.11902449853	5991.75
3460.02800765041	5980
3461.93649169784	5982.5
3463.84447682962	6006.75
3465.75196323412	5947.25
3467.65895109925	5947.25
3469.56544061249	5944.25
3471.47143196086	5929.75
3473.37692533093	5935.5
3475.28192090884	5947.5
3477.18641888026	5993.25
3479.09041943039	5956.25
3480.99392274402	6000.25
3482.89692900545	5976.5
3484.79943839853	5955.25
3486.70145110666	5939
3488.60296731277	5919
3490.50398719933	5907.25
3492.40451094836	5918
3494.30453874141	5922.25
3496.20407075956	5917
3498.10310718342	5973.5
3500.00164819315	5908