201.866871357051	873
204.754250281454	870
207.640596790938	874.799987792969
210.525911876299	863.799987792969
213.410196525689	852.799987792969
216.293451724508	860.400024414062
219.175678455485	859
222.056877698662	853.799987792969
224.937050431388	850.200012207031
227.816197628363	867.200012207031
230.694320261602	862
233.571419300504	854.799987792969
236.447495711764	858.799987792969
239.322550459507	855.200012207031
242.196584505182	859.200012207031
245.069598807626	853.400024414062
247.941594323078	848.400024414062
250.812572005154	852.200012207031
253.682532804884	854.799987792969
256.551477670699	858.200012207031
259.419407548456	857.400024414062
262.286323381439	856.799987792969
265.152226110364	856.799987792969
268.017116673389	842
270.880996006115	859.799987792969
273.743865041622	859
276.605724710436	858.400024414062
279.466575940562	860.799987792969
282.326419657496	855.200012207031
285.1852567842	862.599975585938
288.043088241157	864.200012207031
290.899914946349	867.400024414062
293.75573781526	872.599975585938
296.610557760898	876
299.464375693817	878.200012207031
302.317192522078	887.400024414062
305.169009151297	896.799987792969
308.019826484655	890.200012207031
310.86964542287	897.799987792969
313.718466864233	888
316.566291704614	902
319.413120837457	907
322.258955153804	893.799987792969
325.103795542291	899.799987792969
327.947642889128	894.200012207031
330.79049807819	906.200012207031
333.632361990927	905.599975585938
336.473235506444	902.200012207031
339.31311950145	910
342.152014850322	917
344.989922425062	921.799987792969
347.826843095354	937.799987792969
350.662777728528	936
353.497727189577	962.400024414062
356.331692341195	976.799987792969
359.164674043732	972.799987792969
361.996673155267	971.200012207031
364.827690531536	981.200012207031
367.65772702602	946.599975585938
370.486783489887	940.400024414062
373.314860772047	914.400024414062
376.14195971912	917.799987792969
378.968081175466	899
381.793225983212	881.400024414062
384.617394982201	876.400024414062
387.44058901005	875.400024414062
390.262808902131	862.599975585938
393.08405549161	849.799987792969
395.904329609395	848.400024414062
398.723632084213	848.400024414062
401.541963742569	840.599975585938
404.359325408779	832.200012207031
407.175717904938	829.599975585938
409.991142050982	827
412.805598664665	828.799987792969
415.619088561551	826.200012207031
418.43161255505	834.599975585938
421.243171456415	828.599975585938
424.053766074758	831.799987792969
426.863397217017	834.400024414062
429.672065688024	827.599975585938
432.479772290455	830.799987792969
435.286517824879	825
438.092303089736	819.400024414062
440.897128881359	823.400024414062
443.70099599399	823.599975585938
446.503905219761	817
449.305857348711	817.200012207031
452.106853168796	809.200012207031
454.906893465919	807.200012207031
457.705979023885	806
460.504110624439	806.799987792969
463.3012890473	804.400024414062
466.097515070087	809.599975585938
468.892789468424	802.200012207031
471.687113015869	792
474.48048648395	802.200012207031
477.272910642198	787.200012207031
480.064386258109	806.599975585938
482.854914097159	807.200012207031
485.644494922839	815.200012207031
488.433129496636	796.799987792969
491.220818578047	801.400024414062
494.007562924584	804.400024414062
496.793363291785	806.400024414062
499.578220433217	804.599975585938
502.362135100473	811
505.145108043209	812.400024414062
507.927140009098	810.799987792969
510.708231743909	809.799987792969
513.488383991433	811.400024414062
516.267597493556	812.200012207031
519.04587299022	813.400024414062
521.82321121946	814.400024414062
524.599612917398	814.799987792969
527.375078818233	824.799987792969
530.149609654287	817.400024414062
532.923206155967	818.799987792969
535.695869051804	834.400024414062
538.467599068448	828.200012207031
541.238396930665	824.200012207031
544.008263361364	832.599975585938
546.777199081578	823.799987792969
549.545204810493	830.200012207031
552.312281265436	825.400024414062
555.078429161898	826.400024414062
557.843649213533	835
560.607942132156	835.400024414062
563.371308627753	829.400024414062
566.133749408495	840.400024414062
568.895265180756	832.400024414062
571.655856649064	839.799987792969
574.415524516189	834.599975585938
577.174269483075	836
579.932092248884	839.599975585938
582.688993510994	844.799987792969
585.444973965023	845.799987792969
588.200034304795	855.599975585938
590.95417522237	864.599975585938
593.70739740807	863.799987792969
596.459701550433	883.400024414062
599.21108833628	897.799987792969
601.961558450668	939
604.711112576933	993.599975585938
607.459751396673	1012.79998779297
610.207475589748	1040.80004882812
612.954285834338	1070
615.700182806879	1083.19995117188
618.445167182101	1102.80004882812
621.189239633055	1115.59997558594
623.932400831087	1124.80004882812
626.674651445839	1154.80004882812
629.415992145303	1173.59997558594
632.156423595745	1199
634.895946461813	1235.59997558594
637.634561406449	1241.40002441406
640.37226909096	1222.59997558594
643.109070174978	1189
645.844965316508	1160.59997558594
648.579955171888	1126.40002441406
651.314040395846	1076
654.047221641456	1043.59997558594
656.779499560176	1016.40002441406
659.510874801828	980.200012207031
662.241348014642	968.599975585938
664.97091984524	973
667.699590938606	968.599975585938
670.427361938164	991
673.15423348573	995.400024414062
675.880206221526	1029.80004882812
678.605280784206	1047.40002441406
681.329457810829	1076.40002441406
684.05273793692	1108
686.775121796389	1121.80004882812
689.49661002163	1147
692.217203243454	1156.40002441406
694.936902091144	1151.80004882812
697.655707192425	1162.59997558594
700.373619173493	1130
703.09063865901	1111
705.806766272093	1091.59997558594
708.522002634378	1051.59997558594
711.236348365946	1022.79998779297
713.94980408538	978.200012207031
716.662370409762	951
719.374047954676	927.400024414062
722.08483733419	917
724.794739160909	903
727.503754045949	904.400024414062
730.21188259892	894.799987792969
732.919125427998	882.400024414062
735.625483139855	865.799987792969
738.330956339723	866.400024414062
741.035545631374	878.400024414062
743.739251617106	870.400024414062
746.44207489779	867.799987792969
749.144016072852	866.200012207031
751.845075740272	869.200012207031
754.545254496603	861.200012207031
757.244552936976	862.599975585938
759.94297165508	869.799987792969
762.640511243222	861
765.337172292249	871.200012207031
768.032955391649	855.200012207031
770.727861129482	870.200012207031
773.421890092413	866.799987792969
776.11504286572	871.799987792969
778.807320033298	864.200012207031
781.49872217765	871.599975585938
784.18924987991	864
786.87890371984	870.400024414062
789.567684275826	875.200012207031
792.255592124908	867
794.94262784276	873.599975585938
797.628792003703	875.400024414062
800.314085180715	875
802.998507945427	879.200012207031
805.682060868145	873.799987792969
808.364744517821	891.599975585938
811.046559462105	896.200012207031
813.727506267311	891
816.407585498422	884.400024414062
819.08679771913	897
821.765143491822	911.400024414062
824.442623377563	907.799987792969
827.119237936127	914.799987792969
829.794987726003	920.599975585938
832.469873304377	924
835.143895227167	932
837.817054048985	928
840.489350323205	937.400024414062
843.160784601892	925.599975585938
845.831357435894	941.799987792969
848.501069374739	936
851.169920966753	947.599975585938
853.837912758987	939.799987792969
856.505045297232	948.799987792969
859.171319126071	952
861.836734788823	945.200012207031
864.501292827579	948
867.164993783208	944.599975585938
869.827838195361	946.400024414062
872.489826602454	950
875.150959541701	964
877.811237549104	944
880.470661159456	961.799987792969
883.129230906357	960.799987792969
885.786947322205	959.799987792969
888.443810938206	961.400024414062
891.099822284385	956.599975585938
893.754981889586	967
896.409290281452	959.200012207031
899.062747986485	980.799987792969
901.715355529999	971.799987792969
904.367113436154	990.599975585938
907.01802222793	979.799987792969
909.668082427172	983
912.317294554574	977
914.965659129659	989.200012207031
917.613176670835	1000
920.259847695364	995.400024414062
922.90567271936	1009.79998779297
925.550652257825	1013.20001220703
928.194786824621	1018.40002441406
930.838076932512	1016.40002441406
933.480523093109	1020.79998779297
936.122125816953	1021.79998779297
938.762885613447	1027.40002441406
941.402802990899	1032.19995117188
944.041878456523	1040.80004882812
946.680112516428	1040.80004882812
949.31750567563	1041
951.954058438081	1051.80004882812
954.589771306633	1062.40002441406
957.224644783048	1066
959.858679368044	1064.40002441406
962.491875561238	1072.59997558594
965.12423386121	1077
967.75575476545	1084
970.386438770423	1076.40002441406
973.016286371501	1083.19995117188
975.645298063046	1077.19995117188
978.273474338355	1081.40002441406
980.900815689674	1093.80004882812
983.527322608243	1095.59997558594
986.152995584245	1110.19995117188
988.777835106834	1105.40002441406
991.401841664148	1128.59997558594
994.025015743307	1131.40002441406
996.647357830407	1156.40002441406
999.268868410534	1184.19995117188
1001.88954796777	1183
1004.50939698518	1192.19995117188
1007.12841594484	1163
1009.74660532783	1142
1012.36396561423	1155.19995117188
1014.98049728314	1151.19995117188
1017.59620081267	1157.40002441406
1020.21107667995	1166.59997558594
1022.82512536112	1176.19995117188
1025.43834733138	1181.80004882812
1028.05074306493	1196.59997558594
1030.66231303501	1202.19995117188
1033.27305771392	1207.80004882812
1035.88297757299	1220
1038.49207308257	1201.59997558594
1041.10034471211	1202.19995117188
1043.70779293008	1204.59997558594
1046.31441820402	1221.19995117188
1048.92022100052	1216.80004882812
1051.52520178525	1225.19995117188
1054.12936102295	1231.59997558594
1056.73269917742	1254.19995117188
1059.33521671154	1252
1061.93691408729	1255
1064.53779176571	1259.59997558594
1067.13785020694	1268
1069.73708987022	1275.80004882812
1072.33551121386	1290.80004882812
1074.93311469528	1283.59997558594
1077.52990077103	1302
1080.12586989674	1304.80004882812
1082.72102252714	1318.80004882812
1085.31535911611	1329
1087.90888011663	1351.19995117188
1090.50158598078	1327.80004882812
1093.09347715979	1355.59997558594
1095.68455410403	1371
1098.27481726296	1359.80004882812
1100.86426708523	1380.80004882812
1103.45290401857	1386.59997558594
1106.04072850991	1400.40002441406
1108.6277410053	1388
1111.21394194993	1382.19995117188
1113.79933178816	1407.19995117188
1116.3839109635	1425
1118.96767991862	1416.59997558594
1121.55063909539	1432.19995117188
1124.13278893477	1428.40002441406
1126.71412987696	1441.40002441406
1129.29466236132	1416.59997558594
1131.87438682637	1445.59997558594
1134.45330370982	1438.80004882812
1137.03141344858	1432
1139.60871647872	1451.59997558594
1142.18521323554	1446.40002441406
1144.7609041535	1467.59997558594
1147.33578966629	1470.59997558594
1149.90987020676	1487.80004882813
1152.48314620702	1500
1155.05561809835	1497.80004882813
1157.62728631125	1516.59997558594
1160.19815127545	1530.40002441406
1162.76821341988	1564.40002441406
1165.33747317271	1571.80004882813
1167.90593096133	1585.59997558594
1170.47358721235	1597
1173.04044235163	1614.80004882813
1175.60649680425	1620.40002441406
1178.17175099454	1631.40002441406
1180.73620534607	1659.80004882813
1183.29986028165	1636.59997558594
1185.86271622336	1651.59997558594
1188.42477359249	1652.59997558594
1190.98603280964	1666
1193.54649429462	1659.80004882813
1196.10615846653	1669.40002441406
1198.66502574372	1665
1201.22309654385	1683.19995117187
1203.78037128378	1690.59997558594
1206.33685037971	1689.59997558594
1208.89253424709	1684.19995117187
1211.44742330063	1686.19995117187
1214.00151795438	1706
1216.55481862163	1717.40002441406
1219.10732571497	1725.80004882813
1221.65903964631	1748.40002441406
1224.20996082683	1755.19995117187
1226.760089667	1766.59997558594
1229.30942657664	1777.80004882813
1231.85797196483	1791.19995117187
1234.40572623998	1812.40002441406
1236.95268980981	1811.19995117187
1239.49886308136	1841.80004882813
1242.04424646098	1843.59997558594
1244.58884035435	1880.40002441406
1247.13264516647	1898.40002441406
1249.67566130166	1880.80004882813
1252.21788916358	1920.40002441406
1254.75932915524	1929.80004882813
1257.29998167896	1955.80004882813
1259.83984713639	1960.40002441406
1262.37892592857	1989.59997558594
1264.91721845586	2008
1267.45472511795	2012.19995117187
1269.9914463139	2013.59997558594
1272.52738244213	2035.40002441406
1275.0625339004	2051.19995117187
1277.59690108587	2051.39990234375
1280.130484395	2093.60009765625
1282.66328422367	2080.60009765625
1285.19530096712	2099.39990234375
1287.72653501993	2136.39990234375
1290.25698677608	2147.39990234375
1292.78665662894	2183.60009765625
1295.31554497125	2201.19995117187
1297.8436521951	2222.60009765625
1300.37097869203	2247.19995117187
1302.89752485292	2262
1305.42329106805	2268.80004882813
1307.94827772713	2305.39990234375
1310.47248521921	2325.60009765625
1312.99591393279	2360.19995117187
1315.51856425575	2359
1318.04043657536	2361.80004882813
1320.56153127836	2378
1323.08184875083	2428.39990234375
1325.6013893783	2442.19995117187
1328.12015354572	2478.60009765625
1330.63814163744	2481
1333.15535403727	2499.80004882813
1335.67179112839	2540.39990234375
1338.18745329347	2524.60009765625
1340.70234091454	2556
1343.21645437314	2530.19995117187
1345.72979405019	2577.80004882813
1348.24236032607	2585.60009765625
1350.75415358059	2624.19995117187
1353.26517419303	2612
1355.7754225421	2647.39990234375
1358.28489900594	2697
1360.79360396218	2699.80004882813
1363.30153778787	2713.39990234375
1365.80870085955	2710.60009765625
1368.31509355319	2746.60009765625
1370.82071624424	2750.39990234375
1373.32556930762	2753.80004882813
1375.8296531177	2788.39990234375
1378.33296804832	2776.60009765625
1380.83551447282	2797
1383.33729276399	2810.19995117187
1385.83830329408	2845.60009765625
1388.33854643489	2834.39990234375
1390.83802255762	2840.80004882813
1393.33673203301	2871
1395.83467523128	2877.80004882813
1398.33185252211	2878
1400.82826427471	2912.39990234375
1403.32391085777	2922
1405.81879263947	2943.19995117188
1408.31290998752	2982
1410.80626326908	3013.80004882812
1413.29885285087	3028
1415.79067909909	3061.39990234375
1418.28174237944	3158.39990234375
1420.77204305717	3183.60009765625
1423.26158149702	3235.19995117188
1425.75035806323	3282
1428.2383731196	3318.60009765625
1430.72562702942	3333.60009765625
1433.21212015554	3355.19995117188
1435.69785286028	3403.19995117188
1438.18282550555	3418.60009765625
1440.66703845275	3388.19995117188
1443.15049206284	3401.19995117188
1445.6331866963	3441.80004882812
1448.11512271316	3441.80004882812
1450.59630047298	3493.80004882812
1453.07672033486	3501
1455.55638265748	3525.60009765625
1458.03528779902	3535.80004882812
1460.51343611725	3553
1462.99082796946	3597.60009765625
1465.46746371252	3564.60009765625
1467.94334370285	3602
1470.41846829642	3633.19995117188
1472.89283784878	3704.39990234375
1475.36645271503	3711.80004882812
1477.83931324983	3737
1480.31141980743	3750.80004882812
1482.78277274164	3839.19995117188
1485.25337240583	3812.39990234375
1487.72321915297	3800.80004882812
1490.19231333557	3827.39990234375
1492.66065530578	3853.60009765625
1495.12824541525	3878.80004882812
1497.5950840153	3926.80004882812
1500.06117145678	3937.19995117188
1502.52650809014	3970.19995117188
1504.99109426543	3965.80004882812
1507.45493033227	3994.80004882812
1509.91801663992	4043.39990234375
1512.38035353717	4058
1514.84194137248	4108.2001953125
1517.30278049386	4152.39990234375
1519.76287124894	4152.2001953125
1522.22221398497	4196.60009765625
1524.68080904876	4199
1527.13865678681	4202.2001953125
1529.59575754514	4275.2001953125
1532.05211166945	4298.60009765625
1534.50771950503	4357.39990234375
1536.96258139678	4402.2001953125
1539.41669768924	4415.2001953125
1541.87006872656	4454.2001953125
1544.32269485252	4486.39990234375
1546.77457641051	4509.2001953125
1549.22571374357	4598.7998046875
1551.67610719434	4634.39990234375
1554.12575710513	4698
1556.57466381785	4669.2001953125
1559.02282767408	4734
1561.47024901499	4823.2001953125
1563.91692818144	4824.2001953125
1566.3628655139	4899.2001953125
1568.80806135249	4900.39990234375
1571.252516037	4934.7998046875
1573.6962299068	5018.39990234375
1576.13920330099	5049
1578.58143655828	5142.60009765625
1581.02293001704	5174.60009765625
1583.46368401528	5151.2001953125
1585.90369889071	5202.60009765625
1588.34297498065	5246.39990234375
1590.7815126221	5297.60009765625
1593.21931215173	5333.39990234375
1595.65637390588	5336.39990234375
1598.09269822053	5371.39990234375
1600.52828543135	5428.7998046875
1602.96313587367	5452.60009765625
1605.3972498825	5444.2001953125
1607.83062779252	5475
1610.26326993808	5522.39990234375
1612.69517665322	5519
1615.12634827165	5579
1617.55678512676	5583.60009765625
1619.98648755163	5587
1622.41545587902	5606.7998046875
1624.84369044138	5698.60009765625
1627.27119157085	5721
1629.69795959924	5734.2001953125
1632.12399485808	5802
1634.54929767859	5817.2001953125
1636.97386839165	5848.7998046875
1639.39770732789	5883.7998046875
1641.8208148176	5900.60009765625
1644.24319119078	5997
1646.66483677715	6012
1649.0857519061	6103.60009765625
1651.50593690677	6119.2001953125
1653.92539210795	6156
1656.3441178382	6172.39990234375
1658.76211442575	6254
1661.17938219855	6313.60009765625
1663.59592148428	6421.60009765625
1666.01173261032	6398
1668.42681590377	6518.7998046875
1670.84117169145	6586.7998046875
1673.25480029991	6540.2001953125
1675.66770205541	6639.2001953125
1678.07987728393	6682.39990234375
1680.49132631119	6712.7998046875
1682.90204946263	6786.60009765625
1685.31204706342	6830.2001953125
1687.72131943846	6875.60009765625
1690.1298669124	6919
1692.53768980957	6959.2001953125
1694.94478845411	6993.7998046875
1697.35116316982	7021.7998046875
1699.75681428031	7024.7998046875
1702.16174210887	7078.60009765625
1704.56594697858	7164.2001953125
1706.96942921222	7257.2001953125
1709.37218913235	7262.2001953125
1711.77422706125	7265.2001953125
1714.17554332098	7250.7998046875
1716.5761382333	7354.7998046875
1718.97601211977	7358.60009765625
1721.37516530169	7394.7998046875
1723.77359810006	7418.2001953125
1726.17131083572	7400.7998046875
1728.56830382922	7485.2001953125
1730.96457740087	7467.2001953125
1733.36013187075	7517.2001953125
1735.75496755868	7545.2001953125
1738.14908478428	7610.7998046875
1740.54248386689	7607.2001953125
1742.93516512565	7644.39990234375
1745.32712887946	7694.60009765625
1747.71837544697	7730.39990234375
1750.10890514662	7831.39990234375
1752.49871829661	7820.2001953125
1754.88781521492	7841.60009765625
1757.27619621929	7888.2001953125
1759.66386162726	7932.7998046875
1762.05081175612	7971.7998046875
1764.43704692297	8017.39990234375
1766.82256744465	8072.2001953125
1769.20737363782	8154.7998046875
1771.59146581887	8154.39990234375
1773.97484430405	8211.599609375
1776.35750940932	8263
1778.73946145048	8267.7998046875
1781.12070074309	8332.599609375
1783.50122760249	8407.2001953125
1785.88104234385	8479.400390625
1788.26014528209	8493
1790.63853673196	8563.7998046875
1793.01621700796	8589.599609375
1795.39318642443	8709.599609375
1797.76944529549	8683.599609375
1800.14499393503	8704
1802.51983265681	8713.400390625
1804.8939617743	8822
1807.26738160085	8914.400390625
1809.64009244957	8868.7998046875
1812.01209463339	8906.7998046875
1814.38338846504	9041.400390625
1816.75397425706	8990
1819.12385232181	9028.2001953125
1821.49302297142	9086.599609375
1823.86148651789	9077.599609375
1826.22924327299	9062.599609375
1828.59629354831	9166.400390625
1830.96263765526	9163.599609375
1833.32827590507	9192.599609375
1835.69320860877	9290.400390625
1838.05743607724	9308.2001953125
1840.42095862113	9326.7998046875
1842.78377655097	9380.599609375
1845.14589017707	9356
1847.50729980956	9428.400390625
1849.86800575843	9416.400390625
1852.22800833346	9438.599609375
1854.58730784427	9534.400390625
1856.94590460032	9553.400390625
1859.30379891087	9652.7998046875
1861.66099108503	9698.400390625
1864.01748143175	9785.2001953125
1866.37327025978	9773
1868.72835787773	9718.599609375
1871.08274459403	9877.2001953125
1873.43643071697	9838.7998046875
1875.78941655464	9990.400390625
1878.14170241498	9935.400390625
1880.4932886058	10068.599609375
1882.84417543469	10134.599609375
1885.19436320915	10093.2001953125
1887.54385223646	10191.2001953125
1889.89264282378	10303
1892.24073527809	10333.7998046875
1894.58812990625	10343.400390625
1896.93482701493	10549.2001953125
1899.28082691067	10507.2001953125
1901.62612989984	10604.599609375
1903.97073628868	10622
1906.31464638326	10662.400390625
1908.6578604895	10730.599609375
1911.00037891321	10826.599609375
1913.34220196	10905.599609375
1915.68332993537	10995
1918.02376314468	10928.2001953125
1920.36350189311	11017.7998046875
1922.70254648573	11043.599609375
1925.04089722744	11066
1927.37855442303	11069.7998046875
1929.71551837715	11076.2001953125
1932.05178939426	11088.599609375
1934.38736777876	11163.599609375
1936.72225383484	11111
1939.0564478666	11340.400390625
1941.38995017799	11236
1943.72276107283	11325
1946.05488085479	11228.2001953125
1948.38630982744	11278
1950.71704829419	11303.400390625
1953.04709655832	11332.599609375
1955.376454923	11305.7998046875
1957.70512369126	11381.2001953125
1960.03310316599	11438.400390625
1962.36039364999	11377.2001953125
1964.68699544589	11426.400390625
1967.01290885622	11532
1969.33813418338	11541
1971.66267172965	11565.400390625
1973.98652179718	11576.2001953125
1976.309684688	11643
1978.63216070402	11672
1980.95395014705	11864.599609375
1983.27505331873	11705.7998046875
1985.59547052063	11764.400390625
1987.9152020542	11825.2001953125
1990.23424822074	11871
1992.55260932146	11857
1994.87028565746	11964.599609375
1997.18727752968	11994.7998046875
1999.503585239	12123.599609375
2001.81920908618	12126.599609375
2004.13414937184	12177.2001953125
2006.44840639651	12326.7998046875
2008.7619804606	12318.2001953125
2011.07487186442	12454.2001953125
2013.38708090815	12601.7998046875
2015.6986078919	12519.599609375
2018.00945311564	12534.599609375
2020.31961687923	12545.599609375
2022.62909948246	12703.7998046875
2024.93790122498	12714.2001953125
2027.24602240636	12743.400390625
2029.55346332604	12830
2031.86022428337	12857.7998046875
2034.16630557761	12926
2036.47170750791	12885.7998046875
2038.77643037331	12976.2001953125
2041.08047447275	13050.2001953125
2043.38384010509	12882.2001953125
2045.68652756907	13054.400390625
2047.98853716335	13046.400390625
2050.28986918648	13049
2052.59052393692	13159.599609375
2054.89050171302	13178
2057.18980281306	13146.7998046875
2059.4884275352	13249.599609375
2061.78637617753	13228
2064.08364903802	13140
2066.38024641457	13238.2001953125
2068.67616860497	13360.599609375
2070.97141590694	13256.7998046875
2073.26598861809	13330.2001953125
2075.55988703595	13204.2001953125
2077.85311145796	13272.599609375
2080.14566218145	13419.400390625
2082.43753950371	13375
2084.72874372188	13339.7998046875
2087.01927513307	13366.400390625
2089.30913403428	13456.599609375
2091.59832072241	13484.599609375
2093.88683549429	13375.2001953125
2096.17467864666	13518
2098.46185047619	13517
2100.74835127944	13655.400390625
2103.03418135292	13666.2001953125
2105.31934099303	13504.7998046875
2107.6038304961	13748.599609375
2109.88765015838	13701
2112.17080027602	13745.599609375
2114.45328114513	13806.7998046875
2116.7350930617	13745.599609375
2119.01623632165	13863
2121.29671122085	13803.2001953125
2123.57651805505	13830.7998046875
2125.85565711996	13968.400390625
2128.13412871117	13985.7998046875
2130.41193312424	13972.599609375
2132.68907065462	14052.2001953125
2134.96554159771	14076.2001953125
2137.24134624881	14074.400390625
2139.51648490317	14180
2141.79095785593	14193.400390625
2144.0647654022	14290.2001953125
2146.33790783698	14245.2001953125
2148.61038545524	14267
2150.88219855182	14397.7998046875
2153.15334742154	14368.400390625
2155.42383235911	14507
2157.6936536592	14537.400390625
2159.9628116164	14453.2001953125
2162.23130652522	14482.7998046875
2164.49913868011	14544.599609375
2166.76630837544	14561.599609375
2169.03281590552	14555.400390625
2171.2986615646	14637.599609375
2173.56384564685	14615.2001953125
2175.82836844637	14584.2001953125
2178.0922302572	14646.599609375
2180.35543137332	14659.400390625
2182.61797208862	14719.2001953125
2184.87985269695	14595
2187.14107349208	14632
2189.40163476773	14760.7998046875
2191.66153681753	14704.599609375
2193.92077993507	14621.2001953125
2196.17936441386	14689.400390625
2198.43729054735	14750.2001953125
2200.69455862894	14760
2202.95116895194	14791.7998046875
2205.20712180962	14773.2001953125
2207.46241749519	14778.2001953125
2209.71705630179	14828.400390625
2211.97103852248	14821.599609375
2214.2243644503	14894.7998046875
2216.47703437819	14826.400390625
2218.72904859905	14847.7998046875
2220.98040740571	14862.599609375
2223.23111109095	14886.599609375
2225.4811599475	14872.7998046875
2227.73055426799	14892.7998046875
2229.97929434504	14884
2232.22738047118	14872.7998046875
2234.47481293889	14985.599609375
2236.72159204058	14999.7998046875
2238.96771806864	15000
2241.21319131536	14991.599609375
2243.458012073	14903.2001953125
2245.70218063374	15053.7998046875
2247.94569728973	15109
2250.18856233304	15074.400390625
2252.4307760557	14926.400390625
2254.67233874967	15052.599609375
2256.91325070687	15042.2001953125
2259.15351221915	15001.7998046875
2261.39312357831	15114.2001953125
2263.63208507611	14986
2265.87039700422	15089.599609375
2268.1080596543	15180.7998046875
2270.34507331792	15103.7998046875
2272.5814382866	15049.599609375
2274.81715485183	15158
2277.05222330502	15220.400390625
2279.28664393755	15206.400390625
2281.52041704072	15242.599609375
2283.75354290581	15244
2285.98602182401	15235.599609375
2288.21785408648	15214.599609375
2290.44903998434	15263.400390625
2292.67957980862	15328.7998046875
2294.90947385033	15204
2297.1387224004	15300.599609375
2299.36732574975	15386
2301.59528418921	15234
2303.82259800958	15299.400390625
2306.04926750158	15325
2308.27529295593	15312.2001953125
2310.50067466325	15407
2312.72541291412	15335.599609375
2314.9495079991	15362
2317.17296020866	15351.2001953125
2319.39576983323	15430.7998046875
2321.61793716322	15374.7998046875
2323.83946248894	15307.599609375
2326.06034610069	15328.400390625
2328.28058828871	15348.2001953125
2330.50018934317	15383.599609375
2332.7191495542	15333.400390625
2334.93746921192	15320.599609375
2337.15514860633	15312.2001953125
2339.37218802743	15417.400390625
2341.58858776516	15229.400390625
2343.80434810941	15392.2001953125
2346.01946935001	15370.599609375
2348.23395177675	15358.599609375
2350.44779567939	15323
2352.66100134759	15298.2001953125
2354.87356907101	15262.2001953125
2357.08549913925	15161.7998046875
2359.29679184185	15283.400390625
2361.50744746829	15367.7998046875
2363.71746630804	15283
2365.92684865048	15254.599609375
2368.13559478499	15202
2370.34370500083	15288.7998046875
2372.55117958727	15220
2374.75801883352	15214.599609375
2376.96422302874	15144.7998046875
2379.16979246202	15100.2001953125
2381.37472742243	15103.2001953125
2383.57902819898	15148
2385.78269508063	15114
2387.98572835629	15077.2001953125
2390.18812831482	15069
2392.38989524505	15119.7998046875
2394.59102943573	15118.2001953125
2396.79153117559	15066.7998046875
2398.9914007533	15058.2001953125
2401.19063845748	15045.400390625
2403.38924457672	14973.7998046875
2405.58721939951	15064
2407.78456321435	14966.599609375
2409.98127630966	15049.2001953125
2412.17735897382	15051
2414.37281149517	14972.599609375
2416.56763416198	14962
2418.76182726249	15033
2420.95539108487	14906.599609375
2423.14832591726	14918.2001953125
2425.34063204776	14862.599609375
2427.53230976439	14813.599609375
2429.72335935513	14942.2001953125
2431.91378110795	14837
2434.10357531071	14786
2436.29274225125	14879.599609375
2438.48128221739	14753.2001953125
2440.66919549683	14832.400390625
2442.8564823773	14796
2445.04314314641	14804
2447.22917809176	14764.7998046875
2449.4145875009	14786.2001953125
2451.59937166131	14697.2001953125
2453.78353086044	14708.2001953125
2455.96706538568	14781.400390625
2458.14997552436	14588.2001953125
2460.33226156379	14640.2001953125
2462.51392379119	14632.599609375
2464.69496249376	14468
2466.87537795862	14532
2469.05517047288	14537.2001953125
2471.23434032357	14544.2001953125
2473.41288779767	14560.599609375
2475.59081318211	14433
2477.76811676378	14478.7998046875
2479.9447988295	14410
2482.12085966605	14330.2001953125
2484.29629956016	14353
2486.4711187985	14411.400390625
2488.64531766769	14503.599609375
2490.8188964543	14463
2492.99185544484	14384.400390625
2495.16419492579	14420.7998046875
2497.33591518353	14382.599609375
2499.50701650444	14355.2001953125
2501.67749917482	14355.7998046875
2503.84736348091	14328.400390625
2506.01660970891	14354.7998046875
2508.18523814496	14388.2001953125
2510.35324907514	14368.400390625
2512.52064278551	14332.2001953125
2514.68741956201	14356.400390625
2516.85357969058	14523.599609375
2519.01912345709	14385.400390625
2521.18405114735	14366.7998046875
2523.34836304711	14306.599609375
2525.51205944208	14376
2527.6751406179	14325.7998046875
2529.83760686016	14418
2531.99945845439	14315.599609375
2534.16069568606	14440.7998046875
2536.3213188406	14484
2538.48132820336	14308.599609375
2540.64072405965	14319.7998046875
2542.79950669471	14331
2544.95767639373	14537.7998046875
2547.11523344184	14376.400390625
2549.27217812411	14322.599609375
2551.42851072555	14446
2553.58423153111	14341.599609375
2555.73934082569	14242.7998046875
2557.89383889412	14268.400390625
2560.04772602118	14284
2562.20100249158	14169.400390625
2564.35366858996	14160.7998046875
2566.50572460093	14148.2001953125
2568.65717080901	14094.599609375
2570.80800749867	14172.2001953125
2572.95823495433	14111.2001953125
2575.10785346031	14033.400390625
2577.25686330093	13967.2001953125
2579.40526476038	13936.599609375
2581.55305812282	14019.599609375
2583.70024367237	13894.2001953125
2585.84682169303	13862
2587.99279246879	13887.2001953125
2590.13815628354	13852.400390625
2592.28291342112	13762
2594.42706416531	13845.599609375
2596.5706087998	13817.7998046875
2598.71354760826	14045
2600.85588087425	13933.2001953125
2602.99760888127	13802.7998046875
2605.13873191278	13776.2001953125
2607.27925025214	13804.599609375
2609.41916418269	13753
2611.55847398764	13810.2001953125
2613.69717995017	13837.599609375
2615.83528235339	13870
2617.97278148034	13876.7998046875
2620.10967761398	13847.7998046875
2622.2459710372	13899.400390625
2624.38166203284	13844.400390625
2626.51675088365	13871.400390625
2628.65123787231	13708.400390625
2630.78512328145	13837.400390625
2632.9184073936	13792
2635.05109049124	13798.2001953125
2637.18317285676	13744.2001953125
2639.31465477248	13873.7998046875
2641.44553652067	13830.2001953125
2643.5758183835	13787.599609375
2645.70550064309	13783.599609375
2647.83458358144	13820.599609375
2649.96306748053	13911.400390625
2652.09095262223	13883.400390625
2654.21823928836	13908.7998046875
2656.34492776063	13820.400390625
2658.47101832071	13739.7998046875
2660.59651125015	13944.7998046875
2662.72140683047	13878.400390625
2664.84570534309	13816
2666.96940706934	13751.599609375
2669.0925122905	13732.2001953125
2671.21502128773	13783.599609375
2673.33693434215	13761.7998046875
2675.45825173479	13784.599609375
2677.57897374658	13829.7998046875
2679.69910065839	13910.7998046875
2681.818632751	13828.400390625
2683.93757030511	13774.2001953125
2686.05591360133	13805.2001953125
2688.17366292021	13766.599609375
2690.29081854218	13810.7998046875
2692.40738074762	13706.599609375
2694.52334981681	13788.400390625
2696.63872602995	13768.400390625
2698.75350966713	13844.2001953125
2700.86770100841	13839.599609375
2702.98130033371	13776.2001953125
2705.09430792289	13667
2707.20672405571	13772
2709.31854901185	13844.2001953125
2711.42978307091	13819.2001953125
2713.54042651238	13818.2001953125
2715.65047961567	13872
2717.7599426601	13728.599609375
2719.86881592491	13763
2721.97709968924	13749.2001953125
2724.08479423213	13684.2001953125
2726.19189983255	13899.2001953125
2728.29841676934	13777.2001953125
2730.4043453213	13817.400390625
2732.5096857671	13860.2001953125
2734.61443838532	13874.400390625
2736.71860345444	13742.400390625
2738.82218125286	13795.400390625
2740.92517205889	13861
2743.02757615072	13925.7998046875
2745.12939380646	13847.599609375
2747.23062530411	13855
2749.33127092159	13922.7998046875
2751.4313309367	13840
2753.53080562716	13886
2755.62969527058	14037.400390625
2757.72800014448	13887.2001953125
2759.82572052625	13914.7998046875
2761.92285669323	13891.400390625
2764.0194089226	13931
2766.11537749147	13880.599609375
2768.21076267686	14013.2001953125
2770.30556475566	13835.400390625
2772.39978400465	13860
2774.49342070054	13879
2776.58647511991	13926.599609375
2778.67894753923	13962.2001953125
2780.77083823487	13948.7998046875
2782.8621474831	13833.599609375
2784.95287556007	13832.599609375
2787.04302274184	13811.7998046875
2789.13258930433	13902.7998046875
2791.22157552338	13862.7998046875
2793.30998167471	13860
2795.39780803392	14010.400390625
2797.4850548765	13933.7998046875
2799.57172247786	13869.599609375
2801.65781111324	13878.7998046875
2803.74332105781	13898.400390625
2805.82825258661	13924.2001953125
2807.91260597457	13945.2001953125
2809.9963814965	13855.400390625
2812.07957942711	13961
2814.16220004096	13914.2001953125
2816.24424361252	13890.2001953125
2818.32571041614	13968
2820.40660072604	13977.7998046875
2822.48691481631	14062.7998046875
2824.56665296098	13997.400390625
2826.64581543388	13989.7998046875
2828.72440250876	14073
2830.80241445925	14028
2832.87985155885	14091
2834.95671408093	14159
2837.03300229875	14155.400390625
2839.10871648544	14198
2841.18385691399	14327.599609375
2843.25842385729	14359.7998046875
2845.33241758808	14201.7998046875
2847.40583837898	14385.2001953125
2849.4786865025	14479.599609375
2851.550962231	14440.2001953125
2853.6226658367	14550.2001953125
2855.69379759173	14533.2001953125
2857.76435776806	14476.7998046875
2859.83434663753	14493.2001953125
2861.90376447184	14524.599609375
2863.97261154259	14437.599609375
2866.0408881212	14486.2001953125
2868.10859447901	14544
2870.17573088717	14648.2001953125
2872.24229761673	14630.400390625
2874.30829493859	14599.400390625
2876.37372312352	14534.400390625
2878.43858244215	14578.599609375
2880.50287316496	14558.7998046875
2882.56659556231	14599
2884.62974990439	14789.2001953125
2886.69233646129	14705.7998046875
2888.75435550293	14843.2001953125
2890.81580729909	14905.400390625
2892.87669211941	14969.400390625
2894.93701023339	15088.7998046875
2896.99676191039	15154.2001953125
2899.05594741961	15502.400390625
2901.1145670301	15689.2001953125
2903.1726210108	15756.400390625
2905.23010963045	16215.400390625
2907.28703315768	16319
2909.34339186096	16565.599609375
2911.39918600861	16790.400390625
2913.45441586879	16587
2915.50908170952	16660.599609375
2917.56318379867	16597.599609375
2919.61672240395	16457.400390625
2921.66969779291	16200.400390625
2923.72211023295	16236
2925.77395999134	16112.400390625
2927.82524733515	16064.599609375
2929.87597253132	15967.2001953125
2931.92613584663	16032.7998046875
2933.97573754769	15922.599609375
2936.02477790097	15856
2938.07325717276	15810.400390625
2940.1211756292	15861.2001953125
2942.16853353626	15821
2944.21533115976	15822.599609375
2946.26156876536	15725.400390625
2948.30724661853	15642.2001953125
2950.3523649846	15570.400390625
2952.39692412872	15503.400390625
2954.44092431587	15510.400390625
2956.48436581089	15420.7998046875
2958.52724887843	15350.7998046875
2960.56957378296	15389
2962.6113407888	15448.2001953125
2964.65255016011	15399.400390625
2966.69320216083	15545.2001953125
2968.73329705479	15551.400390625
2970.77283510559	15480
2972.81181657671	15528.599609375
2974.8502417314	15507.2001953125
2976.88811083279	15505.7998046875
2978.92542414378	15523.2001953125
2980.96218192713	15464
2982.99838444541	15445.599609375
2985.034031961	15411.599609375
2987.06912473612	15378.599609375
2989.1036630328	15313
2991.13764711288	15272.400390625
2993.17107723804	15351.7998046875
2995.20395366974	15342.2001953125
2997.23627666931	15367.2001953125
2999.26804649782	15340.2001953125
3001.29926341624	15450
3003.32992768528	15465.400390625
3005.3600395655	15420.2001953125
3007.38959931726	15457
3009.41860720076	15570.2001953125
3011.44706347595	15616
3013.47496840263	15605.2001953125
3015.50232224041	15590.7998046875
3017.5291252487	15707.2001953125
3019.5553776867	15548
3021.58107981344	15766.400390625
3023.60623188773	15791.2001953125
3025.63083416822	15814.400390625
3027.65488691331	15874.7998046875
3029.67839038125	15873.2001953125
3031.70134483007	15817.599609375
3033.72375051759	15967.599609375
3035.74560770144	16046.400390625
3037.76691663907	15942
3039.78767758768	16067.7998046875
3041.80789080431	16004.599609375
3043.82755654577	16135.599609375
3045.84667506867	15996.7998046875
3047.8652466294	16090
3049.88327148418	16072.400390625
3051.90074988899	16107.400390625
3053.91768209961	16086.599609375
3055.9340683716	16007.7998046875
3057.94990896033	16049.2001953125
3059.96520412095	16298.400390625
3061.97995410838	16226
3063.99415917734	16211.400390625
3066.00781958234	16165.2001953125
3068.02093557766	16112.7998046875
3070.03350741738	16052.7998046875
3072.04553535535	16135.599609375
3074.05701964521	16107
3076.06796054036	16168.400390625
3078.078358294	16141
3080.08821315912	16272.599609375
3082.09752538846	16309.2001953125
3084.10629523454	16038
3086.11452294967	16164
3088.12220878592	16137.400390625
3090.12935299515	16299.400390625
3092.13595582898	16257.400390625
3094.1420175388	16221.7998046875
3096.14753837579	16313
3098.15251859088	16254.2001953125
3100.15695843477	16337.2001953125
3102.16085815793	16288.2001953125
3104.16421801061	16224
3106.16703824282	16336.599609375
3108.16931910432	16473.19921875
3110.17106084464	16342.400390625
3112.17226371308	16503
3114.17292795872	16442.19921875
3116.17305383034	16534
3118.17264157657	16451.400390625
3120.17169144571	16533.599609375
3122.17020368587	16438.400390625
3124.16817854492	16587.599609375
3126.16561627044	16529.400390625
3128.16251710982	16729.599609375
3130.15888131017	16756.400390625
3132.15470911837	16794.400390625
3134.15000078104	16749.19921875
3136.14475654455	16776.400390625
3138.13897665502	16826.19921875
3140.13266135835	16776.19921875
3142.12581090014	16805
3144.11842552577	16882.19921875
3146.11050548036	17016.599609375
3148.10205100875	16942.400390625
3150.09306235557	16998.80078125
3152.08353976515	16984
3154.07348348158	16821.19921875
3156.06289374869	17052.599609375
3158.05177081006	16910.19921875
3160.04011490899	16983.19921875
3162.02792628852	17141
3164.01520519145	16953.19921875
3166.00195186029	17015.80078125
3167.98816653728	17125.80078125
3169.97384946442	17072
3171.95900088344	17037.19921875
3173.94362103577	17034.400390625
3175.92771016259	17069.19921875
3177.91126850484	17206.19921875
3179.89429630312	17122.400390625
3181.87679379782	17076.80078125
3183.85876122903	17219.19921875
3185.84019883657	17248.80078125
3187.82110685997	17248
3189.80148553851	17157
3191.78133511116	17357
3193.76065581664	17373.400390625
3195.73944789337	17351.80078125
3197.7177115795	17265.400390625
3199.6954471129	17316
3201.67265473114	17386.80078125
3203.64933467153	17332.80078125
3205.62548717107	17358
3207.60111246648	17469.599609375
3209.57621079421	17446.599609375
3211.55078239041	17506.19921875
3213.52482749093	17411.19921875
3215.49834633133	17540.80078125
3217.4713391469	17605
3219.44380617262	17592.19921875
3221.41574764317	17722.599609375
3223.38716379296	17596.80078125
3225.35805485607	17652.400390625
3227.32842106631	17694.80078125
3229.29826265718	17824
3231.26757986187	17803.400390625
3233.2363729133	17880.80078125
3235.20464204405	17798.80078125
3237.17238748643	17883.19921875
3239.13960947243	17831.400390625
3241.10630823374	18000.19921875
3243.07248400174	17992.80078125
3245.03813700748	18122.19921875
3247.00326748177	17977
3248.96787565503	17989.80078125
3250.93196175742	18115.80078125
3252.89552601877	18082.80078125
3254.8585686686	18088.599609375
3256.82108993612	18268.19921875
3258.78309005022	18189.19921875
3260.74456923948	18059.400390625
3262.70552773215	18115.19921875
3264.66596575617	18208.19921875
3266.62588353916	18078
3268.58528130843	18183.19921875
3270.54415929094	18017.599609375
3272.50251771336	18179.400390625
3274.46035680201	18245
3276.4176767829	18356.400390625
3278.37447788171	18136.80078125
3280.33076032379	18269.400390625
3282.28652433416	18242
3284.24177013751	18274.19921875
3286.1964979582	18269
3288.15070802027	18298.80078125
3290.10440054741	18253.19921875
3292.05757576298	18277
3294.01023389001	18265.80078125
3295.96237515119	18337
3297.91399976887	18332.19921875
3299.86510796506	18326.80078125
3301.81569996142	18413.599609375
3303.76577597932	18432
3305.7153362397	18335.599609375
3307.66438096324	18335.19921875
3309.61291037024	18371.400390625
3311.56092468064	18394.19921875
3313.50842411404	18253.599609375
3315.45540888971	18417.599609375
3317.40187922656	18353
3319.34783534315	18356.400390625
3321.29327745768	18351
3323.23820578801	18148.19921875
3325.18262055164	18251
3327.1265219657	18305
3329.06991024699	18421.80078125
3331.01278561194	18308.400390625
3332.95514827662	18201.400390625
3334.89699845674	18366.400390625
3336.83833636766	18329.80078125
3338.77916222434	18118.599609375
3340.71947624143	18282.80078125
3342.65927863317	18383
3344.59856961346	18220.400390625
3346.53734939584	18427.19921875
3348.47561819344	18297
3350.41337621906	18265.19921875
3352.35062368513	18300.599609375
3354.28736080368	18291.80078125
3356.22358778637	18314.599609375
3358.15930484452	18335.400390625
3360.09451218904	18386.80078125
3362.02921003047	18295
3363.96339857898	18430
3365.89707804436	18382.599609375
3367.83024863602	18338.599609375
3369.76291056299	18212.400390625
3371.69506403389	18263.599609375
3373.62670925699	18422.599609375
3375.55784644016	18453.400390625
3377.4884757909	18290.599609375
3379.41859751629	18483.400390625
3381.34821182305	18459
3383.27731891749	18425.80078125
3385.20591900555	18533.80078125
3387.13401229276	18562.599609375
3389.06159898426	18591.599609375
3390.9886792848	18560.599609375
3392.91525339872	18670
3394.84132152998	18601
3396.76688388213	18644.400390625
3398.69194065833	18611.19921875
3400.61649206133	18639.80078125
3402.54053829348	18708.19921875
3404.46407955672	18539.19921875
3406.3871160526	18553.599609375
3408.30964798225	18688.599609375
3410.23167554639	18653
3412.15319894535	18707.599609375
3414.07421837904	18638.599609375
3415.99473404695	18665.80078125
3417.91474614817	18650.80078125
3419.83425488136	18742.80078125
3421.75326044479	18759.80078125
3423.67176303631	18664.19921875
3425.58976285332	18684.80078125
3427.50726009282	18655
3429.42425495143	18577.80078125
3431.34074762528	18657.19921875
3433.25673831012	18474.80078125
3435.17222720127	18610.599609375
3437.08721449362	18572.19921875
3439.00170038164	18453.599609375
3440.91568505936	18481
3442.82916872039	18412.400390625
3444.74215155791	18427.80078125
3446.65463376468	18486.80078125
3448.566615533	18422
3450.47809705476	18383
3452.3890785214	18367.80078125
3454.29956012393	18453.19921875
3456.20954205293	18494
3458.11902449853	18355.80078125
3460.02800765041	18296.599609375
3461.93649169784	18342.80078125
3463.84447682962	18253.80078125
3465.75196323412	18277.400390625
3467.65895109925	18239.599609375
3469.56544061249	18316.80078125
3471.47143196086	18238.80078125
3473.37692533093	18196.400390625
3475.28192090884	18217.400390625
3477.18641888026	18297.400390625
3479.09041943039	18227.80078125
3480.99392274402	18217.80078125
3482.89692900545	18233.19921875
3484.79943839853	18143.80078125
3486.70145110666	18246.400390625
3488.60296731277	18162.400390625
3490.50398719933	18048
3492.40451094836	17988.80078125
3494.30453874141	18068
3496.20407075956	18174.80078125
3498.10310718342	18276.400390625
