200.090469251518	2638
202.974751419362	2720
205.858021632263	2704
208.740280737522	2680
211.621529580443	2645
214.501769004371	2661
217.380999850626	2711
220.25922295859	2672
223.136439165646	2734
226.012649307235	2690
228.88785421682	2750
231.762054725918	2760
234.635251664113	2742
237.507445859021	2776
240.378638136346	2828
243.248829319855	2813
246.11802023137	2921
248.986211690826	2863
251.853404516227	2903
254.719599523654	2923
257.584797527335	3006
260.44899933954	3040
263.312205770682	3131
266.174417629303	3284
269.035635722015	3487
271.895860853609	3648
274.755093826978	3833
277.613335443144	3892
280.470586501309	3790
283.326847798766	3537
286.182120131019	3377
289.036404291684	3205
291.889701072574	3103
294.742011263643	2996
297.593335653048	2958
300.443675027094	2996
303.293030170295	2916
306.141401865367	2933
308.988790893174	2875
311.835198032837	2947
314.680624061635	2881
317.525069755113	2903
320.36853588697	2855
323.211023229178	2929
326.052532551923	2872
328.893064623604	2842
331.732620210885	2916
334.57120007867	2890
337.408804990093	2852
340.245435706565	2832
343.081092987733	2931
345.915777591523	2876
348.749490274145	2870
351.582231790049	2955
354.414002891997	2937
357.244804331021	2900
360.074636856443	2938
362.903501215886	2879
365.731398155265	2949
368.558328418814	2999
371.384292749062	2945
374.209291886869	2962
377.033326571407	2967
379.85639754017	2996
382.678505529009	2951
385.499651272065	3099
388.319835501872	3011
391.139058949258	3030
393.957322343453	3023
396.774626412011	3057
399.590971880847	3051
402.406359474258	3079
405.220789914893	3081
408.034263923801	3045
410.8467822204	3050
413.658345522483	3018
416.468954546242	3064
419.278610006277	3063
422.087312615557	3034
424.895063085503	3049
427.701862125901	3058
430.507710444981	3020
433.312608749366	3006
436.116557744146	3125
438.919558132791	3092
441.721610617238	3083
444.522715897856	3134
447.322874673457	3063
450.122087641299	3093
452.920355497092	3172
455.717678935009	3072
458.514058647681	3089
461.309495326219	3094
464.103989660191	3102
466.89754233765	3044
469.690154045114	3096
472.481825467625	3095
475.272557288674	3080
478.062350190281	3135
480.851204852952	3050
483.639121955683	3076
486.426102176007	3031
489.212146189955	3074
491.997254672093	3094
494.781428295471	3124
497.564667731716	3172
500.346973650958	3099
503.128346721878	3151
505.90878761169	3209
508.688296986151	3149
511.46687550957	3226
514.244523844831	3184
517.021242653354	3205
519.797032595132	3265
522.571894328732	3187
525.345828511279	3145
528.11883579849	3247
530.890916844655	3218
533.662072302668	3222
536.432302823985	3235
539.201609058684	3191
541.96999165542	3194
544.737451261473	3191
547.503988522723	3122
550.26960408366	3132
553.034298587394	3170
555.798072675669	3163
558.560926988819	3192
561.322862165849	3151
564.083878844369	3180
566.843977660654	3206
569.603159249604	3220
572.361424244769	3200
575.118773278369	3231
577.87520698124	3235
580.630725982905	3247
583.385330911566	3211
586.139022394076	3222
588.891801055954	3213
591.643667521406	3321
594.394622413318	3240
597.144666353273	3255
599.893799961512	3304
602.64202385701	3240
605.389338657413	3231
608.135744979089	3231
610.881243437092	3237
613.625834645191	3207
616.369519215881	3286
619.112297760374	3242
621.854170888604	3264
624.595139209225	3240
627.335203329614	3258
630.074363855914	3192
632.81262139299	3216
635.549976544436	3226
638.286429912612	3234
641.021982098635	3287
643.756633702364	3205
646.49038532241	3216
649.223237556176	3222
651.955190999808	3217
654.686246248224	3293
657.416403895135	3206
660.145664533011	3345
662.874028753133	3262
665.601497145537	3271
668.328070299071	3308
671.05374880138	3306
673.778533238885	3319
676.502424196839	3294
679.225422259297	3395
681.947528009099	3355
684.668742027927	3374
687.389064896281	3285
690.108497193465	3298
692.827039497621	3389
695.544692385724	3340
698.261456433585	3317
700.977332215847	3386
703.692320305981	3413
706.406421276337	3470
709.11963569808	3575
711.831964141256	3561
714.54340717474	3563
717.253965366304	3440
719.963639282552	3366
722.672429488961	3317
725.380336549904	3344
728.087361028596	3406
730.793503487166	3358
733.498764486594	3362
736.203144586758	3394
738.906644346447	3359
741.60926432331	3348
744.311005073912	3398
747.011867153727	3428
749.711851117121	3402
752.410957517375	3388
755.109186906677	3422
757.806539836132	3424
760.503016855779	3397
763.198618514551	3363
765.893345360346	3436
768.587197939964	3351
771.28017679914	3468
773.972282482566	3410
776.663515533859	3381
779.353876495581	3409
782.043365909241	3444
784.731984315327	3479
787.419732253235	3392
790.106610261366	3413
792.792618877058	3448
795.477758636618	3388
798.162030075313	3525
800.845433727423	3444
803.52797012615	3532
806.209639803714	3528
808.890443291304	3561
811.570381119098	3615
814.249453816265	3458
816.927661910959	3522
819.60500593036	3408
822.281486400603	3427
824.957103846864	3490
827.631858793316	3481
830.305751763135	3493
832.978783278519	3525
835.650953860677	3539
838.322264029848	3570
840.992714305292	3566
843.662305205289	3591
846.331037247157	3496
848.998910947241	3550
851.665926820933	3491
854.332085382674	3518
856.997387145915	3485
859.661832623191	3561
862.325422326066	3509
864.988156765172	3541
867.650036450181	3505
870.311061889846	3517
872.971233591961	3497
875.630552063409	3493
878.28901781013	3417
880.946631337138	3493
883.603393148533	3521
886.259303747484	3480
888.914363636246	3401
891.568573316155	3503
894.22193328767	3476
896.874444050281	3465
899.526106102625	3480
902.176919942416	3505
904.826886066483	3495
907.476004970747	3534
910.124277150255	3515
912.77170309913	3611
915.418283310642	3533
918.064018277175	3540
920.708908490222	3600
923.352954440405	3529
925.996156617486	3602
928.638515510334	3535
931.280031606966	3528
933.920705394521	3554
936.560537359303	3581
939.199527986737	3532
941.837677761392	3540
944.474987167006	3579
947.111456686438	3600
949.747086801734	3577
952.38187799407	3530
955.015830743792	3577
957.648945530418	3600
960.281222832633	3606
962.91266312826	3587
965.543266894336	3641
968.173034607058	3598
970.801966741779	3694
973.43006377307	3654
976.057326174661	3687
978.683754419471	3566
981.309348979623	3613
983.93411032642	3591
986.558038930361	3576
989.181135261144	3557
991.803399787692	3581
994.424832978086	3605
997.045435299653	3610
999.665207218906	3605
1002.2841492016	3671
1004.90226171266	3671
1007.51954521628	3579
1010.13600017584	3605
1012.75162705397	3683
1015.3664263125	3670
1017.9803984125	3601
1020.5935438143	3717
1023.20586297741	3645
1025.81735636063	3685
1028.42802442196	3752
1031.03786761869	3695
1033.64688640732	3731
1036.2550812436	3682
1038.86245258255	3707
1041.46900087844	3751
1044.07472658479	3758
1046.67963015438	3755
1049.28371203927	3670
1051.88697269075	3692
1054.48941255943	3695
1057.09103209513	3736
1059.691831747	3749
1062.29181196343	3779
1064.89097319211	3753
1067.48931587999	3745
1070.08684047333	3732
1072.68354741766	3866
1075.27943715779	3910
1077.87451013787	4335
1080.46876680127	5129
1083.06220759071	6139
1085.65483294822	6406
1088.24664331509	5546
1090.83763913194	4450
1093.42782083869	3917
1096.01718887459	3842
1098.60574367818	3744
1101.19348568732	3799
1103.78041533919	3744
1106.3665330703	3750
1108.95183931646	3789
1111.53633451284	3694
1114.12001909391	3704
1116.70289349349	3721
1119.2849581447	3689
1121.86621348005	3820
1124.44665993134	3796
1127.02629792973	3762
1129.60512790574	3729
1132.18315028919	3720
1134.76036550929	3813
1137.3367739946	3859
1139.912376173	3848
1142.48717247176	3794
1145.06116331748	3838
1147.63434913616	3948
1150.20673035312	3879
1152.77830739307	3891
1155.34908068007	3893
1157.91905063757	3894
1160.48821768838	3897
1163.05658225471	3885
1165.6241447581	3859
1168.19090561951	3812
1170.75686525927	3904
1173.32202409708	3910
1175.88638255206	3888
1178.44994104269	3901
1181.01269998684	3854
1183.57465980182	3877
1186.13582090427	3792
1188.69618371026	3844
1191.25574863529	3808
1193.8145160942	3845
1196.37248650129	3826
1198.92966027025	3758
1201.48603781416	3799
1204.04161954556	3756
1206.59640587635	3795
1209.15039721788	3783
1211.70359398092	3875
1214.25599657564	3831
1216.80760541166	3869
1219.35842089801	3813
1221.90844344314	3835
1224.45767345496	3934
1227.00611134077	3869
1229.55375750736	3889
1232.10061236092	3856
1234.64667630707	3850
1237.1919497509	3877
1239.73643309692	3989
1242.28012674912	3875
1244.82303111089	3821
1247.36514658511	3958
1249.9064735741	3974
1252.44701247964	3952
1254.98676370294	4011
1257.52572764469	3974
1260.06390470506	3940
1262.60129528365	4000
1265.13789977954	4004
1267.67371859128	4014
1270.20875211688	4093
1272.74300075384	4032
1275.2764648991	4016
1277.80914494911	3995
1280.34104129978	4048
1282.87215434652	4052
1285.40248448419	4017
1287.93203210715	4159
1290.46079760927	4082
1292.98878138385	4007
1295.51598382375	4107
1298.04240532127	4111
1300.56804626822	4098
1303.09290705593	4108
1305.6169880752	4172
1308.14028971632	4083
1310.66281236913	4070
1313.18455642292	4213
1315.70552226653	4117
1318.22571028829	4245
1320.74512087603	4152
1323.26375441711	4224
1325.7816112984	4183
1328.29869190629	4208
1330.81499662666	4187
1333.33052584497	4196
1335.84527994613	4260
1338.35925931464	4233
1340.87246433446	4229
1343.38489538916	4231
1345.89655286177	4301
1348.40743713487	4199
1350.91754859059	4213
1353.42688761059	4232
1355.93545457606	4269
1358.44324986772	4282
1360.95027386588	4325
1363.45652695032	4326
1365.96200950042	4280
1368.4667218951	4288
1370.97066451281	4370
1373.47383773156	4234
1375.97624192891	4253
1378.47787748199	4252
1380.97874476746	4302
1383.47884416157	4276
1385.97817604009	4273
1388.4767407784	4174
1390.9745387514	4222
1393.47157033358	4281
1395.96783589898	4269
1398.46333582124	4192
1400.95807047354	4186
1403.45204022864	4183
1405.94524545889	4270
1408.4376865362	4259
1410.92936383205	4225
1413.42027771752	4239
1415.91042856328	4217
1418.39981673955	4263
1420.88844261615	4203
1423.37630656249	4333
1425.86340894757	4296
1428.34975013999	4376
1430.83533050792	4375
1433.32015041912	4473
1435.80421024098	4578
1438.28751034045	4504
1440.77005108411	4485
1443.25183283812	4538
1445.73285596824	4485
1448.21312083984	4533
1450.69262781791	4530
1453.17137726702	4649
1455.64936955137	4574
1458.12660503477	4639
1460.60308408063	4532
1463.07880705197	4560
1465.55377431145	4532
1468.02798622133	4484
1470.50144314348	4508
1472.97414543941	4448
1475.44609347024	4458
1477.91728759673	4484
1480.38772817924	4369
1482.85741557777	4383
1485.32635015194	4447
1487.79453226103	4397
1490.26196226391	4458
1492.72864051911	4419
1495.1945673848	4450
1497.65974321874	4394
1500.1241683784	4369
1502.58784322083	4371
1505.05076810274	4374
1507.51294338049	4378
1509.97436941009	4422
1512.43504654717	4386
1514.89497514704	4448
1517.35415556462	4471
1519.81258815451	4502
1522.27027327095	4383
1524.72721126784	4483
1527.18340249874	4501
1529.63884731684	4506
1532.09354607502	4492
1534.5474991258	4529
1537.00070682136	4534
1539.45316951355	4533
1541.90488755388	4558
1544.35586129353	4529
1546.80609108336	4555
1549.25557727385	4476
1551.70432021519	4489
1554.15232025725	4626
1556.59957774953	4582
1559.04609304125	4734
1561.49186648127	4592
1563.93689841815	4623
1566.38118920011	4594
1568.82473917506	4615
1571.2675486906	4633
1573.70961809399	4712
1576.15094773219	4806
1578.59153795184	4736
1581.03138909928	4731
1583.47050152051	4823
1585.90887556123	4740
1588.34651156686	4766
1590.78340988246	4825
1593.21957085283	4898
1595.65499482245	4910
1598.08968213547	4964
1600.52363313578	4886
1602.95684816694	4824
1605.38932757224	4793
1607.82107169462	4698
1610.25208087677	4724
1612.68235546107	4736
1615.1118957896	4790
1617.54070220415	4737
1619.96877504621	4707
1622.39611465701	4659
1624.82272137746	4690
1627.24859554818	4652
1629.67373750953	4637
1632.09814760155	4651
1634.52182616404	4710
1636.94477353647	4673
1639.36699005806	4596
1641.78847606776	4626
1644.20923190418	4663
1646.62925790573	4662
1649.04855441048	4636
1651.46712175628	4631
1653.88496028066	4662
1656.3020703209	4661
1658.71845221401	4670
1661.13410629671	4678
1663.54903290547	4743
1665.96323237649	4755
1668.37670504571	4722
1670.78945124877	4845
1673.20147132109	4787
1675.61276559779	4798
1678.02333441377	4761
1680.43317810362	4787
1682.84229700171	4850
1685.25069144213	4848
1687.65836175872	4893
1690.06530828507	4892
1692.47153135451	4851
1694.87703130009	4854
1697.28180845467	4873
1699.6858631508	4900
1702.08919572081	4818
1704.49180649676	4952
1706.89369581049	4918
1709.29486399355	4889
1711.69531137731	4957
1714.09503829282	4936
1716.49404507095	5013
1718.89233204229	4919
1721.28989953721	4946
1723.68674788581	4905
1726.08287741798	4984
1728.47828846338	4972
1730.87298135139	4940
1733.26695641119	4962
1735.66021397173	4960
1738.05275436169	4918
1740.44457790954	4982
1742.83568494354	5056
1745.22607579168	5057
1747.61575078175	4969
1750.00471024128	5066
1752.39295449761	5110
1754.78048387783	4983
1757.16729870881	4977
1759.5533993172	5018
1761.93878602942	4947
1764.32345917168	5023
1766.70741906995	5028
1769.09066604999	5064
1771.47320043735	5058
1773.85502255735	5030
1776.2361327351	5021
1778.61653129548	5117
1780.99621856318	5143
1783.37519486264	5122
1785.75346051813	5070
1788.13101585368	5119
1790.5078611931	5107
1792.88399686002	5164
1795.25942317785	5121
1797.63414046977	5102
1800.00814905878	5172
1802.38144926766	5160
1804.75404141898	5183
1807.12592583514	5127
1809.49710283829	5294
1811.86757275039	5243
1814.23733589322	5257
1816.60639258834	5178
1818.97474315712	5207
1821.34238792073	5224
1823.70932720012	5264
1826.07556131608	5236
1828.44109058918	5208
1830.8059153398	5240
1833.17003588812	5231
1835.53345255413	5246
1837.89616565765	5243
1840.25817551827	5323
1842.61948245541	5233
1844.9800867883	5285
1847.33998883598	5308
1849.69918891729	5266
1852.05768735091	5310
1854.4154844553	5362
1856.77258054875	5392
1859.12897594938	5358
1861.4846709751	5297
1863.83966594366	5308
1866.19396117261	5402
1868.54755697932	5316
1870.90045368099	5426
1873.25265159463	5322
1875.60415103708	5383
1877.95495232501	5568
1880.30505577486	5465
1882.65446170299	5469
1885.00317042548	5433
1887.35118225832	5549
1889.69849751726	5583
1892.04511651792	5549
1894.39103957574	5626
1896.73626700596	5534
1899.08079912368	5628
1901.42463624384	5693
1903.76777868116	5659
1906.11022675025	5696
1908.4519807655	5669
1910.79304104117	5730
1913.13340789134	5677
1915.47308162992	5787
1917.81206257067	5745
1920.15035102718	5709
1922.48794731286	5704
1924.82485174096	5746
1927.16106462461	5700
1929.49658627672	5811
1931.83141701008	5846
1934.1655571373	5740
1936.49900697085	5801
1938.83176682301	5793
1941.16383700594	5804
1943.49521783161	5743
1945.82590961186	5801
1948.15591265835	5740
1950.48522728262	5828
1952.81385379602	5912
1955.14179250976	5763
1957.46904373489	5732
1959.79560778233	5708
1962.12148496284	5764
1964.44667558701	5924
1966.77117996529	5942
1969.09499840799	5762
1971.41813122527	5886
1973.74057872714	5961
1976.06234122345	5872
1978.38341902391	5898
1980.7038124381	5959
1983.02352177543	5983
1985.34254734518	6055
1987.66088945649	6100
1989.97854841833	6015
1992.29552453956	6065
1994.61181812887	6017
1996.92742949483	5989
1999.24235894586	5980
2001.55660679023	6083
2003.87017333608	6165
2006.18305889143	6082
2008.49526376413	6087
2010.80678826189	6123
2013.1176326923	6257
2015.42779736282	6251
2017.73728258075	6239
2020.04608865326	6304
2022.3542158874	6260
2024.66166459008	6294
2026.96843506807	6346
2029.274527628	6383
2031.57994257637	6409
2033.88468021957	6250
2036.18874086383	6411
2038.49212481526	6427
2040.79483237983	6364
2043.0968638634	6509
2045.39821957169	6382
2047.69889981028	6530
2049.99890488462	6414
2052.29823510006	6466
2054.59689076181	6436
2056.89487217492	6510
2059.19217964437	6507
2061.48881347497	6444
2063.7847739714	6490
2066.08006143826	6487
2068.37467618	6436
2070.66861850093	6631
2072.96188870527	6413
2075.25448709707	6422
2077.54641398031	6453
2079.83766965881	6603
2082.12825443629	6494
2084.41816861634	6586
2086.70741250242	6559
2088.99598639789	6582
2091.28389060597	6431
2093.57112542978	6582
2095.85769117232	6615
2098.14358813644	6566
2100.42881662491	6596
2102.71337694037	6601
2104.99726938532	6648
2107.28049426219	6587
2109.56305187325	6574
2111.84494252069	6700
2114.12616650655	6681
2116.40672413278	6634
2118.68661570121	6625
2120.96584151355	6758
2123.24440187138	6707
2125.52229707622	6759
2127.79952742943	6726
2130.07609323227	6815
2132.35199478588	6900
2134.62723239132	6931
2136.90180634949	6863
2139.17571696123	6783
2141.44896452723	6868
2143.72154934809	6913
2145.99347172429	6944
2148.26473195623	6956
2150.53533034415	7099
2152.80526718821	6973
2155.07454278848	7003
2157.3431574449	7003
2159.61111145728	7107
2161.87840512538	7111
2164.1450387488	6952
2166.41101262707	7100
2168.67632705959	7115
2170.94098234567	7114
2173.20497878451	7055
2175.46831667519	7113
2177.73099631672	7084
2179.99301800797	7017
2182.25438204772	7030
2184.51508873466	7145
2186.77513836735	6984
2189.03453124427	7105
2191.29326766378	7121
2193.55134792416	7128
2195.80877232355	7093
2198.06554116004	7225
2200.32165473157	7073
2202.577113336	7140
2204.83191727111	7169
2207.08606683453	7196
2209.33956232384	7154
2211.59240403648	7040
2213.84459226982	7130
2216.09612732112	7152
2218.34700948753	7061
2220.59723906612	7136
2222.84681635385	7175
2225.09574164758	7129
2227.34401524408	7100
2229.59163744002	7037
2231.83860853197	7204
2234.08492881639	7232
2236.33059858968	7083
2238.5756181481	7221
2240.81998778784	7107
2243.06370780499	7167
2245.30677849555	7186
2247.54920015539	7190
2249.79097308033	7183
2252.03209756607	7192
2254.27257390822	7266
2256.51240240228	7138
2258.75158334369	7255
2260.99011702777	7196
2263.22800374976	7234
2265.46524380477	7289
2267.70183748786	7217
2269.93778509399	7307
2272.17308691801	7199
2274.40774325467	7319
2276.64175439866	7209
2278.87512064454	7252
2281.10784228682	7310
2283.33991961987	7404
2285.571352938	7228
2287.80214253541	7367
2290.03228870623	7346
2292.26179174449	7345
2294.4906519441	7263
2296.71886959892	7307
2298.9464450027	7254
2301.1733784491	7388
2303.39967023169	7299
2305.62532064395	7473
2307.85032997926	7296
2310.07469853093	7351
2312.29842659216	7227
2314.52151445608	7360
2316.7439624157	7280
2318.96577076397	7330
2321.18693979374	7340
2323.40746979777	7414
2325.62736106873	7341
2327.8466138992	7389
2330.06522858166	7450
2332.28320540853	7350
2334.50054467212	7382
2336.71724666465	7408
2338.93331167827	7446
2341.14874000501	7482
2343.36353193685	7377
2345.57768776564	7308
2347.79120778319	7443
2350.00409228117	7392
2352.21634155121	7282
2354.42795588482	7378
2356.63893557342	7314
2358.84928090838	7295
2361.05899218094	7249
2363.26806968228	7369
2365.47651370347	7386
2367.68432453552	7332
2369.89150246933	7382
2372.09804779571	7346
2374.30396080541	7294
2376.50924178907	7281
2378.71389103725	7394
2380.91790884042	7270
2383.12129548897	7199
2385.3240512732	7296
2387.52617648332	7272
2389.72767140946	7251
2391.92853634165	7343
2394.12877156985	7353
2396.32837738392	7322
2398.52735407365	7363
2400.72570192873	7279
2402.92342123875	7190
2405.12051229325	7201
2407.31697538167	7280
2409.51281079333	7341
2411.70801881751	7143
2413.90259974339	7271
2416.09655386004	7350
2418.28988145648	7216
2420.48258282162	7215
2422.6746582443	7315
2424.86610801325	7345
2427.05693241713	7215
2429.24713174452	7231
2431.43670628389	7281
2433.62565632365	7238
2435.81398215212	7213
2438.00168405752	7198
2440.18876232799	7281
2442.37521725158	7273
2444.56104911628	7251
2446.74625820994	7237
2448.93084482038	7138
2451.1148092353	7314
2453.29815174233	7289
2455.480872629	7252
2457.66297218275	7202
2459.84445069097	7133
2462.02530844092	7197
2464.2055457198	7141
2466.38516281471	7115
2468.56416001267	7129
2470.74253760061	7114
2472.92029586537	7199
2475.09743509372	7164
2477.27395557232	7178
2479.44985758777	7169
2481.62514142655	7232
2483.79980737508	7128
2485.97385571969	7132
2488.14728674661	7195
2490.32010074198	7230
2492.49229799188	7223
2494.66387878228	7195
2496.83484339905	7275
2499.00519212802	7108
2501.17492525488	7127
2503.34404306528	7301
2505.51254584473	7145
2507.6804338787	7221
2509.84770745254	7175
2512.01436685153	7235
2514.18041236085	7285
2516.34584426561	7296
2518.51066285081	7276
2520.67486840138	7368
2522.83846120214	7380
2525.00144153784	7267
2527.16380969314	7195
2529.32556595261	7304
2531.48671060072	7349
2533.64724392186	7187
2535.80716620033	7309
2537.96647772034	7210
2540.12517876602	7159
2542.2832696214	7331
2544.44075057041	7312
2546.59762189691	7378
2548.75388388466	7237
2550.90953681735	7277
2553.06458097853	7367
2555.21901665172	7338
2557.37284412031	7368
2559.5260636676	7231
2561.67867557684	7283
2563.83068013113	7217
2565.98207761351	7278
2568.13286830695	7230
2570.28305249429	7155
2572.43263045829	7299
2574.58160248163	7305
2576.72996884689	7232
2578.87772983655	7232
2581.02488573303	7187
2583.1714368186	7211
2585.31738337549	7163
2587.46272568582	7130
2589.60746403161	7061
2591.75159869479	7157
2593.89512995722	7093
2596.03805810061	7263
2598.18038340665	7104
2600.32210615686	7081
2602.46322663274	7303
2604.60374511563	7119
2606.74366188683	7173
2608.88297722751	7210
2611.02169141875	7161
2613.15980474156	7282
2615.29731747681	7252
2617.43422990532	7205
2619.57054230779	7186
2621.70625496483	7273
2623.84136815694	7184
2625.97588216456	7211
2628.10979726799	7162
2630.24311374746	7256
2632.3758318831	7195
2634.50795195493	7202
2636.6394742429	7326
2638.77039902682	7227
2640.90072658645	7242
2643.0304572014	7309
2645.15959115123	7266
2647.28812871538	7340
2649.41607017319	7268
2651.5434158039	7245
2653.67016588665	7331
2655.79632070049	7308
2657.92188052436	7251
2660.04684563711	7322
2662.17121631749	7412
2664.29499284413	7348
2666.41817549558	7235
2668.54076455027	7291
2670.66276028656	7231
2672.78416298267	7325
2674.90497291675	7184
2677.02519036682	7288
2679.14481561082	7358
2681.26384892658	7446
2683.38229059182	7290
2685.50014088417	7363
2687.61740008114	7341
2689.73406846017	7318
2691.85014629854	7316
2693.96563387347	7316
2696.08053146206	7410
2698.1948393413	7277
2700.3085577881	7305
2702.42168707924	7373
2704.53422749139	7307
2706.64617930112	7457
2708.75754278492	7313
2710.86831821913	7312
2712.97850588002	7373
2715.08810604372	7324
2717.19711898628	7385
2719.30554498363	7304
2721.41338431158	7493
2723.52063724586	7275
2725.62730406206	7378
2727.73338503569	7469
2729.83888044213	7357
2731.94379055664	7348
2734.04811565441	7339
2736.15185601048	7472
2738.25501189979	7370
2740.35758359718	7339
2742.45957137738	7431
2744.56097551499	7359
2746.6617962845	7410
2748.7620339603	7429
2750.86168881666	7330
2752.96076112774	7356
2755.05925116758	7517
2757.15715921012	7425
2759.25448552917	7445
2761.35123039843	7301
2763.44739409148	7545
2765.5429768818	7451
2767.63797904275	7474
2769.73240084756	7433
2771.82624256934	7353
2773.91950448113	7368
2776.01218685579	7504
2778.10428996609	7379
2780.19581408469	7409
2782.28675948414	7484
2784.37712643683	7569
2786.46691521507	7471
2788.55612609104	7424
2790.64475933678	7406
2792.73281522425	7370
2794.82029402525	7511
2796.90719601149	7483
2798.99352145453	7414
2801.07927062583	7397
2803.16444379672	7427
2805.24904123841	7451
2807.33306322197	7480
2809.41651001838	7531
2811.49938189847	7501
2813.58167913296	7497
2815.66340199243	7575
2817.74455074734	7456
2819.82512566805	7500
2821.90512702475	7682
2823.98455508754	7536
2826.06341012637	7555
2828.14169241109	7681
2830.2194022114	7757
2832.29653979686	7825
2834.37310543694	7976
2836.44909940096	8108
2838.5245219581	8140
2840.59937337744	8266
2842.67365392791	8299
2844.74736387829	8406
2846.82050349727	8379
2848.8930730534	8620
2850.96507281506	8596
2853.03650305056	8660
2855.10736402802	8584
2857.17765601545	8492
2859.24737928074	8472
2861.31653409164	8569
2863.38512071574	8632
2865.45313942054	8838
2867.52059047335	8791
2869.58747414139	8809
2871.65379069173	8921
2873.7195403913	8776
2875.78472350688	8952
2877.84934030515	9052
2879.91339105262	9130
2881.97687601567	9109
2884.03979546053	9106
2886.10214965332	9135
2888.16393886	9120
2890.22516334639	9049
2892.28582337816	9060
2894.34591922087	8905
2896.40545113992	8874
2898.46441940054	8974
2900.52282426787	9106
2902.58066600687	9034
2904.63794488237	9188
2906.69466115906	8961
2908.75081510147	8927
2910.806406974	8857
2912.8614370409	8898
2914.91590556626	8928
2916.96981281404	8927
2919.02315904807	8822
2921.07594453199	8995
2923.12816952932	8820
2925.17983430343	8891
2927.23093911753	8884
2929.28148423469	8749
2931.33146991782	8658
2933.3808964297	8404
2935.42976403294	8516
2937.47807299	8393
2939.5258235632	8221
2941.57301601469	8297
2943.61965060648	8152
2945.66572760042	8277
2947.71124725823	8341
2949.75620984143	8291
2951.80061561143	8316
2953.84446482945	8425
2955.88775775656	8398
2957.9304946537	8281
2959.97267578162	8463
2962.01430140095	8393
2964.05537177211	8284
2966.09588715541	8284
2968.13584781097	8149
2970.17525399875	8122
2972.21410597859	8012
2974.25240401011	7960
2976.29014835283	7989
2978.32733926604	7845
2980.36397700892	7885
2982.40006184049	7977
2984.43559401955	7942
2986.4705738048	7830
2988.50500145473	7837
2990.53887722771	7886
2992.57220138189	7890
2994.6049741753	7803
2996.63719586576	7975
2998.66886671097	7841
3000.69998696843	7958
3002.73055689549	8006
3004.7605767493	8017
3006.79004678688	7869
3008.81896726505	7936
3010.84733844048	8017
3012.87516056966	8035
3014.9024339089	7949
3016.92915871433	8012
3018.95533524196	7973
3020.98096374756	8087
3023.00604448675	8055
3025.030577715	8064
3027.05456368757	7975
3029.07800265956	8073
3031.10089488589	8006
3033.12324062131	8146
3035.14504012038	8116
3037.16629363749	8095
3039.18700142685	8169
3041.20716374249	8090
3043.22678083826	7996
3045.24585296782	8043
3047.26438038468	8049
3049.28236334212	8054
3051.29980209329	8194
3053.31669689111	8042
3055.33304798835	8104
3057.34885563757	8154
3059.36412009117	8137
3061.37884160134	8092
3063.39302042011	8119
3065.40665679931	8079
3067.41975099058	8038
3069.43230324538	8173
3071.44431381495	8107
3073.45578295041	8168
3075.46671090261	8200
3077.47709792227	8109
3079.48694425989	8060
3081.49625016578	8160
3083.50501589008	8122
3085.5132416827	8138
3087.5209277934	8078
3089.52807447169	8086
3091.53468196695	8163
3093.54075052832	8157
3095.54628040476	8200
3097.55127184503	8143
3099.55572509769	8071
3101.55964041111	8118
3103.56301803346	8141
3105.5658582127	8219
3107.56816119661	8116
3109.56992723275	8051
3111.57115656849	8161
3113.571849451	8177
3115.57200612724	8155
3117.57162684397	8140
3119.57071184775	8166
3121.56926138493	8186
3123.56727570166	8261
3125.56475504389	8162
3127.56169965735	8204
3129.55810978757	8413
3131.55398567987	8286
3133.54932757937	8269
3135.54413573099	8303
3137.53841037939	8200
3139.53215176909	8323
3141.52536014435	8305
3143.51803574924	8183
3145.51017882762	8347
3147.50178962311	8366
3149.49286837916	8338
3151.48341533897	8379
3153.47343074553	8334
3155.46291484164	8302
3157.45186786985	8334
3159.44029007252	8377
3161.42818169179	8204
3163.41554296955	8330
3165.40237414753	8387
3167.38867546718	8330
3169.37444716975	8340
3171.35968949631	8354
3173.34440268764	8293
3175.32858698436	8393
3177.31224262682	8324
3179.29536985517	8336
3181.27796890934	8431
3183.26004002902	8437
3185.24158345368	8270
3187.22259942256	8424
3189.2030881747	8387
3191.18304994886	8374
3193.16248498363	8492
3195.14139351733	8429
3197.11977578807	8397
3199.09763203371	8374
3201.07496249191	8434
3203.05176740007	8409
3205.02804699537	8389
3207.00380151475	8407
3208.97903119493	8443
3210.95373627238	8474
3212.92791698335	8400
3214.90157356383	8404
3216.8747062496	8594
3218.84731527619	8476
3220.81940087889	8522
3222.79096329275	8621
3224.76200275259	8463
3226.73251949298	8566
3228.70251374825	8480
3230.67198575251	8723
3232.64093573959	8579
3234.6093639431	8731
3236.57727059641	8702
3238.54465593261	8663
3240.51152018461	8729
3242.47786358502	8540
3244.44368636621	8803
3246.40898876031	8662
3248.37377099923	8601
3250.33803331458	8736
3252.30177593775	8715
3254.26499909987	8796
3256.22770303184	8839
3258.18988796427	8751
3260.15155412755	8700
3262.1127017518	8742
3264.0733310669	8846
3266.03344230246	8759
3267.99303568784	8880
3269.95211145215	8841
3271.91066982422	8850
3273.86871103267	8830
3275.82623530581	8932
3277.7832428717	8941
3279.73973395818	8864
3281.69570879278	8913
3283.6511676028	8966
3285.60611061527	8907
3287.56053805694	8940
3289.51445015432	8973
3291.46784713364	8862
3293.42072922088	8973
3295.37309664173	8889
3297.32494962163	8870
3299.27628838575	8894
3301.227113159	8949
3303.17742416601	8958
3305.12722163114	8913
3307.07650577848	8846
3309.02527683185	8968
3310.9735350148	8949
3312.9212805506	9043
3314.86851366225	9114
3316.81523457249	8939
3318.76144350377	8944
3320.70714067825	9065
3322.65232631783	8884
3324.59700064415	8857
3326.54116387854	8984
3328.48481624207	9019
3330.42795795551	8909
3332.37058923938	8986
3334.31271031389	9033
3336.25432139898	8906
3338.19542271432	8839
3340.13601447927	9009
3342.07609691292	8959
3344.01567023407	8984
3345.95473466124	9064
3347.89329041266	8862
3349.83133770627	9014
3351.76887675973	8964
3353.70590779039	8958
3355.64243101534	8977
3357.57844665135	9095
3359.51395491492	8946
3361.44895602224	8772
3363.38345018922	8989
3365.31743763148	8936
3367.25091856432	9071
3369.18389320278	8891
3371.11636176156	9045
3373.0483244551	9073
3374.97978149754	9004
3376.91073310269	9050
3378.84117948409	9112
3380.77112085498	9104
3382.70055742826	9188
3384.62948941659	9081
3386.55791703227	9057
3388.48584048733	9065
3390.41325999348	9115
3392.34017576214	9195
3394.2665880044	9140
3396.19249693107	9055
3398.11790275263	9056
3400.04280567926	9182
3401.96720592084	9229
3403.89110368692	9205
3405.81449918675	9178
3407.73739262928	9218
3409.65978422311	9346
3411.58167417658	9195
3413.50306269768	9186
3415.42394999408	9355
3417.34433627316	9302
3419.26422174195	9334
3421.18360660721	9286
3423.10249107532	9229
3425.02087535239	9186
3426.93875964421	9345
3428.8561441562	9309
3430.77302909353	9071
3432.68941466097	9318
3434.60530106301	9209
3436.52068850383	9335
3438.43557718726	9360
3440.34996731681	9237
3442.26385909565	9138
3444.17725272664	9111
3446.09014841231	9187
3448.00254635486	9133
3449.91444675614	9269
3451.82584981771	9222
3453.73675574076	9142
3455.64716472616	9171
3457.55707697445	9095
3459.46649268584	9160
3461.37541206018	9229
3463.28383529703	9232
3465.19176259555	9218
3467.09919415464	9205
3469.00613017278	9165
3470.91257084817	9085
3472.81851637863	9078
3474.72396696168	9094
3476.62892279446	9153
3478.53338407379	9181
3480.43735099614	9054
3482.34082375764	9141
3484.24380255404	9108
3486.1462875808	9205
3488.048279033	9141
3489.94977710537	9075
3491.85078199231	9207
3493.75129388783	9166
3495.65131298566	9209
3497.5508394791	9108
3499.44987356115	9223