200.090469251518	732.75
202.974751419362	740
205.858021632263	737
208.740280737522	731.75
211.621529580443	735.75
214.501769004371	731.75
217.380999850626	730.25
220.25922295859	734.25
223.136439165646	733.5
226.012649307235	744.25
228.88785421682	755
231.762054725918	764
234.635251664113	757.25
237.507445859021	741.75
240.378638136346	749.75
243.248829319855	737.75
246.11802023137	742
248.986211690826	752.25
251.853404516227	764.75
254.719599523654	755.5
257.584797527335	765.25
260.44899933954	751
263.312205770682	749.5
266.174417629303	751.75
269.035635722015	744.75
271.895860853609	752.75
274.755093826978	744.25
277.613335443144	741.5
280.470586501309	741.5
283.326847798766	749.75
286.182120131019	741.5
289.036404291684	746
291.889701072574	742
294.742011263643	743.25
297.593335653048	746.75
300.443675027094	747
303.293030170295	743.5
306.141401865367	754.5
308.988790893174	742.5
311.835198032837	743.5
314.680624061635	745
317.525069755113	747
320.36853588697	748.5
323.211023229178	745.75
326.052532551923	753
328.893064623604	744.25
331.732620210885	744.5
334.57120007867	750.75
337.408804990093	747
340.245435706565	756
343.081092987733	759.75
345.915777591523	758.5
348.749490274145	752
351.582231790049	762.25
354.414002891997	758.5
357.244804331021	753
360.074636856443	761.75
362.903501215886	765.25
365.731398155265	759.5
368.558328418814	767.5
371.384292749062	758
374.209291886869	757.75
377.033326571407	761.25
379.85639754017	760.25
382.678505529009	767.5
385.499651272065	757
388.319835501872	759.5
391.139058949258	764.5
393.957322343453	754
396.774626412011	762.25
399.590971880847	772.5
402.406359474258	762
405.220789914893	767.5
408.034263923801	764.5
410.8467822204	770
413.658345522483	776.5
416.468954546242	777.5
419.278610006277	770.5
422.087312615557	777
424.895063085503	773.75
427.701862125901	785
430.507710444981	780.25
433.312608749366	781
436.116557744146	788.75
438.919558132791	778.5
441.721610617238	784.75
444.522715897856	788.5
447.322874673457	788.25
450.122087641299	781.25
452.920355497092	780.75
455.717678935009	778.25
458.514058647681	773
461.309495326219	772.5
464.103989660191	770
466.89754233765	784
469.690154045114	772.25
472.481825467625	776.5
475.272557288674	776.75
478.062350190281	777
480.851204852952	784.5
483.639121955683	780.75
486.426102176007	781.75
489.212146189955	772.25
491.997254672093	782.75
494.781428295471	781.75
497.564667731716	790
500.346973650958	780.75
503.128346721878	776.75
505.90878761169	777.75
508.688296986151	772.25
511.46687550957	777
514.244523844831	779.75
517.021242653354	782.25
519.797032595132	780.75
522.571894328732	775.25
525.345828511279	785.75
528.11883579849	782.25
530.890916844655	785.25
533.662072302668	794.5
536.432302823985	778.25
539.201609058684	781.25
541.96999165542	780.5
544.737451261473	780.25
547.503988522723	777.75
550.26960408366	777
553.034298587394	783
555.798072675669	779
558.560926988819	783.5
561.322862165849	794
564.083878844369	790.75
566.843977660654	794.25
569.603159249604	777.5
572.361424244769	796.25
575.118773278369	795.25
577.87520698124	807.5
580.630725982905	809.5
583.385330911566	816.75
586.139022394076	826.25
588.891801055954	847.5
591.643667521406	855.75
594.394622413318	828.25
597.144666353273	829.25
599.893799961512	813.75
602.64202385701	820
605.389338657413	810.5
608.135744979089	803.25
610.881243437092	809.75
613.625834645191	804
616.369519215881	803.25
619.112297760374	795.75
621.854170888604	800
624.595139209225	805.75
627.335203329614	791.75
630.074363855914	795.25
632.81262139299	800
635.549976544436	795
638.286429912612	794.5
641.021982098635	792
643.756633702364	793.5
646.49038532241	798.75
649.223237556176	790.75
651.955190999808	803.25
654.686246248224	793
657.416403895135	800.25
660.145664533011	799.5
662.874028753133	798.75
665.601497145537	806
668.328070299071	798.25
671.05374880138	813
673.778533238885	835.75
676.502424196839	865.75
679.225422259297	891.25
681.947528009099	903.75
684.668742027927	871
687.389064896281	854.25
690.108497193465	836
692.827039497621	828.75
695.544692385724	835.5
698.261456433585	825.5
700.977332215847	817.25
703.692320305981	820.75
706.406421276337	806.75
709.11963569808	811.5
711.831964141256	810
714.54340717474	813
717.253965366304	808
719.963639282552	805.25
722.672429488961	812.25
725.380336549904	805.5
728.087361028596	813.75
730.793503487166	815.25
733.498764486594	801.75
736.203144586758	805.25
738.906644346447	823.25
741.60926432331	830
744.311005073912	844.5
747.011867153727	852.5
749.711851117121	840.75
752.410957517375	827.25
755.109186906677	808
757.806539836132	820.25
760.503016855779	826
763.198618514551	818.25
765.893345360346	825.25
768.587197939964	818.5
771.28017679914	825.5
773.972282482566	824.75
776.663515533859	818.75
779.353876495581	821.25
782.043365909241	817.5
784.731984315327	824.25
787.419732253235	813.25
790.106610261366	819.75
792.792618877058	811.5
795.477758636618	816.25
798.162030075313	818.5
800.845433727423	818.25
803.52797012615	816
806.209639803714	811
808.890443291304	818.25
811.570381119098	811
814.249453816265	827.25
816.927661910959	821.75
819.60500593036	821.75
822.281486400603	823.5
824.957103846864	820
827.631858793316	841
830.305751763135	845.5
832.978783278519	845
835.650953860677	842
838.322264029848	838.75
840.992714305292	849.5
843.662305205289	853.75
846.331037247157	829.5
848.998910947241	860.5
851.665926820933	845.25
854.332085382674	837.25
856.997387145915	836.5
859.661832623191	841.75
862.325422326066	840
864.988156765172	839.25
867.650036450181	851
870.311061889846	846.5
872.971233591961	832.5
875.630552063409	836.5
878.28901781013	840.5
880.946631337138	830.75
883.603393148533	840.25
886.259303747484	830.25
888.914363636246	836
891.568573316155	830.25
894.22193328767	834
896.874444050281	844.25
899.526106102625	845
902.176919942416	833.75
904.826886066483	839.5
907.476004970747	835.25
910.124277150255	840.75
912.77170309913	839.75
915.418283310642	849.75
918.064018277175	838.25
920.708908490222	845
923.352954440405	845.25
925.996156617486	841.75
928.638515510334	826.75
931.280031606966	837
933.920705394521	836.25
936.560537359303	842.75
939.199527986737	844.75
941.837677761392	840.5
944.474987167006	841
947.111456686438	861.25
949.747086801734	861.25
952.38187799407	861.5
955.015830743792	871.25
957.648945530418	862
960.281222832633	850
962.91266312826	846
965.543266894336	852.25
968.173034607058	850.75
970.801966741779	850.25
973.43006377307	849.75
976.057326174661	850.75
978.683754419471	859.25
981.309348979623	849.25
983.93411032642	855.25
986.558038930361	848
989.181135261144	854
991.803399787692	855.75
994.424832978086	859.75
997.045435299653	845.25
999.665207218906	854.5
1002.2841492016	865.25
1004.90226171266	866
1007.51954521628	867
1010.13600017584	857.75
1012.75162705397	869.75
1015.3664263125	851.25
1017.9803984125	864.75
1020.5935438143	861.5
1023.20586297741	856.5
1025.81735636063	868.25
1028.42802442196	872.25
1031.03786761869	874.75
1033.64688640732	877.5
1036.2550812436	887
1038.86245258255	893
1041.46900087844	867
1044.07472658479	873.5
1046.67963015438	885.75
1049.28371203927	885
1051.88697269075	873
1054.48941255943	881
1057.09103209513	911
1059.691831747	910.25
1062.29181196343	914
1064.89097319211	897.25
1067.48931587999	893
1070.08684047333	888
1072.68354741766	882.5
1075.27943715779	891
1077.87451013787	883.5
1080.46876680127	886.25
1083.06220759071	884.25
1085.65483294822	880.25
1088.24664331509	881.5
1090.83763913194	890.25
1093.42782083869	883.5
1096.01718887459	881.5
1098.60574367818	876
1101.19348568732	870.75
1103.78041533919	888
1106.3665330703	883
1108.95183931646	882
1111.53633451284	892.25
1114.12001909391	892.75
1116.70289349349	886
1119.2849581447	894.25
1121.86621348005	904.75
1124.44665993134	920
1127.02629792973	924
1129.60512790574	908.5
1132.18315028919	914.25
1134.76036550929	922.75
1137.3367739946	932
1139.912376173	961.75
1142.48717247176	967.25
1145.06116331748	946.25
1147.63434913616	932.25
1150.20673035312	910
1152.77830739307	903.5
1155.34908068007	911
1157.91905063757	900.75
1160.48821768838	904
1163.05658225471	897.75
1165.6241447581	896.75
1168.19090561951	900.5
1170.75686525927	902.25
1173.32202409708	888.5
1175.88638255206	899
1178.44994104269	898
1181.01269998684	890.5
1183.57465980182	902
1186.13582090427	888.75
1188.69618371026	895.75
1191.25574863529	889.5
1193.8145160942	891.25
1196.37248650129	895.25
1198.92966027025	899.25
1201.48603781416	901
1204.04161954556	900.75
1206.59640587635	902.25
1209.15039721788	901.5
1211.70359398092	912.25
1214.25599657564	889.5
1216.80760541166	886
1219.35842089801	909.5
1221.90844344314	892
1224.45767345496	883.5
1227.00611134077	889
1229.55375750736	890
1232.10061236092	897.25
1234.64667630707	904
1237.1919497509	887.5
1239.73643309692	898
1242.28012674912	897.25
1244.82303111089	903.25
1247.36514658511	915.5
1249.9064735741	902
1252.44701247964	905
1254.98676370294	908.25
1257.52572764469	904.25
1260.06390470506	911.5
1262.60129528365	922.75
1265.13789977954	911.75
1267.67371859128	902.25
1270.20875211688	911
1272.74300075384	920.75
1275.2764648991	919.75
1277.80914494911	920.25
1280.34104129978	913.25
1282.87215434652	932.5
1285.40248448419	920.25
1287.93203210715	960.75
1290.46079760927	969.5
1292.98878138385	992.75
1295.51598382375	994.5
1298.04240532127	989.25
1300.56804626822	977.5
1303.09290705593	978
1305.6169880752	961
1308.14028971632	961.25
1310.66281236913	955
1313.18455642292	952.5
1315.70552226653	955.75
1318.22571028829	961
1320.74512087603	973.75
1323.26375441711	970.25
1325.7816112984	999.75
1328.29869190629	987.5
1330.81499662666	1016.25
1333.33052584497	1047.25
1335.84527994613	1116.25
1338.35925931464	1151.5
1340.87246433446	1170.75
1343.38489538916	1128.5
1345.89655286177	1063
1348.40743713487	1016.75
1350.91754859059	977.75
1353.42688761059	976.75
1355.93545457606	982.5
1358.44324986772	970.5
1360.95027386588	979.25
1363.45652695032	988
1365.96200950042	979.5
1368.4667218951	963
1370.97066451281	971.75
1373.47383773156	970
1375.97624192891	972.5
1378.47787748199	963
1380.97874476746	980.5
1383.47884416157	977.25
1385.97817604009	952
1388.4767407784	948.75
1390.9745387514	970.25
1393.47157033358	965.75
1395.96783589898	973
1398.46333582124	971.25
1400.95807047354	967.5
1403.45204022864	981.5
1405.94524545889	974
1408.4376865362	977.75
1410.92936383205	982.75
1413.42027771752	992
1415.91042856328	979.5
1418.39981673955	996
1420.88844261615	1008.75
1423.37630656249	1013.75
1425.86340894757	1019.25
1428.34975013999	1044.5
1430.83533050792	1064.75
1433.32015041912	1078
1435.80421024098	1076
1438.28751034045	1094.75
1440.77005108411	1110.75
1443.25183283812	1118
1445.73285596824	1147.25
1448.21312083984	1196
1450.69262781791	1199.75
1453.17137726702	1203.5
1455.64936955137	1163
1458.12660503477	1124
1460.60308408063	1100
1463.07880705197	1078
1465.55377431145	1075.75
1468.02798622133	1088.5
1470.50144314348	1076.5
1472.97414543941	1063.5
1475.44609347024	1072.75
1477.91728759673	1067.75
1480.38772817924	1073.5
1482.85741557777	1071.5
1485.32635015194	1060.25
1487.79453226103	1051
1490.26196226391	1062.5
1492.72864051911	1061.5
1495.1945673848	1054.75
1497.65974321874	1057.25
1500.1241683784	1044.5
1502.58784322083	1052.75
1505.05076810274	1069.5
1507.51294338049	1083.5
1509.97436941009	1074
1512.43504654717	1078.75
1514.89497514704	1112
1517.35415556462	1150.5
1519.81258815451	1222.75
1522.27027327095	1352.75
1524.72721126784	1522
1527.18340249874	1603
1529.63884731684	1547.75
1532.09354607502	1415.75
1534.5474991258	1289
1537.00070682136	1195.5
1539.45316951355	1152
1541.90488755388	1145.25
1544.35586129353	1131.5
1546.80609108336	1103.5
1549.25557727385	1121.25
1551.70432021519	1120
1554.15232025725	1118.75
1556.59957774953	1110
1559.04609304125	1132.75
1561.49186648127	1116
1563.93689841815	1135.5
1566.38118920011	1113.25
1568.82473917506	1120.5
1571.2675486906	1128.75
1573.70961809399	1137.5
1576.15094773219	1139
1578.59153795184	1140.75
1581.03138909928	1150.5
1583.47050152051	1144.25
1585.90887556123	1161.75
1588.34651156686	1178.75
1590.78340988246	1161.75
1593.21957085283	1165.75
1595.65499482245	1168.75
1598.08968213547	1165
1600.52363313578	1163.75
1602.95684816694	1166.5
1605.38932757224	1173
1607.82107169462	1175.25
1610.25208087677	1170.5
1612.68235546107	1160.25
1615.1118957896	1159.5
1617.54070220415	1164.75
1619.96877504621	1160.25
1622.39611465701	1162.25
1624.82272137746	1177.25
1627.24859554818	1158.75
1629.67373750953	1170.25
1632.09814760155	1174.25
1634.52182616404	1166.25
1636.94477353647	1179
1639.36699005806	1169.25
1641.78847606776	1186.75
1644.20923190418	1187.25
1646.62925790573	1198.25
1649.04855441048	1186.75
1651.46712175628	1181
1653.88496028066	1206
1656.3020703209	1217
1658.71845221401	1209
1661.13410629671	1214.75
1663.54903290547	1214
1665.96323237649	1221
1668.37670504571	1228.25
1670.78945124877	1223.5
1673.20147132109	1235.75
1675.61276559779	1245.75
1678.02333441377	1244.5
1680.43317810362	1254
1682.84229700171	1253.75
1685.25069144213	1248.5
1687.65836175872	1256.25
1690.06530828507	1278.75
1692.47153135451	1291.25
1694.87703130009	1280
1697.28180845467	1292
1699.6858631508	1287.5
1702.08919572081	1300.5
1704.49180649676	1302
1706.89369581049	1294.75
1709.29486399355	1287.5
1711.69531137731	1288.5
1714.09503829282	1300.25
1716.49404507095	1310
1718.89233204229	1314.5
1721.28989953721	1305.25
1723.68674788581	1318.75
1726.08287741798	1317.75
1728.47828846338	1315.5
1730.87298135139	1340.5
1733.26695641119	1335.5
1735.66021397173	1339.25
1738.05275436169	1335
1740.44457790954	1351.5
1742.83568494354	1348.5
1745.22607579168	1347.75
1747.61575078175	1345.75
1750.00471024128	1351
1752.39295449761	1377.25
1754.78048387783	1367.75
1757.16729870881	1388.25
1759.5533993172	1371.25
1761.93878602942	1383.5
1764.32345917168	1366
1766.70741906995	1407
1769.09066604999	1399.75
1771.47320043735	1410.75
1773.85502255735	1419.75
1776.2361327351	1397.25
1778.61653129548	1416.25
1780.99621856318	1408.25
1783.37519486264	1425.75
1785.75346051813	1437.5
1788.13101585368	1445.25
1790.5078611931	1447.75
1792.88399686002	1440.25
1795.25942317785	1464.75
1797.63414046977	1460
1800.00814905878	1480
1802.38144926766	1466
1804.75404141898	1470.25
1807.12592583514	1502.25
1809.49710283829	1505
1811.86757275039	1485
1814.23733589322	1485.5
1816.60639258834	1507.75
1818.97474315712	1508.75
1821.34238792073	1505.25
1823.70932720012	1499.5
1826.07556131608	1505.75
1828.44109058918	1525.5
1830.8059153398	1510
1833.17003588812	1507.75
1835.53345255413	1529
1837.89616565765	1525.25
1840.25817551827	1526.75
1842.61948245541	1526
1844.9800867883	1534.25
1847.33998883598	1544
1849.69918891729	1542
1852.05768735091	1543.75
1854.4154844553	1557.25
1856.77258054875	1536
1859.12897594938	1578.5
1861.4846709751	1583.5
1863.83966594366	1575.75
1866.19396117261	1563.5
1868.54755697932	1582
1870.90045368099	1587.75
1873.25265159463	1580
1875.60415103708	1597.75
1877.95495232501	1635.25
1880.30505577486	1612.25
1882.65446170299	1627
1885.00317042548	1643.5
1887.35118225832	1628.25
1889.69849751726	1656.5
1892.04511651792	1636.5
1894.39103957574	1670
1896.73626700596	1670.75
1899.08079912368	1670.25
1901.42463624384	1660.75
1903.76777868116	1690.75
1906.11022675025	1695.75
1908.4519807655	1651.5
1910.79304104117	1676.75
1913.13340789134	1686.5
1915.47308162992	1678.5
1917.81206257067	1699
1920.15035102718	1701.25
1922.48794731286	1711
1924.82485174096	1701.75
1927.16106462461	1725.5
1929.49658627672	1718
1931.83141701008	1714.75
1934.1655571373	1730.75
1936.49900697085	1705
1938.83176682301	1708.25
1941.16383700594	1729.25
1943.49521783161	1723.5
1945.82590961186	1746.75
1948.15591265835	1737.25
1950.48522728262	1727
1952.81385379602	1753.5
1955.14179250976	1754
1957.46904373489	1744.25
1959.79560778233	1761.5
1962.12148496284	1744.75
1964.44667558701	1749
1966.77117996529	1778.25
1969.09499840799	1753.75
1971.41813122527	1767.25
1973.74057872714	1790.25
1976.06234122345	1785
1978.38341902391	1801.25
1980.7038124381	1809.5
1983.02352177543	1806.25
1985.34254734518	1821.25
1987.66088945649	1834.5
1989.97854841833	1832.5
1992.29552453956	1826.75
1994.61181812887	1816.25
1996.92742949483	1834.5
1999.24235894586	1860.5
2001.55660679023	1860
2003.87017333608	1876.25
2006.18305889143	1850
2008.49526376413	1876.25
2010.80678826189	1896.5
2013.1176326923	1902.25
2015.42779736282	1903.5
2017.73728258075	1902.75
2020.04608865326	1896.5
2022.3542158874	1890.75
2024.66166459008	1930.5
2026.96843506807	1928.25
2029.274527628	1938
2031.57994257637	1980.5
2033.88468021957	1929.25
2036.18874086383	1946.25
2038.49212481526	1987.5
2040.79483237983	1960.25
2043.0968638634	1974.5
2045.39821957169	1974.25
2047.69889981028	1962.5
2049.99890488462	1988.5
2052.29823510006	1978.25
2054.59689076181	2008.75
2056.89487217492	2019.25
2059.19217964437	2001.25
2061.48881347497	2016.5
2063.7847739714	2020
2066.08006143826	2016.25
2068.37467618	2014.75
2070.66861850093	2057
2072.96188870527	2028.25
2075.25448709707	2048
2077.54641398031	2059.25
2079.83766965881	2044.5
2082.12825443629	2050
2084.41816861634	2059.75
2086.70741250242	2062.75
2088.99598639789	2073
2091.28389060597	2081
2093.57112542978	2045.75
2095.85769117232	2081.25
2098.14358813644	2080
2100.42881662491	2074.75
2102.71337694037	2093.5
2104.99726938532	2069.25
2107.28049426219	2082.75
2109.56305187325	2064
2111.84494252069	2103.5
2114.12616650655	2076.5
2116.40672413278	2109.5
2118.68661570121	2077.25
2120.96584151355	2102.25
2123.24440187138	2115
2125.52229707622	2118.75
2127.79952742943	2123
2130.07609323227	2153
2132.35199478588	2144.5
2134.62723239132	2122.25
2136.90180634949	2159.5
2139.17571696123	2161.75
2141.44896452723	2169
2143.72154934809	2143.5
2145.99347172429	2168.75
2148.26473195623	2155.75
2150.53533034415	2163.25
2152.80526718821	2178
2155.07454278848	2170.25
2157.3431574449	2157.25
2159.61111145728	2164.75
2161.87840512538	2177.5
2164.1450387488	2178.75
2166.41101262707	2168
2168.67632705959	2184
2170.94098234567	2185.75
2173.20497878451	2197.5
2175.46831667519	2193.75
2177.73099631672	2183.75
2179.99301800797	2186.75
2182.25438204772	2182.25
2184.51508873466	2152
2186.77513836735	2176.25
2189.03453124427	2170.5
2191.29326766378	2180.75
2193.55134792416	2157.25
2195.80877232355	2153
2198.06554116004	2163.75
2200.32165473157	2141
2202.577113336	2157.5
2204.83191727111	2147.25
2207.08606683453	2149.5
2209.33956232384	2147.75
2211.59240403648	2125.75
2213.84459226982	2138
2216.09612732112	2162.5
2218.34700948753	2136.5
2220.59723906612	2125.25
2222.84681635385	2135
2225.09574164758	2120
2227.34401524408	2124
2229.59163744002	2107.75
2231.83860853197	2112.25
2234.08492881639	2117.5
2236.33059858968	2078
2238.5756181481	2108
2240.81998778784	2109.75
2243.06370780499	2077
2245.30677849555	2098.75
2247.54920015539	2079.75
2249.79097308033	2079.25
2252.03209756607	2071.75
2254.27257390822	2071.25
2256.51240240228	2066.5
2258.75158334369	2084.5
2260.99011702777	2070
2263.22800374976	2034.75
2265.46524380477	2053
2267.70183748786	2038.25
2269.93778509399	2047
2272.17308691801	2068.5
2274.40774325467	2062.75
2276.64175439866	2041.25
2278.87512064454	2054.25
2281.10784228682	2040.25
2283.33991961987	2028.5
2285.571352938	2010.25
2287.80214253541	2035.5
2290.03228870623	2010.75
2292.26179174449	1990
2294.4906519441	2006
2296.71886959892	1978.5
2298.9464450027	1996.5
2301.1733784491	1971.25
2303.39967023169	1977.75
2305.62532064395	1958
2307.85032997926	1981.75
2310.07469853093	1976
2312.29842659216	1984.5
2314.52151445608	1959.75
2316.7439624157	1965
2318.96577076397	1952.5
2321.18693979374	1952.5
2323.40746979777	1940.75
2325.62736106873	1964.75
2327.8466138992	1976
2330.06522858166	1929.75
2332.28320540853	1937.25
2334.50054467212	1941
2336.71724666465	1919.5
2338.93331167827	1930.25
2341.14874000501	1907.25
2343.36353193685	1887.25
2345.57768776564	1891.25
2347.79120778319	1915.25
2350.00409228117	1919
2352.21634155121	1909.5
2354.42795588482	1917.25
2356.63893557342	1884
2358.84928090838	1892.5
2361.05899218094	1878
2363.26806968228	1888.25
2365.47651370347	1866.5
2367.68432453552	1881
2369.89150246933	1861.5
2372.09804779571	1865.25
2374.30396080541	1861.5
2376.50924178907	1851.5
2378.71389103725	1870.5
2380.91790884042	1842.5
2383.12129548897	1838.25
2385.3240512732	1849.75
2387.52617648332	1832.75
2389.72767140946	1825
2391.92853634165	1834.5
2394.12877156985	1828.25
2396.32837738392	1844.75
2398.52735407365	1826.25
2400.72570192873	1829.25
2402.92342123875	1827.5
2405.12051229325	1813
2407.31697538167	1807.5
2409.51281079333	1828.5
2411.70801881751	1796.25
2413.90259974339	1811
2416.09655386004	1804.75
2418.28988145648	1775
2420.48258282162	1805.25
2422.6746582443	1804.75
2424.86610801325	1808.5
2427.05693241713	1793.5
2429.24713174452	1766
2431.43670628389	1764
2433.62565632365	1768.25
2435.81398215212	1773.25
2438.00168405752	1772.5
2440.18876232799	1758.75
2442.37521725158	1768
2444.56104911628	1774.75
2446.74625820994	1768.75
2448.93084482038	1750.5
2451.1148092353	1773
2453.29815174233	1749.5
2455.480872629	1741.75
2457.66297218275	1736
2459.84445069097	1724.75
2462.02530844092	1722.5
2464.2055457198	1712.25
2466.38516281471	1719.75
2468.56416001267	1725
2470.74253760061	1718
2472.92029586537	1706.75
2475.09743509372	1691
2477.27395557232	1705.25
2479.44985758777	1706.75
2481.62514142655	1723
2483.79980737508	1711.75
2485.97385571969	1695.5
2488.14728674661	1685.75
2490.32010074198	1680
2492.49229799188	1715.25
2494.66387878228	1685.25
2496.83484339905	1693.75
2499.00519212802	1676
2501.17492525488	1699.5
2503.34404306528	1688.5
2505.51254584473	1668.75
2507.6804338787	1686.5
2509.84770745254	1680.5
2512.01436685153	1676.25
2514.18041236085	1665.25
2516.34584426561	1679.25
2518.51066285081	1690.75
2520.67486840138	1678
2522.83846120214	1684
2525.00144153784	1661.25
2527.16380969314	1682
2529.32556595261	1696.75
2531.48671060072	1692.25
2533.64724392186	1682
2535.80716620033	1665.25
2537.96647772034	1647.25
2540.12517876602	1668.75
2542.2832696214	1677.5
2544.44075057041	1639.25
2546.59762189691	1662.25
2548.75388388466	1631
2550.90953681735	1651.25
2553.06458097853	1631.75
2555.21901665172	1655.5
2557.37284412031	1652.5
2559.5260636676	1646
2561.67867557684	1660.5
2563.83068013113	1631.5
2565.98207761351	1638.25
2568.13286830695	1618.75
2570.28305249429	1625.75
2572.43263045829	1627
2574.58160248163	1597.75
2576.72996884689	1611.5
2578.87772983655	1625
2581.02488573303	1637.75
2583.1714368186	1615.5
2585.31738337549	1603.5
2587.46272568582	1622.25
2589.60746403161	1606.25
2591.75159869479	1613.25
2593.89512995722	1610.75
2596.03805810061	1609.5
2598.18038340665	1627
2600.32210615686	1595.5
2602.46322663274	1605.25
2604.60374511563	1579.5
2606.74366188683	1584.25
2608.88297722751	1596.25
2611.02169141875	1589
2613.15980474156	1588.75
2615.29731747681	1591.25
2617.43422990532	1603.5
2619.57054230779	1592.25
2621.70625496483	1600.25
2623.84136815694	1586.5
2625.97588216456	1585.75
2628.10979726799	1594.75
2630.24311374746	1599.75
2632.3758318831	1591.75
2634.50795195493	1588.75
2636.6394742429	1596.5
2638.77039902682	1584.5
2640.90072658645	1585.5
2643.0304572014	1606.75
2645.15959115123	1577.5
2647.28812871538	1595.75
2649.41607017319	1576.25
2651.5434158039	1594
2653.67016588665	1600
2655.79632070049	1597
2657.92188052436	1579.25
2660.04684563711	1602.25
2662.17121631749	1607.5
2664.29499284413	1593
2666.41817549558	1612
2668.54076455027	1593.5
2670.66276028656	1607.25
2672.78416298267	1595.75
2674.90497291675	1583
2677.02519036682	1610.5
2679.14481561082	1594.5
2681.26384892658	1603.75
2683.38229059182	1577.5
2685.50014088417	1571
2687.61740008114	1589.5
2689.73406846017	1591.75
2691.85014629854	1584
2693.96563387347	1591.5
2696.08053146206	1588.25
2698.1948393413	1583
2700.3085577881	1599.75
2702.42168707924	1592
2704.53422749139	1572
2706.64617930112	1608.25
2708.75754278492	1597.25
2710.86831821913	1595
2712.97850588002	1616.25
2715.08810604372	1613.5
2717.19711898628	1591.25
2719.30554498363	1601.75
2721.41338431158	1601
2723.52063724586	1590
2725.62730406206	1607.25
2727.73338503569	1625
2729.83888044213	1590.75
2731.94379055664	1597.5
2734.04811565441	1593
2736.15185601048	1603
2738.25501189979	1583.5
2740.35758359718	1572
2742.45957137738	1593.75
2744.56097551499	1569
2746.6617962845	1575
2748.7620339603	1572.5
2750.86168881666	1568.75
2752.96076112774	1556.75
2755.05925116758	1564.5
2757.15715921012	1586
2759.25448552917	1565
2761.35123039843	1563.75
2763.44739409148	1589.5
2765.5429768818	1579.25
2767.63797904275	1559.75
2769.73240084756	1557
2771.82624256934	1550
2773.91950448113	1555.75
2776.01218685579	1589.25
2778.10428996609	1570.75
2780.19581408469	1576
2782.28675948414	1587.5
2784.37712643683	1567.5
2786.46691521507	1566.5
2788.55612609104	1539.75
2790.64475933678	1562.75
2792.73281522425	1569.5
2794.82029402525	1586.5
2796.90719601149	1551.75
2798.99352145453	1553.25
2801.07927062583	1549.25
2803.16444379672	1565
2805.24904123841	1577.5
2807.33306322197	1572.5
2809.41651001838	1565.25
2811.49938189847	1562
2813.58167913296	1596.25
2815.66340199243	1601.5
2817.74455074734	1593.25
2819.82512566805	1585.75
2821.90512702475	1586.5
2823.98455508754	1619.75
2826.06341012637	1602
2828.14169241109	1624.25
2830.2194022114	1658.5
2832.29653979686	1717.5
2834.37310543694	1800.25
2836.44909940096	1878
2838.5245219581	1962.5
2840.59937337744	2127.5
2842.67365392791	2257.5
2844.74736387829	2349.25
2846.82050349727	2395.75
2848.8930730534	2363.5
2850.96507281506	2319
2853.03650305056	2284.25
2855.10736402802	2202.75
2857.17765601545	2151.75
2859.24737928074	2100.5
2861.31653409164	2093
2863.38512071574	2067
2865.45313942054	2073
2867.52059047335	2077
2869.58747414139	2080.5
2871.65379069173	2072.25
2873.7195403913	2128.25
2875.78472350688	2219.25
2877.84934030515	2373
2879.91339105262	2458.75
2881.97687601567	2401.5
2884.03979546053	2291.25
2886.10214965332	2183.25
2888.16393886	2124.75
2890.22516334639	2105.75
2892.28582337816	2056.25
2894.34591922087	2070.5
2896.40545113992	2062.75
2898.46441940054	2050.75
2900.52282426787	2030.5
2902.58066600687	2009
2904.63794488237	1974.25
2906.69466115906	1941.75
2908.75081510147	1940.25
2910.806406974	1920.25
2912.8614370409	1872.5
2914.91590556626	1908.5
2916.96981281404	1871.75
2919.02315904807	1889.25
2921.07594453199	1891.75
2923.12816952932	1884.25
2925.17983430343	1868.5
2927.23093911753	1875.25
2929.28148423469	1848
2931.33146991782	1852.5
2933.3808964297	1817.75
2935.42976403294	1813.75
2937.47807299	1808.25
2939.5258235632	1755.5
2941.57301601469	1712.5
2943.61965060648	1673
2945.66572760042	1699.5
2947.71124725823	1669.5
2949.75620984143	1668
2951.80061561143	1643
2953.84446482945	1641.25
2955.88775775656	1646.75
2957.9304946537	1624.75
2959.97267578162	1629.75
2962.01430140095	1622.5
2964.05537177211	1635
2966.09588715541	1619
2968.13584781097	1631.5
2970.17525399875	1613
2972.21410597859	1628.25
2974.25240401011	1632
2976.29014835283	1618.5
2978.32733926604	1639.5
2980.36397700892	1650
2982.40006184049	1629.25
2984.43559401955	1637
2986.4705738048	1621.5
2988.50500145473	1627.5
2990.53887722771	1637.25
2992.57220138189	1630.75
2994.6049741753	1624.5
2996.63719586576	1620.5
2998.66886671097	1647
3000.69998696843	1638.5
3002.73055689549	1646.25
3004.7605767493	1647
3006.79004678688	1659.25
3008.81896726505	1652.5
3010.84733844048	1665.5
3012.87516056966	1660.5
3014.9024339089	1641.75
3016.92915871433	1670.25
3018.95533524196	1650.75
3020.98096374756	1663.5
3023.00604448675	1667.25
3025.030577715	1683
3027.05456368757	1679.25
3029.07800265956	1679.5
3031.10089488589	1669
3033.12324062131	1677
3035.14504012038	1685.75
3037.16629363749	1679
3039.18700142685	1688.5
3041.20716374249	1667.5
3043.22678083826	1691.25
3045.24585296782	1700.5
3047.26438038468	1721.5
3049.28236334212	1709.75
3051.29980209329	1733.75
3053.31669689111	1744.5
3055.33304798835	1737.25
3057.34885563757	1770.25
3059.36412009117	1746.75
3061.37884160134	1760.25
3063.39302042011	1742.5
3065.40665679931	1720.5
3067.41975099058	1695.25
3069.43230324538	1714.25
3071.44431381495	1706.25
3073.45578295041	1725.5
3075.46671090261	1706.25
3077.47709792227	1690.75
3079.48694425989	1701.5
3081.49625016578	1704.75
3083.50501589008	1708.75
3085.5132416827	1723.5
3087.5209277934	1694.5
3089.52807447169	1731
3091.53468196695	1713
3093.54075052832	1723
3095.54628040476	1714.5
3097.55127184503	1727
3099.55572509769	1700
3101.55964041111	1709.75
3103.56301803346	1712.5
3105.5658582127	1703.25
3107.56816119661	1738.5
3109.56992723275	1729
3111.57115656849	1727.5
3113.571849451	1726.25
3115.57200612724	1716.75
3117.57162684397	1728.25
3119.57071184775	1758.75
3121.56926138493	1740.25
3123.56727570166	1750.25
3125.56475504389	1730.75
3127.56169965735	1751
3129.55810978757	1755.5
3131.55398567987	1773.5
3133.54932757937	1753.5
3135.54413573099	1764.5
3137.53841037939	1774
3139.53215176909	1762
3141.52536014435	1773.25
3143.51803574924	1781
3145.51017882762	1785.25
3147.50178962311	1775
3149.49286837916	1781
3151.48341533897	1760
3153.47343074553	1810.25
3155.46291484164	1806.5
3157.45186786985	1779
3159.44029007252	1784.5
3161.42818169179	1803.5
3163.41554296955	1801.75
3165.40237414753	1798.75
3167.38867546718	1805.25
3169.37444716975	1784.75
3171.35968949631	1776.75
3173.34440268764	1818.25
3175.32858698436	1815.75
3177.31224262682	1827
3179.29536985517	1812
3181.27796890934	1820
3183.26004002902	1826.75
3185.24158345368	1833
3187.22259942256	1816.75
3189.2030881747	1825.75
3191.18304994886	1821
3193.16248498363	1819.25
3195.14139351733	1814.75
3197.11977578807	1853.5
3199.09763203371	1843.75
3201.07496249191	1834.5
3203.05176740007	1845.5
3205.02804699537	1858.5
3207.00380151475	1877.75
3208.97903119493	1854.75
3210.95373627238	1857.5
3212.92791698335	1870.75
3214.90157356383	1860.75
3216.8747062496	1887.75
3218.84731527619	1879.25
3220.81940087889	1879.5
3222.79096329275	1899
3224.76200275259	1892.5
3226.73251949298	1895
3228.70251374825	1893.5
3230.67198575251	1882.5
3232.64093573959	1892.25
3234.6093639431	1905.75
3236.57727059641	1915.5
3238.54465593261	1916.25
3240.51152018461	1913.25
3242.47786358502	1915.5
3244.44368636621	1922.75
3246.40898876031	1906
3248.37377099923	1947.25
3250.33803331458	1945
3252.30177593775	1951.75
3254.26499909987	1949.75
3256.22770303184	1957
3258.18988796427	1941
3260.15155412755	1935.5
3262.1127017518	1956.5
3264.0733310669	1950.75
3266.03344230246	1956.25
3267.99303568784	1980
3269.95211145215	1943.5
3271.91066982422	1958
3273.86871103267	1954.5
3275.82623530581	1979.25
3277.7832428717	1977
3279.73973395818	1992
3281.69570879278	1981.75
3283.6511676028	1992.5
3285.60611061527	1982.75
3287.56053805694	1986
3289.51445015432	1967
3291.46784713364	1980.25
3293.42072922088	1976.25
3295.37309664173	2004
3297.32494962163	2003.75
3299.27628838575	1963.75
3301.227113159	1982
3303.17742416601	1989
3305.12722163114	2005.25
3307.07650577848	1996.5
3309.02527683185	1982.25
3310.9735350148	2008.25
3312.9212805506	2029.75
3314.86851366225	2010.25
3316.81523457249	2026.5
3318.76144350377	2024.75
3320.70714067825	2009.25
3322.65232631783	1994
3324.59700064415	2013.75
3326.54116387854	2010.75
3328.48481624207	2003
3330.42795795551	1995.5
3332.37058923938	2005.5
3334.31271031389	1988.75
3336.25432139898	2012.5
3338.19542271432	2034.25
3340.13601447927	2017.25
3342.07609691292	2015.75
3344.01567023407	2046
3345.95473466124	2015.5
3347.89329041266	2027
3349.83133770627	2040.5
3351.76887675973	2017
3353.70590779039	1999.5
3355.64243101534	2012.5
3357.57844665135	2033.25
3359.51395491492	2045.25
3361.44895602224	2030.25
3363.38345018922	2047.75
3365.31743763148	2040.25
3367.25091856432	2044.5
3369.18389320278	2030.5
3371.11636176156	2058.75
3373.0483244551	2033
3374.97978149754	2039
3376.91073310269	2067.25
3378.84117948409	2078.5
3380.77112085498	2075.25
3382.70055742826	2054.5
3384.62948941659	2075.5
3386.55791703227	2050.5
3388.48584048733	2066.25
3390.41325999348	2065
3392.34017576214	2096.25
3394.2665880044	2105.25
3396.19249693107	2095.75
3398.11790275263	2067.5
3400.04280567926	2096.75
3401.96720592084	2118.25
3403.89110368692	2092.5
3405.81449918675	2130.25
3407.73739262928	2102.5
3409.65978422311	2118
3411.58167417658	2110.75
3413.50306269768	2113.5
3415.42394999408	2089.5
3417.34433627316	2127.75
3419.26422174195	2083.5
3421.18360660721	2101
3423.10249107532	2115.25
3425.02087535239	2120.5
3426.93875964421	2113.25
3428.8561441562	2133.5
3430.77302909353	2121.5
3432.68941466097	2132.75
3434.60530106301	2101.5
3436.52068850383	2115
3438.43557718726	2135.25
3440.34996731681	2120.5
3442.26385909565	2105.75
3444.17725272664	2123.5
3446.09014841231	2136
3448.00254635486	2116.25
3449.91444675614	2115
3451.82584981771	2133.25
3453.73675574076	2120.75
3455.64716472616	2118.25
3457.55707697445	2102.75
3459.46649268584	2113.75
3461.37541206018	2105
3463.28383529703	2137
3465.19176259555	2108.75
3467.09919415464	2120.5
3469.00613017278	2114.25
3470.91257084817	2109.5
3472.81851637863	2107.25
3474.72396696168	2103.5
3476.62892279446	2118
3478.53338407379	2135.25
3480.43735099614	2091
3482.34082375764	2112.25
3484.24380255404	2106.5
3486.1462875808	2105.75
3488.048279033	2117.5
3489.94977710537	2110.75
3491.85078199231	2103.75
3493.75129388783	2109.75
3495.65131298566	2128
3497.5508394791	2123
3499.44987356115	2127