201.866871357051	651.75
204.754250281454	647
207.640596790938	646.5
210.525911876299	654
213.410196525689	648.75
216.293451724508	648.5
219.175678455485	644.75
222.056877698662	653.25
224.937050431388	651.25
227.816197628363	648.75
230.694320261602	656.75
233.571419300504	658.25
236.447495711764	655.25
239.322550459507	660.25
242.196584505182	647.5
245.069598807626	667.5
247.941594323078	661.25
250.812572005154	663.5
253.682532804884	672.25
256.551477670699	662.5
259.419407548456	662.5
262.286323381439	657
265.152226110364	665.75
268.017116673389	661
270.880996006115	667
273.743865041622	649.75
276.605724710436	651.25
279.466575940562	655.5
282.326419657496	655.5
285.1852567842	661.25
288.043088241157	653.25
290.899914946349	654.75
293.75573781526	653.75
296.610557760898	652.75
299.464375693817	658.75
302.317192522078	658.5
305.169009151297	660.5
308.019826484655	658.25
310.86964542287	661
313.718466864233	655.75
316.566291704614	660.5
319.413120837457	660.75
322.258955153804	669
325.103795542291	656
327.947642889128	662.75
330.79049807819	653
333.632361990927	653.75
336.473235506444	662
339.31311950145	653.25
342.152014850322	657.75
344.989922425062	659.75
347.826843095354	650.75
350.662777728528	658.25
353.497727189577	658
356.331692341195	664.25
359.164674043732	659
361.996673155267	664.25
364.827690531536	655.25
367.65772702602	662
370.486783489887	663.75
373.314860772047	665.25
376.14195971912	665.5
378.968081175466	656.25
381.793225983212	661.75
384.617394982201	666.75
387.44058901005	670.75
390.262808902131	686.5
393.08405549161	705
395.904329609395	722.75
398.723632084213	724
401.541963742569	718.25
404.359325408779	701.25
407.175717904938	679
409.991142050982	672.25
412.805598664665	674.5
415.619088561551	666.25
418.43161255505	665.5
421.243171456415	668.75
424.053766074758	666
426.863397217017	663.75
429.672065688024	663.25
432.479772290455	669.25
435.286517824879	667
438.092303089736	674
440.897128881359	671.25
443.70099599399	675.25
446.503905219761	679
449.305857348711	687.5
452.106853168796	684.25
454.906893465919	694.75
457.705979023885	685
460.504110624439	678.75
463.3012890473	679
466.097515070087	679.5
468.892789468424	666.25
471.687113015869	668.25
474.48048648395	664.75
477.272910642198	664.25
480.064386258109	667.75
482.854914097159	669
485.644494922839	674.25
488.433129496636	669.5
491.220818578047	668.25
494.007562924584	666.75
496.793363291785	669.75
499.578220433217	669.5
502.362135100473	681.25
505.145108043209	667.5
507.927140009098	668.5
510.708231743909	669
513.488383991433	670.5
516.267597493556	674.5
519.04587299022	678.25
521.82321121946	681.25
524.599612917398	687
527.375078818233	697.75
530.149609654287	701.25
532.923206155967	688.25
535.695869051804	675.25
538.467599068448	675.25
541.238396930665	676.25
544.008263361364	673.25
546.777199081578	672
549.545204810493	664.5
552.312281265436	668
555.078429161898	668.25
557.843649213533	666.25
560.607942132156	666.75
563.371308627753	671.25
566.133749408495	670.25
568.895265180756	674
571.655856649064	667.75
574.415524516189	674.75
577.174269483075	664.5
579.932092248884	660.75
582.688993510994	666.75
585.444973965023	667
588.200034304795	675.75
590.95417522237	669.75
593.70739740807	669.5
596.459701550433	667
599.21108833628	663.5
601.961558450668	663.5
604.711112576933	672.25
607.459751396673	665.25
610.207475589748	668
612.954285834338	670
615.700182806879	662
618.445167182101	670.5
621.189239633055	666.75
623.932400831087	673
626.674651445839	669
629.415992145303	664
632.156423595745	662.5
634.895946461813	671.25
637.634561406449	660
640.37226909096	669.25
643.109070174978	666
645.844965316508	668.5
648.579955171888	669.5
651.314040395846	670.75
654.047221641456	664.25
656.779499560176	665
659.510874801828	667.5
662.241348014642	671.25
664.97091984524	676
667.699590938606	668.25
670.427361938164	677.75
673.15423348573	668
675.880206221526	673
678.605280784206	667.5
681.329457810829	674.25
684.05273793692	667.75
686.775121796389	671.5
689.49661002163	670.75
692.217203243454	672.75
694.936902091144	671.75
697.655707192425	671
700.373619173493	669.75
703.09063865901	671.5
705.806766272093	672
708.522002634378	667.25
711.236348365946	669.75
713.94980408538	674
716.662370409762	668
719.374047954676	665
722.08483733419	669
724.794739160909	673.75
727.503754045949	666.75
730.21188259892	675
732.919125427998	666.25
735.625483139855	674.25
738.330956339723	678.25
741.035545631374	670.75
743.739251617106	674.5
746.44207489779	669.25
749.144016072852	668
751.845075740272	678.5
754.545254496603	670.5
757.244552936976	674.75
759.94297165508	672.5
762.640511243222	680.75
765.337172292249	681.25
768.032955391649	674
770.727861129482	678
773.421890092413	671.25
776.11504286572	681.5
778.807320033298	679
781.49872217765	677
784.18924987991	679
786.87890371984	674
789.567684275826	680
792.255592124908	690.75
794.94262784276	693.5
797.628792003703	687.75
800.314085180715	702
802.998507945427	736.75
805.682060868145	774
808.364744517821	807.75
811.046559462105	791.5
813.727506267311	749.75
816.407585498422	717.5
819.08679771913	700.5
821.765143491822	689.75
824.442623377563	697.75
827.119237936127	690.5
829.794987726003	690.5
832.469873304377	709
835.143895227167	716
837.817054048985	735.75
840.489350323205	750.75
843.160784601892	742.25
845.831357435894	728
848.501069374739	707.25
851.169920966753	694
853.837912758987	691.25
856.505045297232	691.75
859.171319126071	687.25
861.836734788823	682.75
864.501292827579	685.75
867.164993783208	679.25
869.827838195361	688.25
872.489826602454	686.25
875.150959541701	694
877.811237549104	686.25
880.470661159456	675.5
883.129230906357	676.5
885.786947322205	679.75
888.443810938206	680
891.099822284385	681.5
893.754981889586	683.75
896.409290281452	686
899.062747986485	697
901.715355529999	690.5
904.367113436154	689.5
907.01802222793	684.75
909.668082427172	685
912.317294554574	681.5
914.965659129659	683.25
917.613176670835	685.5
920.259847695364	681.25
922.90567271936	689.5
925.550652257825	682.75
928.194786824621	687
930.838076932512	683.25
933.480523093109	686.75
936.122125816953	700.75
938.762885613447	695.5
941.402802990899	703.5
944.041878456523	700.25
946.680112516428	689.75
949.31750567563	692.5
951.954058438081	683.25
954.589771306633	697.75
957.224644783048	690.5
959.858679368044	688.25
962.491875561238	697.75
965.12423386121	697.75
967.75575476545	716.25
970.386438770423	732.75
973.016286371501	754
975.645298063046	742.5
978.273474338355	711.5
980.900815689674	704.75
983.527322608243	694.75
986.152995584245	692.25
988.777835106834	693.5
991.401841664148	708.5
994.025015743307	701.75
996.647357830407	717.5
999.268868410534	714
1001.88954796777	708
1004.50939698518	706.75
1007.12841594484	703
1009.74660532783	690
1012.36396561423	692.75
1014.98049728314	686.75
1017.59620081267	699.75
1020.21107667995	694
1022.82512536112	689.5
1025.43834733138	697.75
1028.05074306493	695.5
1030.66231303501	703
1033.27305771392	707
1035.88297757299	715
1038.49207308257	717
1041.10034471211	708.75
1043.70779293008	711
1046.31441820402	708
1048.92022100052	693.75
1051.52520178525	694.75
1054.12936102295	691.75
1056.73269917742	695
1059.33521671154	695.75
1061.93691408729	685
1064.53779176571	692
1067.13785020694	691.5
1069.73708987022	694.5
1072.33551121386	678.25
1074.93311469528	692
1077.52990077103	685.25
1080.12586989674	690
1082.72102252714	690
1085.31535911611	688.75
1087.90888011663	687.5
1090.50158598078	692.25
1093.09347715979	692.25
1095.68455410403	689.75
1098.27481726296	694
1100.86426708523	691.75
1103.45290401857	700.25
1106.04072850991	698.75
1108.6277410053	698.5
1111.21394194993	691
1113.79933178816	693.75
1116.3839109635	696.75
1118.96767991862	698.25
1121.55063909539	688
1124.13278893477	695.5
1126.71412987696	696.75
1129.29466236132	701.25
1131.87438682637	698.5
1134.45330370982	704.25
1137.03141344858	702.25
1139.60871647872	704
1142.18521323554	716.75
1144.7609041535	722.25
1147.33578966629	736.5
1149.90987020676	762
1152.48314620702	772.25
1155.05561809835	759.25
1157.62728631125	742.75
1160.19815127545	743.25
1162.76821341988	756.75
1165.33747317271	756.75
1167.90593096133	766.5
1170.47358721235	752
1173.04044235163	738.25
1175.60649680425	723.25
1178.17175099454	704
1180.73620534607	706.25
1183.29986028165	707
1185.86271622336	699.5
1188.42477359249	700.25
1190.98603280964	700.75
1193.54649429462	702.75
1196.10615846653	696.25
1198.66502574372	707.25
1201.22309654385	704
1203.78037128378	702.25
1206.33685037971	700.75
1208.89253424709	710
1211.44742330063	714.5
1214.00151795438	718.5
1216.55481862163	727
1219.10732571497	730.75
1221.65903964631	734.5
1224.20996082683	709.5
1226.760089667	703.5
1229.30942657664	709.5
1231.85797196483	697.5
1234.40572623998	697.5
1236.95268980981	705.75
1239.49886308136	701
1242.04424646098	698.5
1244.58884035435	698
1247.13264516647	704
1249.67566130166	707.5
1252.21788916358	718.25
1254.75932915524	712.75
1257.29998167896	703.25
1259.83984713639	707.25
1262.37892592857	708.75
1264.91721845586	706.5
1267.45472511795	708
1269.9914463139	707.25
1272.52738244213	708.5
1275.0625339004	714.75
1277.59690108587	706
1280.130484395	705.5
1282.66328422367	702
1285.19530096712	704.25
1287.72653501993	708.5
1290.25698677608	714.75
1292.78665662894	716
1295.31554497125	716.25
1297.8436521951	715
1300.37097869203	723
1302.89752485292	722.5
1305.42329106805	723.5
1307.94827772713	719.75
1310.47248521921	717.25
1312.99591393279	729
1315.51856425575	722.25
1318.04043657536	724.25
1320.56153127836	734.75
1323.08184875083	749.5
1325.6013893783	779
1328.12015354572	796.5
1330.63814163744	798.25
1333.15535403727	791.75
1335.67179112839	755.75
1338.18745329347	743
1340.70234091454	732
1343.21645437314	732
1345.72979405019	718
1348.24236032607	726
1350.75415358059	733.5
1353.26517419303	732.25
1355.7754225421	742.25
1358.28489900594	766.75
1360.79360396218	757.75
1363.30153778787	750.75
1365.80870085955	738.75
1368.31509355319	743.25
1370.82071624424	730.75
1373.32556930762	728.25
1375.8296531177	734.25
1378.33296804832	728
1380.83551447282	719.75
1383.33729276399	720.75
1385.83830329408	724.25
1388.33854643489	715.25
1390.83802255762	720.75
1393.33673203301	714.75
1395.83467523128	713.25
1398.33185252211	711
1400.82826427471	724
1403.32391085777	720.75
1405.81879263947	719.75
1408.31290998752	718.25
1410.80626326908	718.25
1413.29885285087	711.5
1415.79067909909	720.75
1418.28174237944	720
1420.77204305717	729.5
1423.26158149702	726
1425.75035806323	726
1428.2383731196	732
1430.72562702942	745
1433.21212015554	757
1435.69785286028	766.25
1438.18282550555	765.75
1440.66703845275	759
1443.15049206284	763.75
1445.6331866963	765.75
1448.11512271316	776.5
1450.59630047298	802.25
1453.07672033486	792.5
1455.55638265748	825
1458.03528779902	840
1460.51343611725	851.5
1462.99082796946	834
1465.46746371252	811.25
1467.94334370285	783.75
1470.41846829642	760.25
1472.89283784878	757.25
1475.36645271503	755
1477.83931324983	748.5
1480.31141980743	745.25
1482.78277274164	746.5
1485.25337240583	730.5
1487.72321915297	739.5
1490.19231333557	738.5
1492.66065530578	737.25
1495.12824541525	734.5
1497.5950840153	742.75
1500.06117145678	738
1502.52650809014	743
1504.99109426543	741.25
1507.45493033227	742.5
1509.91801663992	747.75
1512.38035353717	746.25
1514.84194137248	740.75
1517.30278049386	749.25
1519.76287124894	742.25
1522.22221398497	743.75
1524.68080904876	748.25
1527.13865678681	743.5
1529.59575754514	740.5
1532.05211166945	746.25
1534.50771950503	740.25
1536.96258139678	739.25
1539.41669768924	746.5
1541.87006872656	743.75
1544.32269485252	740.25
1546.77457641051	745.25
1549.22571374357	747.25
1551.67610719434	756.25
1554.12575710513	755.25
1556.57466381785	754.5
1559.02282767408	748.5
1561.47024901499	755.5
1563.91692818144	747.75
1566.3628655139	762.75
1568.80806135249	764
1571.252516037	755.25
1573.6962299068	759.5
1576.13920330099	759.5
1578.58143655828	766.5
1581.02293001704	762
1583.46368401528	762.75
1585.90369889071	762.75
1588.34297498065	761.75
1590.7815126221	762.25
1593.21931215173	766.75
1595.65637390588	761.75
1598.09269822053	770.75
1600.52828543135	771.75
1602.96313587367	759.75
1605.3972498825	759.5
1607.83062779252	765.5
1610.26326993808	758.75
1612.69517665322	782
1615.12634827165	771
1617.55678512676	773
1619.98648755163	772.75
1622.41545587902	764.25
1624.84369044138	763.75
1627.27119157085	776.75
1629.69795959924	779.75
1632.12399485808	765.75
1634.54929767859	776.25
1636.97386839165	770.75
1639.39770732789	770
1641.8208148176	766.5
1644.24319119078	768.5
1646.66483677715	773.25
1649.0857519061	792.25
1651.50593690677	771
1653.92539210795	774.75
1656.3441178382	784.25
1658.76211442575	787
1661.17938219855	783.25
1663.59592148428	779
1666.01173261032	779.75
1668.42681590377	794.25
1670.84117169145	787.25
1673.25480029991	776.75
1675.66770205541	790.75
1678.07987728393	789.75
1680.49132631119	782
1682.90204946263	800.25
1685.31204706342	790.5
1687.72131943846	784.75
1690.1298669124	788.75
1692.53768980957	787.75
1694.94478845411	787.75
1697.35116316982	802
1699.75681428031	796.25
1702.16174210887	792
1704.56594697858	799.25
1706.96942921222	798
1709.37218913235	793.75
1711.77422706125	798.75
1714.17554332098	790.75
1716.5761382333	804.5
1718.97601211977	791.75
1721.37516530169	783.25
1723.77359810006	791
1726.17131083572	799.75
1728.56830382922	791.5
1730.96457740087	796.75
1733.36013187075	783.5
1735.75496755868	799.25
1738.14908478428	791.5
1740.54248386689	797.25
1742.93516512565	792.5
1745.32712887946	781.5
1747.71837544697	794
1750.10890514662	797.5
1752.49871829661	792
1754.88781521492	790.5
1757.27619621929	792.75
1759.66386162726	794.5
1762.05081175612	808.75
1764.43704692297	813.25
1766.82256744465	795.75
1769.20737363782	797
1771.59146581887	801.5
1773.97484430405	801.25
1776.35750940932	802.75
1778.73946145048	789
1781.12070074309	796.5
1783.50122760249	797.75
1785.88104234385	804
1788.26014528209	804
1790.63853673196	807
1793.01621700796	800.25
1795.39318642443	807.5
1797.76944529549	799.5
1800.14499393503	799
1802.51983265681	809.5
1804.8939617743	811.75
1807.26738160085	816
1809.64009244957	809.75
1812.01209463339	809
1814.38338846504	807.25
1816.75397425706	806.25
1819.12385232181	809.5
1821.49302297142	817.25
1823.86148651789	806
1826.22924327299	810.25
1828.59629354831	807
1830.96263765526	807
1833.32827590507	817.25
1835.69320860877	802.25
1838.05743607724	804.75
1840.42095862113	813.25
1842.78377655097	811.75
1845.14589017707	804.25
1847.50729980956	816.75
1849.86800575843	806
1852.22800833346	804.75
1854.58730784427	802.5
1856.94590460032	799.5
1859.30379891087	814.5
1861.66099108503	819.25
1864.01748143175	824.5
1866.37327025978	812.25
1868.72835787773	810
1871.08274459403	805
1873.43643071697	813.5
1875.78941655464	820.75
1878.14170241498	808
1880.4932886058	812.75
1882.84417543469	814.75
1885.19436320915	822
1887.54385223646	816
1889.89264282378	819
1892.24073527809	810.5
1894.58812990625	815.5
1896.93482701493	821.25
1899.28082691067	824
1901.62612989984	827.75
1903.97073628868	833.75
1906.31464638326	824.25
1908.6578604895	839
1911.00037891321	837.5
1913.34220196	840.5
1915.68332993537	830.75
1918.02376314468	832.5
1920.36350189311	827.75
1922.70254648573	832.25
1925.04089722744	843
1927.37855442303	827.5
1929.71551837715	834.5
1932.05178939426	827.5
1934.38736777876	836.25
1936.72225383484	832.5
1939.0564478666	841
1941.38995017799	825.5
1943.72276107283	836.25
1946.05488085479	833
1948.38630982744	832
1950.71704829419	831
1953.04709655832	831
1955.376454923	834
1957.70512369126	820.5
1960.03310316599	835.25
1962.36039364999	823.75
1964.68699544589	844.75
1967.01290885622	842
1969.33813418338	837
1971.66267172965	835.5
1973.98652179718	829.75
1976.309684688	830.75
1978.63216070402	836.75
1980.95395014705	823.25
1983.27505331873	836.25
1985.59547052063	839
1987.9152020542	830.75
1990.23424822074	830.25
1992.55260932146	844.75
1994.87028565746	838
1997.18727752968	840
1999.503585239	840.75
2001.81920908618	846.5
2004.13414937184	837
2006.44840639651	842.25
2008.7619804606	844
2011.07487186442	847
2013.38708090815	838
2015.6986078919	845.25
2018.00945311564	849
2020.31961687923	845
2022.62909948246	851.75
2024.93790122498	849.75
2027.24602240636	849.75
2029.55346332604	849
2031.86022428337	847.25
2034.16630557761	848.5
2036.47170750791	853.25
2038.77643037331	850
2041.08047447275	851
2043.38384010509	854
2045.68652756907	841.5
2047.98853716335	854
2050.28986918648	859.5
2052.59052393692	852.5
2054.89050171302	855.75
2057.18980281306	851
2059.4884275352	856
2061.78637617753	851.75
2064.08364903802	851
2066.38024641457	841.5
2068.67616860497	843.75
2070.97141590694	846
2073.26598861809	845.25
2075.55988703595	836.5
2077.85311145796	844.25
2080.14566218145	852
2082.43753950371	858.75
2084.72874372188	840.5
2087.01927513307	859.25
2089.30913403428	847.75
2091.59832072241	854
2093.88683549429	852
2096.17467864666	847
2098.46185047619	845
2100.74835127944	857.5
2103.03418135292	851.25
2105.31934099303	855
2107.6038304961	847.5
2109.88765015838	854.75
2112.17080027602	856.75
2114.45328114513	850.5
2116.7350930617	844
2119.01623632165	848.75
2121.29671122085	849.25
2123.57651805505	862.5
2125.85565711996	841
2128.13412871117	854.75
2130.41193312424	857.75
2132.68907065462	855
2134.96554159771	858.5
2137.24134624881	859
2139.51648490317	842.5
2141.79095785593	850.25
2144.0647654022	851.25
2146.33790783698	859.75
2148.61038545524	853.25
2150.88219855182	852.25
2153.15334742154	856.25
2155.42383235911	849
2157.6936536592	852.25
2159.9628116164	855.5
2162.23130652522	855
2164.49913868011	847.25
2166.76630837544	860
2169.03281590552	857
2171.2986615646	856.75
2173.56384564685	849.25
2175.82836844637	870.75
2178.0922302572	845
2180.35543137332	852.75
2182.61797208862	848.75
2184.87985269695	839.5
2187.14107349208	855.5
2189.40163476773	852
2191.66153681753	842.5
2193.92077993507	854
2196.17936441386	852
2198.43729054735	851
2200.69455862894	849.5
2202.95116895194	850.75
2205.20712180962	855.5
2207.46241749519	848
2209.71705630179	855.75
2211.97103852248	853
2214.2243644503	838.5
2216.47703437819	863.5
2218.72904859905	843
2220.98040740571	856.75
2223.23111109095	859.75
2225.4811599475	854.5
2227.73055426799	844
2229.97929434504	843.5
2232.22738047118	852.5
2234.47481293889	849
2236.72159204058	851.75
2238.96771806864	849.75
2241.21319131536	849.25
2243.458012073	841
2245.70218063374	846.75
2247.94569728973	857.75
2250.18856233304	849.75
2252.4307760557	845.75
2254.67233874967	851.75
2256.91325070687	853.25
2259.15351221915	843.5
2261.39312357831	844
2263.63208507611	852.5
2265.87039700422	852.5
2268.1080596543	844.5
2270.34507331792	849.25
2272.5814382866	849
2274.81715485183	858.75
2277.05222330502	852.5
2279.28664393755	854
2281.52041704072	841.75
2283.75354290581	861.25
2285.98602182401	849
2288.21785408648	849.75
2290.44903998434	853.5
2292.67957980862	847.75
2294.90947385033	845.5
2297.1387224004	845.5
2299.36732574975	853.75
2301.59528418921	852.25
2303.82259800958	840.5
2306.04926750158	843.5
2308.27529295593	846.25
2310.50067466325	842.75
2312.72541291412	845.5
2314.9495079991	845.75
2317.17296020866	847.75
2319.39576983323	858.25
2321.61793716322	852
2323.83946248894	834.5
2326.06034610069	842.75
2328.28058828871	844.25
2330.50018934317	851
2332.7191495542	852
2334.93746921192	843
2337.15514860633	845.25
2339.37218802743	835.25
2341.58858776516	841.5
2343.80434810941	835.75
2346.01946935001	844.75
2348.23395177675	845.5
2350.44779567939	840.25
2352.66100134759	842
2354.87356907101	850.25
2357.08549913925	840.75
2359.29679184185	837
2361.50744746829	847.5
2363.71746630804	835.5
2365.92684865048	841.5
2368.13559478499	840
2370.34370500083	847.5
2372.55117958727	844.25
2374.75801883352	843.75
2376.96422302874	848.25
2379.16979246202	843.75
2381.37472742243	841.25
2383.57902819898	838.75
2385.78269508063	841.5
2387.98572835629	825.5
2390.18812831482	843
2392.38989524505	836.25
2394.59102943573	847.5
2396.79153117559	843.25
2398.9914007533	831
2401.19063845748	832.75
2403.38924457672	835.75
2405.58721939951	829.5
2407.78456321435	828.25
2409.98127630966	827.25
2412.17735897382	838.25
2414.37281149517	832.25
2416.56763416198	820
2418.76182726249	840.25
2420.95539108487	838.75
2423.14832591726	832.25
2425.34063204776	828.75
2427.53230976439	819.25
2429.72335935513	833.25
2431.91378110795	832.5
2434.10357531071	836.5
2436.29274225125	834.25
2438.48128221739	830
2440.66919549683	820.75
2442.8564823773	827.5
2445.04314314641	816.5
2447.22917809176	834.75
2449.4145875009	825.25
2451.59937166131	837
2453.78353086044	833
2455.96706538568	831.5
2458.14997552436	830.5
2460.33226156379	824.5
2462.51392379119	819
2464.69496249376	833.25
2466.87537795862	820.75
2469.05517047288	823
2471.23434032357	819.25
2473.41288779767	820.5
2475.59081318211	825.75
2477.76811676378	826.75
2479.9447988295	826
2482.12085966605	816.25
2484.29629956016	829.25
2486.4711187985	820.5
2488.64531766769	836.25
2490.8188964543	821.75
2492.99185544484	811.5
2495.16419492579	815.75
2497.33591518353	822.25
2499.50701650444	824.25
2501.67749917482	823.75
2503.84736348091	827.75
2506.01660970891	821
2508.18523814496	809.75
2510.35324907514	820.5
2512.52064278551	819
2514.68741956201	819
2516.85357969058	823.5
2519.01912345709	822.25
2521.18405114735	822
2523.34836304711	817
2525.51205944208	808.5
2527.6751406179	823.75
2529.83760686016	820.25
2531.99945845439	826
2534.16069568606	823.25
2536.3213188406	824.25
2538.48132820336	816
2540.64072405965	807.75
2542.79950669471	824.75
2544.95767639373	819.5
2547.11523344184	821.75
2549.27217812411	820.75
2551.42851072555	821
2553.58423153111	830.5
2555.73934082569	820.5
2557.89383889412	822.25
2560.04772602118	818.75
2562.20100249158	816.75
2564.35366858996	817.75
2566.50572460093	818
2568.65717080901	815.25
2570.80800749867	817.75
2572.95823495433	820
2575.10785346031	818.75
2577.25686330093	816.25
2579.40526476038	817.5
2581.55305812282	815.5
2583.70024367237	808.25
2585.84682169303	819.25
2587.99279246879	812.5
2590.13815628354	813.5
2592.28291342112	809
2594.42706416531	814.25
2596.5706087998	811.5
2598.71354760826	818.25
2600.85588087425	806.75
2602.99760888127	815.75
2605.13873191278	807.25
2607.27925025214	815.5
2609.41916418269	816.5
2611.55847398764	808.5
2613.69717995017	814.25
2615.83528235339	801.5
2617.97278148034	814.75
2620.10967761398	821.5
2622.2459710372	821.5
2624.38166203284	815.5
2626.51675088365	807.5
2628.65123787231	816.5
2630.78512328145	817
2632.9184073936	800
2635.05109049124	817.25
2637.18317285676	814
2639.31465477248	806.25
2641.44553652067	816
2643.5758183835	818.5
2645.70550064309	827
2647.83458358144	823.25
2649.96306748053	816
2652.09095262223	821.5
2654.21823928836	827.5
2656.34492776063	825.5
2658.47101832071	834
2660.59651125015	819.75
2662.72140683047	821
2664.84570534309	817.75
2666.96940706934	813.25
2669.0925122905	821
2671.21502128773	821
2673.33693434215	827.5
2675.45825173479	818.25
2677.57897374658	821
2679.69910065839	817.5
2681.818632751	818.5
2683.93757030511	818
2686.05591360133	811.25
2688.17366292021	814.5
2690.29081854218	815.75
2692.40738074762	805.75
2694.52334981681	807
2696.63872602995	814.25
2698.75350966713	828.25
2700.86770100841	815.5
2702.98130033371	821.25
2705.09430792289	829.5
2707.20672405571	826
2709.31854901185	837.25
2711.42978307091	834.5
2713.54042651238	841
2715.65047961567	847.75
2717.7599426601	845.75
2719.86881592491	868
2721.97709968924	863
2724.08479423213	849.75
2726.19189983255	854.5
2728.29841676934	852
2730.4043453213	845
2732.5096857671	844.5
2734.61443838532	833.25
2736.71860345444	823
2738.82218125286	826.25
2740.92517205889	829
2743.02757615072	828.25
2745.12939380646	832
2747.23062530411	830
2749.33127092159	832.5
2751.4313309367	811
2753.53080562716	821.25
2755.62969527058	820.5
2757.72800014448	809.5
2759.82572052625	817.5
2761.92285669323	819
2764.0194089226	811.75
2766.11537749147	823.5
2768.21076267686	819.25
2770.30556475566	814.75
2772.39978400465	819.25
2774.49342070054	812.75
2776.58647511991	815.25
2778.67894753923	812.5
2780.77083823487	821.25
2782.8621474831	825.25
2784.95287556007	811.5
2787.04302274184	814.75
2789.13258930433	815
2791.22157552338	817.75
2793.30998167471	804
2795.39780803392	824.75
2797.4850548765	819.75
2799.57172247786	813.25
2801.65781111324	820.5
2803.74332105781	820.5
2805.82825258661	828.5
2807.91260597457	818.25
2809.9963814965	829
2812.07957942711	825.75
2814.16220004096	824
2816.24424361252	826.5
2818.32571041614	837
2820.40660072604	851.25
2822.48691481631	848.5
2824.56665296098	853.75
2826.64581543388	867.5
2828.72440250876	903
2830.80241445925	918.75
2832.87985155885	964.75
2834.95671408093	1026.5
2837.03300229875	1112.5
2839.10871648544	1121.75
2841.18385691399	1133.5
2843.25842385729	1071.25
2845.33241758808	1029.5
2847.40583837898	983.75
2849.4786865025	962.25
2851.550962231	952.5
2853.6226658367	939
2855.69379759173	936.5
2857.76435776806	967.5
2859.83434663753	1007.25
2861.90376447184	1100.5
2863.97261154259	1189.25
2866.0408881212	1265.25
2868.10859447901	1274
2870.17573088717	1263.75
2872.24229761673	1264.25
2874.30829493859	1281
2876.37372312352	1350.75
2878.43858244215	1384.25
2880.50287316496	1464.5
2882.56659556231	1494.75
2884.62974990439	1496.75
2886.69233646129	1468
2888.75435550293	1395.5
2890.81580729909	1371.5
2892.87669211941	1306.5
2894.93701023339	1273.5
2896.99676191039	1273.5
2899.05594741961	1299.75
2901.1145670301	1319.25
2903.1726210108	1372.75
2905.23010963045	1410.25
2907.28703315768	1360.25
2909.34339186096	1290.75
2911.39918600861	1243
2913.45441586879	1186
2915.50908170952	1176.25
2917.56318379867	1173.25
2919.61672240395	1189.5
2921.66969779291	1195.75
2923.72211023295	1192.75
2925.77395999134	1206.5
2927.82524733515	1166
2929.87597253132	1133
2931.92613584663	1089.5
2933.97573754769	1054.75
2936.02477790097	1002
2938.07325717276	982
2940.1211756292	985
2942.16853353626	991.5
2944.21533115976	1015.5
2946.26156876536	1066
2948.30724661853	1125.5
2950.3523649846	1202.75
2952.39692412872	1223
2954.44092431587	1212.75
2956.48436581089	1229.25
2958.52724887843	1231.25
2960.56957378296	1244.25
2962.6113407888	1223.5
2964.65255016011	1170.25
2966.69320216083	1121.5
2968.73329705479	1071.5
2970.77283510559	1022.5
2972.81181657671	988.25
2974.8502417314	951
2976.88811083279	909.75
2978.92542414378	895.25
2980.96218192713	879.75
2982.99838444541	894
2985.034031961	876
2987.06912473612	870.75
2989.1036630328	865.25
2991.13764711288	868
2993.17107723804	849.25
2995.20395366974	853.75
2997.23627666931	859.75
2999.26804649782	858.75
3001.29926341624	858.5
3003.32992768528	858.75
3005.3600395655	844.75
3007.38959931726	845.75
3009.41860720076	857.5
3011.44706347595	851.5
3013.47496840263	854.75
3015.50232224041	849
3017.5291252487	842.5
3019.5553776867	843.5
3021.58107981344	847.25
3023.60623188773	844.5
3025.63083416822	852
3027.65488691331	845.75
3029.67839038125	850.5
3031.70134483007	840.25
3033.72375051759	846.5
3035.74560770144	859.25
3037.76691663907	838.5
3039.78767758768	852.5
3041.80789080431	856
3043.82755654577	846
3045.84667506867	857.5
3047.8652466294	839.5
3049.88327148418	851.25
3051.90074988899	839.5
3053.91768209961	843.75
3055.9340683716	840.5
3057.94990896033	847.75
3059.96520412095	847
3061.97995410838	848
3063.99415917734	854
3066.00781958234	864.25
3068.02093557766	862.25
3070.03350741738	838.75
3072.04553535535	851.5
3074.05701964521	848.75
3076.06796054036	842.25
3078.078358294	847.25
3080.08821315912	847.25
3082.09752538846	846.5
3084.10629523454	837
3086.11452294967	842.5
3088.12220878592	852.5
3090.12935299515	860
3092.13595582898	845.5
3094.1420175388	851
3096.14753837579	836.5
3098.15251859088	849.25
3100.15695843477	845.75
3102.16085815793	852
3104.16421801061	861.5
3106.16703824282	849.25
3108.16931910432	860.75
3110.17106084464	841.75
3112.17226371308	853.25
3114.17292795872	860
3116.17305383034	849.25
3118.17264157657	860.5
3120.17169144571	862.5
3122.17020368587	867.75
3124.16817854492	852
3126.16561627044	855.5
3128.16251710982	863
3130.15888131017	875.5
3132.15470911837	861
3134.15000078104	861.75
3136.14475654455	860.5
3138.13897665502	851.5
3140.13266135835	852.75
3142.12581090014	857
3144.11842552577	863.75
3146.11050548036	864.25
3148.10205100875	857.5
3150.09306235557	856.5
3152.08353976515	856.75
3154.07348348158	857
3156.06289374869	857
3158.05177081006	857.5
3160.04011490899	862
3162.02792628852	855
3164.01520519145	866.5
3166.00195186029	863.5
3167.98816653728	855.75
3169.97384946442	864.5
3171.95900088344	847
3173.94362103577	860.25
3175.92771016259	862.5
3177.91126850484	867.25
3179.89429630312	858.25
3181.87679379782	857
3183.85876122903	861.25
3185.84019883657	870.5
3187.82110685997	855.25
3189.80148553851	867
3191.78133511116	872.25
3193.76065581664	867
3195.73944789337	875.25
3197.7177115795	858.75
3199.6954471129	880.5
3201.67265473114	871.25
3203.64933467153	867.75
3205.62548717107	871.75
3207.60111246648	868.25
3209.57621079421	870.25
3211.55078239041	875.25
3213.52482749093	862.25
3215.49834633133	875
3217.4713391469	874
3219.44380617262	875
3221.41574764317	874.5
3223.38716379296	860.25
3225.35805485607	863
3227.32842106631	875
3229.29826265718	870.75
3231.26757986187	876.25
3233.2363729133	870.25
3235.20464204405	871
3237.17238748643	877
3239.13960947243	880.5
3241.10630823374	868.25
3243.07248400174	863.5
3245.03813700748	885.75
3247.00326748177	874
3248.96787565503	863.25
3250.93196175742	874.25
3252.89552601877	878.5
3254.8585686686	873
3256.82108993612	883
3258.78309005022	875
3260.74456923948	893.25
3262.70552773215	883.75
3264.66596575617	885.5
3266.62588353916	879.25
3268.58528130843	879.25
3270.54415929094	881.5
3272.50251771336	883.75
3274.46035680201	876.5
3276.4176767829	882.25
3278.37447788171	874.25
3280.33076032379	868.75
3282.28652433416	884.25
3284.24177013751	879.5
3286.1964979582	880.25
3288.15070802027	877
3290.10440054741	869.25
3292.05757576298	886.5
3294.01023389001	886.25
3295.96237515119	889.5
3297.91399976887	881.5
3299.86510796506	877
3301.81569996142	876
3303.76577597932	885.25
3305.7153362397	884.75
3307.66438096324	884
3309.61291037024	879.5
3311.56092468064	878
3313.50842411404	882
3315.45540888971	875.25
3317.40187922656	871.75
3319.34783534315	888.5
3321.29327745768	884
3323.23820578801	877
3325.18262055164	881.75
3327.1265219657	879.5
3329.06991024699	878.75
3331.01278561194	878
3332.95514827662	884
3334.89699845674	879.75
3336.83833636766	868
3338.77916222434	881
3340.71947624143	879.75
3342.65927863317	884.75
3344.59856961346	881.75
3346.53734939584	884.5
3348.47561819344	894.75
3350.41337621906	883
3352.35062368513	879
3354.28736080368	887.25
3356.22358778637	883.75
3358.15930484452	879
3360.09451218904	889.25
3362.02921003047	874.75
3363.96339857898	886.25
3365.89707804436	883.75
3367.83024863602	879.75
3369.76291056299	874
3371.69506403389	881.25
3373.62670925699	880.75
3375.55784644016	881.25
3377.4884757909	882.5
3379.41859751629	882.75
3381.34821182305	881.25
3383.27731891749	887.5
3385.20591900555	883.25
3387.13401229276	886
3389.06159898426	878.75
3390.9886792848	892.25
3392.91525339872	885
3394.84132152998	885
3396.76688388213	886.75
3398.69194065833	888.25
3400.61649206133	881.75
3402.54053829348	875.25
3404.46407955672	884.5
3406.3871160526	877
3408.30964798225	885.25
3410.23167554639	881
3412.15319894535	882.25
3414.07421837904	881.5
3415.99473404695	875.5
3417.91474614817	886.5
3419.83425488136	886
3421.75326044479	884.5
3423.67176303631	883.5
3425.58976285332	877.25
3427.50726009282	888.75
3429.42425495143	887.5
3431.34074762528	893.25
3433.25673831012	889.75
3435.17222720127	881.5
3437.08721449362	884
3439.00170038164	871
3440.91568505936	885.5
3442.82916872039	883.75
3444.74215155791	878.5
3446.65463376468	897.75
3448.566615533	879.25
3450.47809705476	888.5
3452.3890785214	882
3454.29956012393	872
3456.20954205293	884.75
3458.11902449853	884.5
3460.02800765041	873.25
3461.93649169784	886.25
3463.84447682962	874.25
3465.75196323412	870.5
3467.65895109925	877.5
3469.56544061249	876.25
3471.47143196086	880.25
3473.37692533093	876.75
3475.28192090884	884
3477.18641888026	880.5
3479.09041943039	873.75
3480.99392274402	871
3482.89692900545	865
3484.79943839853	880
3486.70145110666	875.25
3488.60296731277	884.5
3490.50398719933	868.5
3492.40451094836	872.75
3494.30453874141	873.75
3496.20407075956	876.75
3498.10310718342	881.75
3500.00164819315	870.5