201.866871357051	843.5
204.754250281454	834.5
207.640596790938	838.75
210.525911876299	836.75
213.410196525689	829.25
216.293451724508	847.25
219.175678455485	834.25
222.056877698662	833.25
224.937050431388	849
227.816197628363	831.75
230.694320261602	829.5
233.571419300504	851
236.447495711764	858
239.322550459507	881.75
242.196584505182	896.5
245.069598807626	913.5
247.941594323078	919.75
250.812572005154	930
253.682532804884	917.5
256.551477670699	907.25
259.419407548456	902.5
262.286323381439	882.75
265.152226110364	856
268.017116673389	849
270.880996006115	850
273.743865041622	841.25
276.605724710436	831.5
279.466575940562	838.5
282.326419657496	823.25
285.1852567842	815.25
288.043088241157	842.75
290.899914946349	822.5
293.75573781526	819.75
296.610557760898	821
299.464375693817	829.25
302.317192522078	833.25
305.169009151297	831.5
308.019826484655	840
310.86964542287	850.5
313.718466864233	864.25
316.566291704614	867.25
319.413120837457	876.25
322.258955153804	875.25
325.103795542291	858.75
327.947642889128	830.5
330.79049807819	842
333.632361990927	836.5
336.473235506444	823.5
339.31311950145	826
342.152014850322	825.75
344.989922425062	816
347.826843095354	822.25
350.662777728528	837.75
353.497727189577	824.75
356.331692341195	818.75
359.164674043732	828
361.996673155267	833.75
364.827690531536	823
367.65772702602	827.25
370.486783489887	830
373.314860772047	843.5
376.14195971912	837.5
378.968081175466	843.25
381.793225983212	844.5
384.617394982201	873.75
387.44058901005	908.75
390.262808902131	985
393.08405549161	1086
395.904329609395	1211.25
398.723632084213	1253.75
401.541963742569	1191
404.359325408779	1089
407.175717904938	976.5
409.991142050982	921.75
412.805598664665	883
415.619088561551	877
418.43161255505	867.5
421.243171456415	867
424.053766074758	857
426.863397217017	849.5
429.672065688024	850
432.479772290455	858.25
435.286517824879	852.75
438.092303089736	854.25
440.897128881359	878.5
443.70099599399	891
446.503905219761	904.5
449.305857348711	975.25
452.106853168796	997.25
454.906893465919	1001.25
457.705979023885	975.75
460.504110624439	952
463.3012890473	923.75
466.097515070087	895.75
468.892789468424	867.25
471.687113015869	851
474.48048648395	846.5
477.272910642198	830.75
480.064386258109	836.5
482.854914097159	829.5
485.644494922839	852.75
488.433129496636	830.5
491.220818578047	839.75
494.007562924584	826
496.793363291785	841.25
499.578220433217	832.75
502.362135100473	827.5
505.145108043209	826
507.927140009098	840.5
510.708231743909	850
513.488383991433	846.5
516.267597493556	854.75
519.04587299022	882.75
521.82321121946	908
524.599612917398	945.75
527.375078818233	945.5
530.149609654287	952
532.923206155967	921.75
535.695869051804	887.25
538.467599068448	866
541.238396930665	849.75
544.008263361364	842.25
546.777199081578	825.25
549.545204810493	833.25
552.312281265436	833
555.078429161898	828.5
557.843649213533	817.75
560.607942132156	818.25
563.371308627753	816.75
566.133749408495	829.5
568.895265180756	823.5
571.655856649064	816.75
574.415524516189	830.25
577.174269483075	823.75
579.932092248884	821.75
582.688993510994	829.75
585.444973965023	819.75
588.200034304795	830.5
590.95417522237	818.5
593.70739740807	818.75
596.459701550433	816.25
599.21108833628	811.75
601.961558450668	806.25
604.711112576933	823
607.459751396673	812.75
610.207475589748	818.5
612.954285834338	823.25
615.700182806879	811.75
618.445167182101	802
621.189239633055	810.25
623.932400831087	822.5
626.674651445839	806.5
629.415992145303	808.5
632.156423595745	807
634.895946461813	809
637.634561406449	802
640.37226909096	812
643.109070174978	800.5
645.844965316508	809
648.579955171888	821.75
651.314040395846	801.25
654.047221641456	816.25
656.779499560176	807.25
659.510874801828	814.75
662.241348014642	809.75
664.97091984524	811
667.699590938606	820.25
670.427361938164	818.75
673.15423348573	803.25
675.880206221526	802.25
678.605280784206	807.5
681.329457810829	810.5
684.05273793692	811.5
686.775121796389	824
689.49661002163	811.25
692.217203243454	808.5
694.936902091144	808.5
697.655707192425	808
700.373619173493	804.75
703.09063865901	811
705.806766272093	814.75
708.522002634378	810.25
711.236348365946	808.25
713.94980408538	812.75
716.662370409762	813.5
719.374047954676	807
722.08483733419	807
724.794739160909	806
727.503754045949	809.5
730.21188259892	815.75
732.919125427998	807.25
735.625483139855	815
738.330956339723	809.75
741.035545631374	821
743.739251617106	815.5
746.44207489779	821.75
749.144016072852	818
751.845075740272	818.75
754.545254496603	819.5
757.244552936976	822
759.94297165508	816.25
762.640511243222	819.5
765.337172292249	827.75
768.032955391649	828.5
770.727861129482	833.25
773.421890092413	831.75
776.11504286572	837
778.807320033298	831.5
781.49872217765	833.25
784.18924987991	837
786.87890371984	848.25
789.567684275826	854.75
792.255592124908	867.75
794.94262784276	895
797.628792003703	931
800.314085180715	1052
802.998507945427	1277.5
805.682060868145	1621
808.364744517821	1833
811.046559462105	1719
813.727506267311	1374.75
816.407585498422	1101.25
819.08679771913	992.5
821.765143491822	952.5
824.442623377563	950
827.119237936127	944.75
829.794987726003	961.5
832.469873304377	1005.5
835.143895227167	1073
837.817054048985	1165.5
840.489350323205	1235
843.160784601892	1175.75
845.831357435894	1069
848.501069374739	974.75
851.169920966753	927
853.837912758987	900.5
856.505045297232	886.5
859.171319126071	874
861.836734788823	858.75
864.501292827579	850.25
867.164993783208	851
869.827838195361	846
872.489826602454	843.75
875.150959541701	853.5
877.811237549104	846.75
880.470661159456	849.75
883.129230906357	845
885.786947322205	832.5
888.443810938206	831
891.099822284385	833.25
893.754981889586	856
896.409290281452	871.5
899.062747986485	883
901.715355529999	873.5
904.367113436154	858.75
907.01802222793	859.5
909.668082427172	841
912.317294554574	844
914.965659129659	843.75
917.613176670835	841.25
920.259847695364	844.25
922.90567271936	845.75
925.550652257825	844.25
928.194786824621	862
930.838076932512	857.5
933.480523093109	894
936.122125816953	918.5
938.762885613447	949.75
941.402802990899	961.5
944.041878456523	943.25
946.680112516428	911
949.31750567563	875.25
951.954058438081	864.75
954.589771306633	876.75
957.224644783048	886.75
959.858679368044	900
962.491875561238	925.25
965.12423386121	1004.5
967.75575476545	1129.75
970.386438770423	1300.25
973.016286371501	1394.5
975.645298063046	1275
978.273474338355	1112.75
980.900815689674	979.5
983.527322608243	922.25
986.152995584245	904.25
988.777835106834	912
991.401841664148	920.25
994.025015743307	943
996.647357830407	968
999.268868410534	974.5
1001.88954796777	960.25
1004.50939698518	928.25
1007.12841594484	884.25
1009.74660532783	889
1012.36396561423	877.25
1014.98049728314	880.5
1017.59620081267	878
1020.21107667995	877.75
1022.82512536112	886.75
1025.43834733138	895.25
1028.05074306493	917.5
1030.66231303501	947.25
1033.27305771392	989.75
1035.88297757299	1019
1038.49207308257	1001.25
1041.10034471211	1006.5
1043.70779293008	987.75
1046.31441820402	955.75
1048.92022100052	916.5
1051.52520178525	904.75
1054.12936102295	891.25
1056.73269917742	878.75
1059.33521671154	879.5
1061.93691408729	874.75
1064.53779176571	873.75
1067.13785020694	872.75
1069.73708987022	859.75
1072.33551121386	870.5
1074.93311469528	869.25
1077.52990077103	871
1080.12586989674	876
1082.72102252714	870
1085.31535911611	874.5
1087.90888011663	867.25
1090.50158598078	872.75
1093.09347715979	890.5
1095.68455410403	890
1098.27481726296	900
1100.86426708523	915.25
1103.45290401857	915
1106.04072850991	908.25
1108.6277410053	888.75
1111.21394194993	893.75
1113.79933178816	897.5
1116.3839109635	896.75
1118.96767991862	882.25
1121.55063909539	889.5
1124.13278893477	885.5
1126.71412987696	899
1129.29466236132	903.5
1131.87438682637	908.5
1134.45330370982	916
1137.03141344858	926.25
1139.60871647872	942.5
1142.18521323554	991
1144.7609041535	1033
1147.33578966629	1141.25
1149.90987020676	1214.75
1152.48314620702	1242.75
1155.05561809835	1253.25
1157.62728631125	1224.75
1160.19815127545	1231.5
1162.76821341988	1350
1165.33747317271	1471.75
1167.90593096133	1536.75
1170.47358721235	1439.25
1173.04044235163	1277
1175.60649680425	1120.5
1178.17175099454	1026.75
1180.73620534607	993
1183.29986028165	967.5
1185.86271622336	940
1188.42477359249	950
1190.98603280964	941.25
1193.54649429462	946.25
1196.10615846653	949.5
1198.66502574372	959.25
1201.22309654385	957.5
1203.78037128378	959
1206.33685037971	964.75
1208.89253424709	980
1211.44742330063	999.25
1214.00151795438	1043
1216.55481862163	1100.75
1219.10732571497	1133.25
1221.65903964631	1098.25
1224.20996082683	1054.75
1226.760089667	1018.25
1229.30942657664	984.25
1231.85797196483	974.5
1234.40572623998	963.25
1236.95268980981	966.25
1239.49886308136	968.5
1242.04424646098	974.75
1244.58884035435	978.75
1247.13264516647	1005
1249.67566130166	1034
1252.21788916358	1074
1254.75932915524	1087.75
1257.29998167896	1073.25
1259.83984713639	1045.25
1262.37892592857	1015.25
1264.91721845586	1018
1267.45472511795	1012.75
1269.9914463139	1010.5
1272.52738244213	1018.25
1275.0625339004	1001.5
1277.59690108587	1031.5
1280.130484395	1027
1282.66328422367	1032.75
1285.19530096712	1036.25
1287.72653501993	1052.25
1290.25698677608	1074
1292.78665662894	1100.5
1295.31554497125	1093.75
1297.8436521951	1110.75
1300.37097869203	1125.5
1302.89752485292	1161
1305.42329106805	1171.25
1307.94827772713	1155.75
1310.47248521921	1122.5
1312.99591393279	1113
1315.51856425575	1139.75
1318.04043657536	1169.75
1320.56153127836	1242.5
1323.08184875083	1343.75
1325.6013893783	1465.25
1328.12015354572	1582.5
1330.63814163744	1543.25
1333.15535403727	1419.5
1335.67179112839	1329.75
1338.18745329347	1246.75
1340.70234091454	1203.5
1343.21645437314	1179.5
1345.72979405019	1182
1348.24236032607	1207
1350.75415358059	1233.75
1353.26517419303	1287.25
1355.7754225421	1335.75
1358.28489900594	1399.75
1360.79360396218	1427
1363.30153778787	1358.5
1365.80870085955	1312.25
1368.31509355319	1279.75
1370.82071624424	1301
1373.32556930762	1287.5
1375.8296531177	1275
1378.33296804832	1259.25
1380.83551447282	1249
1383.33729276399	1227
1385.83830329408	1224.25
1388.33854643489	1226.75
1390.83802255762	1221.75
1393.33673203301	1226.5
1395.83467523128	1224.5
1398.33185252211	1212.5
1400.82826427471	1232
1403.32391085777	1222.5
1405.81879263947	1246.5
1408.31290998752	1247.75
1410.80626326908	1237
1413.29885285087	1251
1415.79067909909	1272.75
1418.28174237944	1261
1420.77204305717	1268.5
1423.26158149702	1303.25
1425.75035806323	1337
1428.2383731196	1361.5
1430.72562702942	1445.75
1433.21212015554	1533.75
1435.69785286028	1582
1438.18282550555	1565.25
1440.66703845275	1541
1443.15049206284	1525.5
1445.6331866963	1562.5
1448.11512271316	1639.5
1450.59630047298	1735
1453.07672033486	1868.5
1455.55638265748	1979.25
1458.03528779902	2072.25
1460.51343611725	2091.25
1462.99082796946	1993.75
1465.46746371252	1805
1467.94334370285	1687
1470.41846829642	1619.75
1472.89283784878	1533.75
1475.36645271503	1514
1477.83931324983	1501
1480.31141980743	1497.5
1482.78277274164	1493
1485.25337240583	1495.5
1487.72321915297	1506
1490.19231333557	1495.25
1492.66065530578	1512
1495.12824541525	1509.5
1497.5950840153	1506.5
1500.06117145678	1505.25
1502.52650809014	1519
1504.99109426543	1526.25
1507.45493033227	1523.25
1509.91801663992	1526.25
1512.38035353717	1547.5
1514.84194137248	1560.5
1517.30278049386	1568.75
1519.76287124894	1557.75
1522.22221398497	1561.5
1524.68080904876	1568.5
1527.13865678681	1578.25
1529.59575754514	1549.75
1532.05211166945	1583
1534.50771950503	1578.5
1536.96258139678	1600.25
1539.41669768924	1592.75
1541.87006872656	1612.5
1544.32269485252	1621.25
1546.77457641051	1651.75
1549.22571374357	1639.25
1551.67610719434	1635.5
1554.12575710513	1672
1556.57466381785	1653.25
1559.02282767408	1671.5
1561.47024901499	1672.5
1563.91692818144	1690.5
1566.3628655139	1707.25
1568.80806135249	1696.5
1571.252516037	1711.75
1573.6962299068	1712.5
1576.13920330099	1717.25
1578.58143655828	1717.75
1581.02293001704	1733.75
1583.46368401528	1728
1585.90369889071	1735.25
1588.34297498065	1757.5
1590.7815126221	1734.25
1593.21931215173	1752.25
1595.65637390588	1779.25
1598.09269822053	1774.25
1600.52828543135	1759
1602.96313587367	1763.5
1605.3972498825	1773.25
1607.83062779252	1776.25
1610.26326993808	1761.75
1612.69517665322	1775.5
1615.12634827165	1780.25
1617.55678512676	1807.25
1619.98648755163	1781.75
1622.41545587902	1785.5
1624.84369044138	1786.75
1627.27119157085	1790.75
1629.69795959924	1782.75
1632.12399485808	1799.25
1634.54929767859	1791.5
1636.97386839165	1818.25
1639.39770732789	1810.5
1641.8208148176	1787.75
1644.24319119078	1813
1646.66483677715	1819.5
1649.0857519061	1825.5
1651.50593690677	1826.75
1653.92539210795	1845.75
1656.3441178382	1834
1658.76211442575	1865.75
1661.17938219855	1853.25
1663.59592148428	1865.25
1666.01173261032	1850.5
1668.42681590377	1879.5
1670.84117169145	1881
1673.25480029991	1852
1675.66770205541	1898.5
1678.07987728393	1867
1680.49132631119	1890.5
1682.90204946263	1918.25
1685.31204706342	1900.75
1687.72131943846	1897
1690.1298669124	1927.75
1692.53768980957	1923.5
1694.94478845411	1903.5
1697.35116316982	1890.5
1699.75681428031	1945.5
1702.16174210887	1925.5
1704.56594697858	1905.75
1706.96942921222	1947.75
1709.37218913235	1924.75
1711.77422706125	1891.75
1714.17554332098	1917.25
1716.5761382333	1950.25
1718.97601211977	1900.75
1721.37516530169	1929
1723.77359810006	1924
1726.17131083572	1942
1728.56830382922	1930.25
1730.96457740087	1922
1733.36013187075	1921
1735.75496755868	1901.25
1738.14908478428	1924.75
1740.54248386689	1906.25
1742.93516512565	1907.75
1745.32712887946	1936.75
1747.71837544697	1914.75
1750.10890514662	1937.75
1752.49871829661	1935.25
1754.88781521492	1914.5
1757.27619621929	1938
1759.66386162726	1927
1762.05081175612	1929.25
1764.43704692297	1938.25
1766.82256744465	1943
1769.20737363782	1948.25
1771.59146581887	1936.75
1773.97484430405	1941.75
1776.35750940932	1962.25
1778.73946145048	1950.25
1781.12070074309	1955.25
1783.50122760249	1967.5
1785.88104234385	1956.5
1788.26014528209	1985.75
1790.63853673196	1950
1793.01621700796	1956.5
1795.39318642443	1973
1797.76944529549	1945.5
1800.14499393503	1967.25
1802.51983265681	1949.5
1804.8939617743	1954
1807.26738160085	1978
1809.64009244957	1954.25
1812.01209463339	1950
1814.38338846504	1992
1816.75397425706	1960
1819.12385232181	1954.5
1821.49302297142	1975
1823.86148651789	1949
1826.22924327299	1954.5
1828.59629354831	1997.25
1830.96263765526	1986.75
1833.32827590507	1978.25
1835.69320860877	1967.5
1838.05743607724	1983
1840.42095862113	1965.5
1842.78377655097	1955.5
1845.14589017707	1973.75
1847.50729980956	1967.25
1849.86800575843	1987
1852.22800833346	1956.25
1854.58730784427	1940.75
1856.94590460032	1993.25
1859.30379891087	1993.25
1861.66099108503	1978.5
1864.01748143175	1991.75
1866.37327025978	1989
1868.72835787773	1976.75
1871.08274459403	1973.5
1873.43643071697	1996.25
1875.78941655464	1985.5
1878.14170241498	1973.25
1880.4932886058	1993
1882.84417543469	2013.5
1885.19436320915	2012.5
1887.54385223646	2006.5
1889.89264282378	2012.5
1892.24073527809	1982.5
1894.58812990625	2005
1896.93482701493	2020.5
1899.28082691067	2025
1901.62612989984	2024.5
1903.97073628868	2040.75
1906.31464638326	2011.25
1908.6578604895	2034.75
1911.00037891321	2063.5
1913.34220196	2071.5
1915.68332993537	2042.75
1918.02376314468	2040
1920.36350189311	2036
1922.70254648573	2035.5
1925.04089722744	2041
1927.37855442303	2032.5
1929.71551837715	2031.75
1932.05178939426	2057.25
1934.38736777876	2034.75
1936.72225383484	2050.5
1939.0564478666	2074
1941.38995017799	2022.5
1943.72276107283	2042.75
1946.05488085479	2042
1948.38630982744	2024.75
1950.71704829419	2054.25
1953.04709655832	2042.25
1955.376454923	2037.25
1957.70512369126	2038.5
1960.03310316599	2052.25
1962.36039364999	2010.25
1964.68699544589	1999.75
1967.01290885622	2024.5
1969.33813418338	2028.25
1971.66267172965	2024.25
1973.98652179718	2020
1976.309684688	2008.75
1978.63216070402	2002.25
1980.95395014705	2056.25
1983.27505331873	2023.75
1985.59547052063	2026.5
1987.9152020542	2032.25
1990.23424822074	2024.5
1992.55260932146	2032.25
1994.87028565746	2002
1997.18727752968	2033
1999.503585239	2001.5
2001.81920908618	1998.25
2004.13414937184	2031.25
2006.44840639651	2034.75
2008.7619804606	2051.5
2011.07487186442	2066.5
2013.38708090815	2060
2015.6986078919	2053.25
2018.00945311564	2082
2020.31961687923	2055.75
2022.62909948246	2072.5
2024.93790122498	2086.25
2027.24602240636	2068.5
2029.55346332604	2078.5
2031.86022428337	2070.5
2034.16630557761	2068.75
2036.47170750791	2096
2038.77643037331	2067
2041.08047447275	2097
2043.38384010509	2072.75
2045.68652756907	2083.75
2047.98853716335	2075.25
2050.28986918648	2077.75
2052.59052393692	2082.5
2054.89050171302	2092
2057.18980281306	2078.75
2059.4884275352	2069
2061.78637617753	2051
2064.08364903802	2062.75
2066.38024641457	2051.75
2068.67616860497	2039.5
2070.97141590694	2029.25
2073.26598861809	2038
2075.55988703595	2039.5
2077.85311145796	2050.5
2080.14566218145	2042.75
2082.43753950371	2033.5
2084.72874372188	2019.5
2087.01927513307	2015.25
2089.30913403428	2016.25
2091.59832072241	2019.75
2093.88683549429	2012.75
2096.17467864666	1982.5
2098.46185047619	2025.5
2100.74835127944	2015.75
2103.03418135292	2021.75
2105.31934099303	2013
2107.6038304961	2029.5
2109.88765015838	2028
2112.17080027602	2002.25
2114.45328114513	2008.75
2116.7350930617	2029
2119.01623632165	2028.75
2121.29671122085	2011.5
2123.57651805505	2013.5
2125.85565711996	2017.25
2128.13412871117	2022
2130.41193312424	2031
2132.68907065462	1998.75
2134.96554159771	2006.75
2137.24134624881	2003
2139.51648490317	1997.5
2141.79095785593	1998.75
2144.0647654022	2010.5
2146.33790783698	2012.75
2148.61038545524	1986.75
2150.88219855182	2001.5
2153.15334742154	2002.25
2155.42383235911	1994.5
2157.6936536592	2014
2159.9628116164	2000.5
2162.23130652522	1992.5
2164.49913868011	1984
2166.76630837544	2006
2169.03281590552	1991.5
2171.2986615646	1980.5
2173.56384564685	1963.25
2175.82836844637	1989
2178.0922302572	1992.75
2180.35543137332	1960.25
2182.61797208862	1935
2184.87985269695	1960.5
2187.14107349208	1955.75
2189.40163476773	1943.5
2191.66153681753	1943.25
2193.92077993507	1925
2196.17936441386	1930.5
2198.43729054735	1938.25
2200.69455862894	1940
2202.95116895194	1922
2205.20712180962	1911.75
2207.46241749519	1935.5
2209.71705630179	1910.75
2211.97103852248	1917.75
2214.2243644503	1943
2216.47703437819	1911.5
2218.72904859905	1915.25
2220.98040740571	1926.5
2223.23111109095	1898
2225.4811599475	1923.25
2227.73055426799	1913.5
2229.97929434504	1900
2232.22738047118	1883.75
2234.47481293889	1887
2236.72159204058	1900
2238.96771806864	1902.5
2241.21319131536	1891.5
2243.458012073	1860.25
2245.70218063374	1884.5
2247.94569728973	1879.5
2250.18856233304	1852.5
2252.4307760557	1856.75
2254.67233874967	1852.75
2256.91325070687	1879
2259.15351221915	1858.75
2261.39312357831	1848
2263.63208507611	1854
2265.87039700422	1859.25
2268.1080596543	1872.25
2270.34507331792	1841.5
2272.5814382866	1852.5
2274.81715485183	1851.75
2277.05222330502	1846.75
2279.28664393755	1834.25
2281.52041704072	1818
2283.75354290581	1828.25
2285.98602182401	1865.75
2288.21785408648	1832.75
2290.44903998434	1830
2292.67957980862	1816.25
2294.90947385033	1847.25
2297.1387224004	1816.25
2299.36732574975	1819.75
2301.59528418921	1824.75
2303.82259800958	1825.5
2306.04926750158	1836.5
2308.27529295593	1810.25
2310.50067466325	1812
2312.72541291412	1805
2314.9495079991	1825.25
2317.17296020866	1803.25
2319.39576983323	1802.25
2321.61793716322	1807.75
2323.83946248894	1796.25
2326.06034610069	1803.25
2328.28058828871	1777.25
2330.50018934317	1776
2332.7191495542	1769.5
2334.93746921192	1778.5
2337.15514860633	1800
2339.37218802743	1799.75
2341.58858776516	1759
2343.80434810941	1774.25
2346.01946935001	1776
2348.23395177675	1753
2350.44779567939	1741.75
2352.66100134759	1726.75
2354.87356907101	1744.25
2357.08549913925	1727
2359.29679184185	1729.25
2361.50744746829	1718.5
2363.71746630804	1726.75
2365.92684865048	1713.25
2368.13559478499	1707.75
2370.34370500083	1733
2372.55117958727	1710.25
2374.75801883352	1707.25
2376.96422302874	1704.75
2379.16979246202	1705.25
2381.37472742243	1710.25
2383.57902819898	1684.25
2385.78269508063	1695.5
2387.98572835629	1723.75
2390.18812831482	1670.5
2392.38989524505	1692.5
2394.59102943573	1675.25
2396.79153117559	1670
2398.9914007533	1701.75
2401.19063845748	1683.75
2403.38924457672	1658.75
2405.58721939951	1644.75
2407.78456321435	1686.5
2409.98127630966	1664.25
2412.17735897382	1660.5
2414.37281149517	1657.25
2416.56763416198	1657
2418.76182726249	1671.5
2420.95539108487	1631
2423.14832591726	1663.25
2425.34063204776	1650.25
2427.53230976439	1632
2429.72335935513	1635.5
2431.91378110795	1629.25
2434.10357531071	1629
2436.29274225125	1642.5
2438.48128221739	1611.75
2440.66919549683	1616.75
2442.8564823773	1610.75
2445.04314314641	1634.75
2447.22917809176	1618.25
2449.4145875009	1612.75
2451.59937166131	1615
2453.78353086044	1600.5
2455.96706538568	1613
2458.14997552436	1609.25
2460.33226156379	1598.5
2462.51392379119	1579.25
2464.69496249376	1579.25
2466.87537795862	1580.75
2469.05517047288	1581.25
2471.23434032357	1579.75
2473.41288779767	1591.75
2475.59081318211	1580.75
2477.76811676378	1557.75
2479.9447988295	1560.75
2482.12085966605	1571.75
2484.29629956016	1585.25
2486.4711187985	1558.5
2488.64531766769	1583.25
2490.8188964543	1564
2492.99185544484	1566.25
2495.16419492579	1567.25
2497.33591518353	1553.5
2499.50701650444	1561.5
2501.67749917482	1573.5
2503.84736348091	1545.75
2506.01660970891	1566.5
2508.18523814496	1555.25
2510.35324907514	1585
2512.52064278551	1554.75
2514.68741956201	1576.75
2516.85357969058	1572
2519.01912345709	1572
2521.18405114735	1564.5
2523.34836304711	1550.5
2525.51205944208	1548.75
2527.6751406179	1552.25
2529.83760686016	1561
2531.99945845439	1560
2534.16069568606	1568.75
2536.3213188406	1552.5
2538.48132820336	1549.75
2540.64072405965	1552
2542.79950669471	1565.75
2544.95767639373	1551.25
2547.11523344184	1550.5
2549.27217812411	1548
2551.42851072555	1540.75
2553.58423153111	1559.5
2555.73934082569	1526.5
2557.89383889412	1536.25
2560.04772602118	1537.25
2562.20100249158	1511.75
2564.35366858996	1555.5
2566.50572460093	1550.75
2568.65717080901	1519.25
2570.80800749867	1538.25
2572.95823495433	1537.5
2575.10785346031	1532.25
2577.25686330093	1527
2579.40526476038	1524.25
2581.55305812282	1540.75
2583.70024367237	1528.75
2585.84682169303	1517.25
2587.99279246879	1534.5
2590.13815628354	1520
2592.28291342112	1550.5
2594.42706416531	1531
2596.5706087998	1515.75
2598.71354760826	1540.75
2600.85588087425	1532.5
2602.99760888127	1553
2605.13873191278	1523.5
2607.27925025214	1540.5
2609.41916418269	1538.25
2611.55847398764	1541.25
2613.69717995017	1524.25
2615.83528235339	1538.25
2617.97278148034	1532.75
2620.10967761398	1552
2622.2459710372	1539.5
2624.38166203284	1539
2626.51675088365	1545.5
2628.65123787231	1544.75
2630.78512328145	1536.5
2632.9184073936	1538.75
2635.05109049124	1553.75
2637.18317285676	1522.5
2639.31465477248	1551.75
2641.44553652067	1548.5
2643.5758183835	1580
2645.70550064309	1574.25
2647.83458358144	1587
2649.96306748053	1610.5
2652.09095262223	1599.25
2654.21823928836	1613.5
2656.34492776063	1597.25
2658.47101832071	1601.5
2660.59651125015	1603.5
2662.72140683047	1615
2664.84570534309	1615
2666.96940706934	1586.25
2669.0925122905	1596.75
2671.21502128773	1601.75
2673.33693434215	1599.5
2675.45825173479	1613.25
2677.57897374658	1596.25
2679.69910065839	1602.75
2681.818632751	1588.5
2683.93757030511	1619.25
2686.05591360133	1607
2688.17366292021	1619.5
2690.29081854218	1609.75
2692.40738074762	1618.75
2694.52334981681	1592.75
2696.63872602995	1619.5
2698.75350966713	1642
2700.86770100841	1671.75
2702.98130033371	1664.25
2705.09430792289	1684.5
2707.20672405571	1705.75
2709.31854901185	1751
2711.42978307091	1760
2713.54042651238	1788.25
2715.65047961567	1816
2717.7599426601	1885.75
2719.86881592491	1967
2721.97709968924	1970
2724.08479423213	1954.75
2726.19189983255	1882
2728.29841676934	1840.25
2730.4043453213	1813
2732.5096857671	1785
2734.61443838532	1764.25
2736.71860345444	1754
2738.82218125286	1734.5
2740.92517205889	1726
2743.02757615072	1711.75
2745.12939380646	1685.25
2747.23062530411	1705.25
2749.33127092159	1703.5
2751.4313309367	1685
2753.53080562716	1713.75
2755.62969527058	1691.75
2757.72800014448	1717.25
2759.82572052625	1679
2761.92285669323	1665.5
2764.0194089226	1677.25
2766.11537749147	1657.25
2768.21076267686	1671.25
2770.30556475566	1661.5
2772.39978400465	1657.5
2774.49342070054	1672.25
2776.58647511991	1682
2778.67894753923	1664.5
2780.77083823487	1672.75
2782.8621474831	1690.75
2784.95287556007	1675.75
2787.04302274184	1673
2789.13258930433	1703
2791.22157552338	1695.75
2793.30998167471	1717.5
2795.39780803392	1721.75
2797.4850548765	1717
2799.57172247786	1714
2801.65781111324	1718.75
2803.74332105781	1742.25
2805.82825258661	1754.5
2807.91260597457	1780
2809.9963814965	1780.75
2812.07957942711	1801
2814.16220004096	1798.25
2816.24424361252	1821
2818.32571041614	1866.5
2820.40660072604	1858.75
2822.48691481631	1907.5
2824.56665296098	1972.5
2826.64581543388	2050.75
2828.72440250876	2193.5
2830.80241445925	2394.25
2832.87985155885	2756.75
2834.95671408093	3205.25
2837.03300229875	3646.5
2839.10871648544	3867.75
2841.18385691399	3814.75
2843.25842385729	3475.5
2845.33241758808	3089.5
2847.40583837898	2823.5
2849.4786865025	2631.75
2851.550962231	2541
2853.6226658367	2492
2855.69379759173	2569.5
2857.76435776806	2794
2859.83434663753	3161.25
2861.90376447184	3749.5
2863.97261154259	4399.5
2866.0408881212	4800.25
2868.10859447901	4923
2870.17573088717	4867.25
2872.24229761673	4778.75
2874.30829493859	4953.5
2876.37372312352	5265
2878.43858244215	5720.75
2880.50287316496	6117.25
2882.56659556231	6259.75
2884.62974990439	6204.5
2886.69233646129	5843
2888.75435550293	5515.5
2890.81580729909	5121.5
2892.87669211941	4862
2894.93701023339	4669
2896.99676191039	4671
2899.05594741961	4796.25
2901.1145670301	4940.25
2903.1726210108	5137
2905.23010963045	5318.75
2907.28703315768	5119.25
2909.34339186096	4876.75
2911.39918600861	4516.25
2913.45441586879	4306.25
2915.50908170952	4232.5
2917.56318379867	4243
2919.61672240395	4286
2921.66969779291	4319.5
2923.72211023295	4372.75
2925.77395999134	4261.75
2927.82524733515	4134.75
2929.87597253132	3828.25
2931.92613584663	3535.25
2933.97573754769	3268
2936.02477790097	3072
2938.07325717276	2923.5
2940.1211756292	2875
2942.16853353626	2950
2944.21533115976	3174.25
2946.26156876536	3497.5
2948.30724661853	3968.75
2950.3523649846	4444.75
2952.39692412872	4658.25
2954.44092431587	4770.75
2956.48436581089	5027.5
2958.52724887843	5535.25
2960.56957378296	5911.5
2962.6113407888	5706.5
2964.65255016011	5149.5
2966.69320216083	4719
2968.73329705479	4200.25
2970.77283510559	3706.25
2972.81181657671	3287
2974.8502417314	2927.5
2976.88811083279	2683.25
2978.92542414378	2499
2980.96218192713	2353
2982.99838444541	2266.75
2985.034031961	2200.75
2987.06912473612	2165.75
2989.1036630328	2107.5
2991.13764711288	2091.25
2993.17107723804	2077.5
2995.20395366974	2046.5
2997.23627666931	2016.5
2999.26804649782	2029.5
3001.29926341624	2019.5
3003.32992768528	1980.25
3005.3600395655	2022.75
3007.38959931726	1981.75
3009.41860720076	1987
3011.44706347595	1978
3013.47496840263	1965
3015.50232224041	1975.5
3017.5291252487	1977.5
3019.5553776867	1980.5
3021.58107981344	1975
3023.60623188773	1977.75
3025.63083416822	1945.5
3027.65488691331	1968.25
3029.67839038125	1955.75
3031.70134483007	1961.25
3033.72375051759	1951.25
3035.74560770144	1930.75
3037.76691663907	1974
3039.78767758768	1974.5
3041.80789080431	1965.75
3043.82755654577	1981.75
3045.84667506867	1952.75
3047.8652466294	1984.25
3049.88327148418	1956
3051.90074988899	1964.75
3053.91768209961	1947.5
3055.9340683716	1931.25
3057.94990896033	1941
3059.96520412095	1957.75
3061.97995410838	1942.25
3063.99415917734	1966.25
3066.00781958234	1947
3068.02093557766	1951
3070.03350741738	1942.75
3072.04553535535	1947.5
3074.05701964521	1930.5
3076.06796054036	1943.5
3078.078358294	1935.5
3080.08821315912	1940
3082.09752538846	1916.5
3084.10629523454	1922.75
3086.11452294967	1919.25
3088.12220878592	1918.75
3090.12935299515	1947.75
3092.13595582898	1922.25
3094.1420175388	1896.75
3096.14753837579	1928.25
3098.15251859088	1914
3100.15695843477	1923.25
3102.16085815793	1928.75
3104.16421801061	1937.5
3106.16703824282	1928.25
3108.16931910432	1922.5
3110.17106084464	1924.75
3112.17226371308	1931.75
3114.17292795872	1931
3116.17305383034	1941.5
3118.17264157657	1934.25
3120.17169144571	1929.5
3122.17020368587	1920.75
3124.16817854492	1924.75
3126.16561627044	1909.5
3128.16251710982	1966.5
3130.15888131017	1951.5
3132.15470911837	1986.5
3134.15000078104	1971.75
3136.14475654455	1958.25
3138.13897665502	1967
3140.13266135835	1972
3142.12581090014	1961.5
3144.11842552577	1980.75
3146.11050548036	1948.5
3148.10205100875	1982.25
3150.09306235557	1965.25
3152.08353976515	1968.5
3154.07348348158	1935.5
3156.06289374869	1963.25
3158.05177081006	1972.25
3160.04011490899	1962.25
3162.02792628852	1974.75
3164.01520519145	1966.25
3166.00195186029	1949.5
3167.98816653728	1948.75
3169.97384946442	1954
3171.95900088344	1948.5
3173.94362103577	1953
3175.92771016259	1965
3177.91126850484	1947.5
3179.89429630312	1959.5
3181.87679379782	1938.25
3183.85876122903	1963
3185.84019883657	1987.5
3187.82110685997	1955.75
3189.80148553851	1957.75
3191.78133511116	1942.75
3193.76065581664	1959.25
3195.73944789337	1955.5
3197.7177115795	1948
3199.6954471129	1966.25
3201.67265473114	1950.25
3203.64933467153	1942.5
3205.62548717107	1971.25
3207.60111246648	1961.5
3209.57621079421	1949.5
3211.55078239041	1970.5
3213.52482749093	1955
3215.49834633133	1966
3217.4713391469	1981
3219.44380617262	1917.75
3221.41574764317	1954.25
3223.38716379296	1949.5
3225.35805485607	1955.75
3227.32842106631	1950.5
3229.29826265718	1957.75
3231.26757986187	1960.5
3233.2363729133	1947.25
3235.20464204405	1951.75
3237.17238748643	1946
3239.13960947243	1951.25
3241.10630823374	1976.25
3243.07248400174	1958.5
3245.03813700748	1974.5
3247.00326748177	1935.25
3248.96787565503	1929.5
3250.93196175742	1932.25
3252.89552601877	1950.75
3254.8585686686	1934.75
3256.82108993612	1936
3258.78309005022	1948.25
3260.74456923948	1910.75
3262.70552773215	1960.75
3264.66596575617	1926.75
3266.62588353916	1930.5
3268.58528130843	1933.75
3270.54415929094	1909.25
3272.50251771336	1897
3274.46035680201	1935
3276.4176767829	1923.25
3278.37447788171	1928.5
3280.33076032379	1911.75
3282.28652433416	1920.5
3284.24177013751	1912.5
3286.1964979582	1914.5
3288.15070802027	1927.75
3290.10440054741	1920.25
3292.05757576298	1904.25
3294.01023389001	1916
3295.96237515119	1910
3297.91399976887	1907.5
3299.86510796506	1902.75
3301.81569996142	1913.5
3303.76577597932	1897.75
3305.7153362397	1901.25
3307.66438096324	1911.25
3309.61291037024	1908.25
3311.56092468064	1889.5
3313.50842411404	1898
3315.45540888971	1908.5
3317.40187922656	1864.25
3319.34783534315	1906
3321.29327745768	1905.25
3323.23820578801	1871.75
3325.18262055164	1889.75
3327.1265219657	1893.25
3329.06991024699	1894.5
3331.01278561194	1891
3332.95514827662	1882.5
3334.89699845674	1875.25
3336.83833636766	1896.5
3338.77916222434	1847.25
3340.71947624143	1873
3342.65927863317	1851
3344.59856961346	1852.5
3346.53734939584	1884.5
3348.47561819344	1886.5
3350.41337621906	1861
3352.35062368513	1864.5
3354.28736080368	1859.75
3356.22358778637	1835.5
3358.15930484452	1851.5
3360.09451218904	1873
3362.02921003047	1860.25
3363.96339857898	1842
3365.89707804436	1867.25
3367.83024863602	1847.25
3369.76291056299	1830.5
3371.69506403389	1847.75
3373.62670925699	1849.75
3375.55784644016	1834.75
3377.4884757909	1858
3379.41859751629	1822.25
3381.34821182305	1838.25
3383.27731891749	1829.75
3385.20591900555	1838.25
3387.13401229276	1857
3389.06159898426	1860.75
3390.9886792848	1842.5
3392.91525339872	1856.25
3394.84132152998	1827
3396.76688388213	1844.25
3398.69194065833	1871.5
3400.61649206133	1845.5
3402.54053829348	1852
3404.46407955672	1823
3406.3871160526	1850
3408.30964798225	1848.25
3410.23167554639	1816
3412.15319894535	1846.75
3414.07421837904	1844.75
3415.99473404695	1834.5
3417.91474614817	1830.75
3419.83425488136	1841.5
3421.75326044479	1816
3423.67176303631	1819.5
3425.58976285332	1824
3427.50726009282	1830.25
3429.42425495143	1808.25
3431.34074762528	1812.25
3433.25673831012	1804
3435.17222720127	1799.25
3437.08721449362	1816.25
3439.00170038164	1791.75
3440.91568505936	1784.25
3442.82916872039	1791.5
3444.74215155791	1818.25
3446.65463376468	1791.75
3448.566615533	1788.75
3450.47809705476	1800
3452.3890785214	1778.75
3454.29956012393	1783.75
3456.20954205293	1764.75
3458.11902449853	1759.5
3460.02800765041	1760
3461.93649169784	1756.75
3463.84447682962	1765.25
3465.75196323412	1754.75
3467.65895109925	1765.25
3469.56544061249	1764.5
3471.47143196086	1725.5
3473.37692533093	1741.25
3475.28192090884	1752.25
3477.18641888026	1745.5
3479.09041943039	1723.25
3480.99392274402	1748.25
3482.89692900545	1757.75
3484.79943839853	1740
3486.70145110666	1731.75
3488.60296731277	1756
3490.50398719933	1712.25
3492.40451094836	1716.75
3494.30453874141	1723
3496.20407075956	1738.75
3498.10310718342	1732.25